OOIBase32 Version 2.0.0.6 Data File
++++++++++++++++++++++++++++++++++++
Date: 01-22-2012, 21:05:01
User: Valued Ocean Optics Customer
Spectrometer Serial Number: USB2E2917
Spectrometer Channel: Master
Integration Time (msec): 4
Spectra Averaged: 10
Boxcar Smoothing: 5
Correct for Electrical Dark: Enabled
Time Normalized: Disabled
Dual-beam Reference: Disabled
Reference Channel: Master
Temperature: Not acquired
Spectrometer Type: S2000
ADC Type: USB2000
Number of Pixels in File: 2048
Graph Title: 
>>>>>Begin Spectral Data<<<<<
180.30	0.000
180.67	0.000
181.03	-68.825
181.40	212.680
181.77	42.668
182.14	50.899
182.51	1289.371
182.88	135.657
183.25	239.603
183.62	508.715
183.99	17.371
184.36	48.986
184.73	-141.922
185.10	-133.141
185.46	-184.175
185.83	95.835
186.20	37.155
186.57	425.018
186.94	152.700
187.31	-129.804
187.68	-2188.113
188.05	103.705
188.42	162.513
188.78	123.529
189.15	126.409
189.52	82.195
189.89	59.930
190.26	70.521
190.63	96.865
191.00	108.328
191.37	89.847
191.73	110.553
192.10	109.587
192.47	107.970
192.84	32.444
193.21	-96.167
193.58	-199.821
193.94	-209.639
194.31	-92.776
194.68	-52.335
195.05	-74.959
195.42	-87.946
195.79	-57.328
196.15	-46.127
196.52	-43.290
196.89	-25.802
197.26	-31.266
197.63	-31.142
198.00	-20.908
198.36	-115.604
198.73	-167.955
199.10	-66.016
199.47	-3.799
199.84	-11.514
200.20	-46.468
200.57	-32.182
200.94	-0.571
201.31	26.117
201.68	29.008
202.04	34.285
202.41	35.753
202.78	37.844
203.15	36.337
203.51	32.170
203.88	34.133
204.25	24.594
204.62	20.838
204.98	19.515
205.35	-8.129
205.72	-37.110
206.09	-134.818
206.46	-85.963
206.82	-145.684
207.19	-142.597
207.56	-177.409
207.92	-210.086
208.29	-136.413
208.66	-131.222
209.03	-160.720
209.39	-96.155
209.76	-63.453
210.13	-26.633
210.50	-39.090
210.86	-72.527
211.23	-110.455
211.60	-135.680
211.96	-136.266
212.33	-232.406
212.70	7382.616
213.07	605.012
213.43	569.586
213.80	1823.507
214.17	351.134
214.53	1786.974
214.90	-202.725
215.27	-109.044
215.63	-163.414
216.00	-87.691
216.37	-51.215
216.74	-35.597
217.10	-30.171
217.47	-27.639
217.84	-14.003
218.20	-9.807
218.57	-4.569
218.94	-7.647
219.30	6.425
219.67	23.499
220.04	26.146
220.40	32.490
220.77	38.649
221.13	43.561
221.50	42.504
221.87	32.619
222.23	40.459
222.60	30.059
222.97	18.628
223.33	8.069
223.70	0.480
224.07	-5.238
224.43	-5.912
224.80	-0.685
225.16	-4.422
225.53	-3.966
225.90	-3.853
226.26	-3.673
226.63	-5.122
226.99	-1.453
227.36	1.229
227.73	2.189
228.09	3.318
228.46	4.684
228.82	2.466
229.19	3.637
229.56	1.271
229.92	2.758
230.29	4.043
230.65	6.731
231.02	5.094
231.38	4.146
231.75	2.757
232.12	4.039
232.48	2.249
232.85	3.831
233.21	4.687
233.58	7.693
233.94	6.053
234.31	4.604
234.68	2.937
235.04	4.395
235.41	3.862
235.77	3.098
236.14	2.167
236.50	4.155
236.87	4.950
237.23	4.182
237.60	3.093
237.96	3.341
238.33	2.424
238.69	3.505
239.06	2.308
239.42	2.197
239.79	2.701
240.15	2.740
240.52	2.709
240.88	1.862
241.25	1.578
241.61	1.311
241.98	1.740
242.34	2.127
242.71	1.882
243.07	2.708
243.44	3.476
243.80	4.154
244.17	3.718
244.53	3.160
244.90	3.478
245.26	4.123
245.63	4.086
245.99	4.159
246.36	3.937
246.72	3.854
247.09	3.562
247.45	3.258
247.81	3.006
248.18	3.332
248.54	3.612
248.91	3.494
249.27	2.786
249.64	3.178
250.00	2.965
250.36	3.302
250.73	3.219
251.09	3.195
251.46	3.157
251.82	3.382
252.19	3.465
252.55	3.823
252.91	3.885
253.28	3.637
253.64	3.537
254.01	3.353
254.37	3.510
254.73	3.505
255.10	3.287
255.46	3.589
255.83	3.762
256.19	3.607
256.55	3.398
256.92	3.358
257.28	3.649
257.65	3.828
258.01	3.750
258.37	3.587
258.74	3.704
259.10	4.008
259.46	3.800
259.83	3.537
260.19	3.630
260.55	3.561
260.92	3.486
261.28	3.280
261.64	2.871
262.01	2.805
262.37	2.675
262.73	2.563
263.10	2.076
263.46	2.359
263.82	2.353
264.19	2.063
264.55	2.367
264.91	2.811
265.28	3.511
265.64	3.589
266.00	3.440
266.37	3.678
266.73	3.890
267.09	4.030
267.46	3.599
267.82	3.702
268.18	3.801
268.54	3.705
268.91	3.640
269.27	3.182
269.63	3.289
270.00	3.475
270.36	3.394
270.72	3.399
271.08	3.423
271.45	3.758
271.81	3.817
272.17	4.025
272.53	4.197
272.90	4.139
273.26	4.118
273.62	4.191
273.98	4.277
274.35	4.214
274.71	4.061
275.07	4.178
275.43	4.394
275.80	4.512
276.16	4.234
276.52	3.864
276.88	3.804
277.25	3.595
277.61	3.580
277.97	3.629
278.33	3.885
278.69	4.014
279.06	3.716
279.42	3.592
279.78	3.493
280.14	3.566
280.50	3.708
280.87	3.832
281.23	3.971
281.59	3.882
281.95	3.880
282.31	3.679
282.68	3.662
283.04	3.776
283.40	3.401
283.76	3.261
284.12	3.242
284.48	3.132
284.85	3.031
285.21	3.111
285.57	3.129
285.93	3.215
286.29	3.226
286.65	3.142
287.02	3.298
287.38	3.524
287.74	3.549
288.10	3.307
288.46	3.241
288.82	3.200
289.18	3.060
289.54	2.985
289.91	2.643
290.27	2.887
290.63	3.110
290.99	2.924
291.35	3.025
291.71	3.051
292.07	3.395
292.43	3.582
292.79	3.711
293.16	3.778
293.52	3.962
293.88	4.106
294.24	3.836
294.60	3.683
294.96	3.722
295.32	3.583
295.68	3.395
296.04	3.305
296.40	3.339
296.76	3.268
297.12	3.468
297.49	3.483
297.85	3.829
298.21	3.968
298.57	3.910
298.93	4.071
299.29	4.094
299.65	4.328
300.01	4.296
300.37	4.231
300.73	4.321
301.09	4.138
301.45	4.051
301.81	3.781
302.17	3.665
302.53	3.584
302.89	3.509
303.25	3.560
303.61	3.499
303.97	3.670
304.33	3.763
304.69	3.972
305.05	4.045
305.41	4.233
305.77	4.232
306.13	4.525
306.49	4.894
306.85	4.955
307.21	5.008
307.57	5.003
307.93	5.019
308.29	5.082
308.65	4.851
309.01	4.823
309.37	4.627
309.73	4.703
310.09	4.568
310.45	4.410
310.81	4.289
311.17	4.218
311.53	4.341
311.89	4.341
312.25	4.193
312.61	4.310
312.96	4.407
313.32	4.425
313.68	4.280
314.04	4.312
314.40	4.289
314.76	4.350
315.12	4.459
315.48	4.438
315.84	4.243
316.20	4.251
316.56	4.163
316.92	4.106
317.27	4.239
317.63	4.251
317.99	4.251
318.35	4.478
318.71	4.500
319.07	4.615
319.43	4.555
319.79	4.674
320.15	4.818
320.50	5.034
320.86	5.161
321.22	5.266
321.58	5.324
321.94	5.445
322.30	5.529
322.66	5.704
323.01	5.779
323.37	6.042
323.73	6.155
324.09	6.426
324.45	6.402
324.81	6.482
325.17	6.559
325.52	6.778
325.88	6.812
326.24	6.801
326.60	6.945
326.96	7.074
327.31	7.098
327.67	7.378
328.03	7.318
328.39	7.424
328.75	7.566
329.11	7.715
329.46	7.865
329.82	8.021
330.18	8.162
330.54	8.216
330.90	8.289
331.25	8.340
331.61	8.237
331.97	8.289
332.33	8.374
332.68	8.418
333.04	8.436
333.40	8.456
333.76	8.521
334.11	8.449
334.47	8.579
334.83	8.611
335.19	8.664
335.54	8.709
335.90	8.681
336.26	8.693
336.62	8.698
336.97	8.743
337.33	8.799
337.69	8.747
338.05	8.844
338.40	8.815
338.76	8.839
339.12	8.870
339.48	8.887
339.83	8.946
340.19	9.074
340.55	9.152
340.90	9.135
341.26	9.087
341.62	9.070
341.97	9.034
342.33	8.931
342.69	8.926
343.04	8.914
343.40	8.970
343.76	8.981
344.12	8.921
344.47	8.842
344.83	8.853
345.19	8.887
345.54	8.968
345.90	8.964
346.26	9.000
346.61	8.887
346.97	8.956
347.32	8.954
347.68	8.948
348.04	8.933
348.39	8.934
348.75	8.873
349.11	8.861
349.46	8.784
349.82	8.847
350.18	8.865
350.53	9.004
350.89	8.939
351.24	8.925
351.60	8.908
351.96	8.911
352.31	8.896
352.67	8.928
353.02	8.975
353.38	9.040
353.74	9.120
354.09	9.156
354.45	9.056
354.80	9.011
355.16	9.080
355.52	9.141
355.87	9.081
356.23	9.059
356.58	9.104
356.94	9.049
357.29	9.041
357.65	8.909
358.00	8.887
358.36	8.926
358.72	8.951
359.07	8.864
359.43	8.893
359.78	8.964
360.14	9.031
360.49	9.027
360.85	9.051
361.20	9.088
361.56	9.128
361.91	9.100
362.27	9.109
362.62	9.201
362.98	9.296
363.33	9.281
363.69	9.310
364.04	9.317
364.40	9.303
364.75	9.241
365.11	9.191
365.46	9.213
365.82	9.176
366.17	9.151
366.53	9.051
366.88	9.058
367.24	9.043
367.59	9.074
367.95	9.049
368.30	9.109
368.66	9.206
369.01	9.312
369.37	9.266
369.72	9.327
370.08	9.360
370.43	9.384
370.78	9.368
371.14	9.389
371.49	9.319
371.85	9.397
372.20	9.435
372.56	9.430
372.91	9.427
373.26	9.542
373.62	9.558
373.97	9.595
374.33	9.627
374.68	9.661
375.03	9.663
375.39	9.710
375.74	9.716
376.10	9.708
376.45	9.804
376.80	9.830
377.16	9.794
377.51	9.831
377.87	9.853
378.22	9.925
378.57	9.925
378.93	9.951
379.28	9.963
379.63	9.966
379.99	9.993
380.34	9.956
380.70	9.960
381.05	10.043
381.40	10.041
381.76	10.072
382.11	10.095
382.46	10.113
382.82	10.127
383.17	10.127
383.52	10.184
383.88	10.152
384.23	10.202
384.58	10.213
384.94	10.213
385.29	10.254
385.64	10.276
385.99	10.289
386.35	10.354
386.70	10.400
387.05	10.430
387.41	10.454
387.76	10.474
388.11	10.437
388.47	10.440
388.82	10.406
389.17	10.465
389.52	10.468
389.88	10.488
390.23	10.469
390.58	10.471
390.93	10.535
391.29	10.546
391.64	10.610
391.99	10.629
392.34	10.634
392.70	10.653
393.05	10.618
393.40	10.645
393.75	10.624
394.11	10.604
394.46	10.569
394.81	10.562
395.16	10.531
395.52	10.544
395.87	10.571
396.22	10.616
396.57	10.631
396.92	10.617
397.28	10.579
397.63	10.550
397.98	10.611
398.33	10.698
398.68	10.683
399.04	10.657
399.39	10.646
399.74	10.649
400.09	10.639
400.44	10.674
400.80	10.714
401.15	10.742
401.50	10.803
401.85	10.776
402.20	10.765
402.55	10.800
402.90	10.850
403.26	10.825
403.61	10.838
403.96	10.863
404.31	10.853
404.66	10.835
405.01	10.843
405.36	10.821
405.72	10.820
406.07	10.835
406.42	10.822
406.77	10.827
407.12	10.825
407.47	10.809
407.82	10.778
408.17	10.770
408.53	10.804
408.88	10.824
409.23	10.834
409.58	10.860
409.93	10.860
410.28	10.873
410.63	10.879
410.98	10.885
411.33	10.879
411.68	10.914
412.03	10.935
412.38	10.931
412.73	10.902
413.09	10.882
413.44	10.843
413.79	10.797
414.14	10.791
414.49	10.719
414.84	10.720
415.19	10.681
415.54	10.644
415.89	10.580
416.24	10.541
416.59	10.535
416.94	10.525
417.29	10.511
417.64	10.505
417.99	10.477
418.34	10.483
418.69	10.450
419.04	10.470
419.39	10.466
419.74	10.481
420.09	10.465
420.44	10.441
420.79	10.434
421.14	10.420
421.49	10.438
421.84	10.438
422.19	10.448
422.54	10.471
422.89	10.461
423.24	10.446
423.59	10.451
423.94	10.488
424.29	10.516
424.64	10.540
424.99	10.609
425.34	10.609
425.68	10.625
426.03	10.646
426.38	10.673
426.73	10.709
427.08	10.723
427.43	10.755
427.78	10.717
428.13	10.719
428.48	10.728
428.83	10.690
429.18	10.685
429.53	10.717
429.87	10.717
430.22	10.696
430.57	10.681
430.92	10.699
431.27	10.678
431.62	10.696
431.97	10.698
432.32	10.700
432.67	10.712
433.01	10.732
433.36	10.726
433.71	10.736
434.06	10.764
434.41	10.753
434.76	10.754
435.11	10.767
435.45	10.795
435.80	10.759
436.15	10.739
436.50	10.720
436.85	10.713
437.20	10.698
437.54	10.683
437.89	10.659
438.24	10.650
438.59	10.637
438.94	10.607
439.29	10.593
439.63	10.609
439.98	10.606
440.33	10.601
440.68	10.565
441.03	10.573
441.37	10.569
441.72	10.560
442.07	10.569
442.42	10.576
442.76	10.598
443.11	10.589
443.46	10.596
443.81	10.593
444.16	10.597
444.50	10.613
444.85	10.601
445.20	10.601
445.55	10.602
445.89	10.594
446.24	10.593
446.59	10.604
446.94	10.611
447.28	10.601
447.63	10.595
447.98	10.598
448.32	10.583
448.67	10.575
449.02	10.569
449.37	10.603
449.71	10.628
450.06	10.656
450.41	10.638
450.75	10.625
451.10	10.640
451.45	10.663
451.79	10.675
452.14	10.692
452.49	10.719
452.84	10.707
453.18	10.687
453.53	10.685
453.88	10.666
454.22	10.666
454.57	10.671
454.92	10.655
455.26	10.655
455.61	10.642
455.95	10.647
456.30	10.636
456.65	10.659
456.99	10.664
457.34	10.667
457.69	10.681
458.03	10.688
458.38	10.704
458.73	10.746
459.07	10.762
459.42	10.781
459.76	10.797
460.11	10.835
460.46	10.853
460.80	10.857
461.15	10.872
461.49	10.873
461.84	10.894
462.19	10.918
462.53	10.909
462.88	10.905
463.22	10.951
463.57	10.972
463.91	10.990
464.26	11.028
464.61	11.061
464.95	11.088
465.30	11.107
465.64	11.123
465.99	11.132
466.33	11.160
466.68	11.169
467.02	11.165
467.37	11.171
467.71	11.163
468.06	11.147
468.41	11.143
468.75	11.150
469.10	11.167
469.44	11.185
469.79	11.198
470.13	11.191
470.48	11.224
470.82	11.235
471.17	11.241
471.51	11.231
471.86	11.255
472.20	11.245
472.55	11.252
472.89	11.256
473.23	11.251
473.58	11.229
473.92	11.222
474.27	11.202
474.61	11.174
474.96	11.148
475.30	11.148
475.65	11.113
475.99	11.122
476.34	11.101
476.68	11.080
477.02	11.072
477.37	11.094
477.71	11.086
478.06	11.100
478.40	11.115
478.75	11.173
479.09	11.227
479.43	11.305
479.78	11.386
480.12	11.453
480.47	11.553
480.81	11.654
481.15	11.751
481.50	11.864
481.84	12.015
482.19	12.176
482.53	12.278
482.87	12.312
483.22	12.251
483.56	12.114
483.90	11.976
484.25	11.860
484.59	11.799
484.94	11.722
485.28	11.632
485.62	11.483
485.97	11.319
486.31	11.190
486.65	11.130
487.00	11.177
487.34	11.316
487.68	11.464
488.03	11.565
488.37	11.577
488.71	11.592
489.06	11.602
489.40	11.607
489.74	11.618
490.09	11.638
490.43	11.662
490.77	11.663
491.11	11.666
491.46	11.691
491.80	11.703
492.14	11.704
492.49	11.706
492.83	11.701
493.17	11.725
493.51	11.747
493.86	11.766
494.20	11.780
494.54	11.806
494.88	11.835
495.23	11.847
495.57	11.861
495.91	11.902
496.25	11.952
496.60	12.007
496.94	12.039
497.28	12.070
497.62	12.097
497.97	12.148
498.31	12.222
498.65	12.267
498.99	12.317
499.33	12.384
499.68	12.429
500.02	12.465
500.36	12.527
500.70	12.574
501.04	12.626
501.39	12.674
501.73	12.702
502.07	12.726
502.41	12.772
502.75	12.801
503.09	12.824
503.44	12.866
503.78	12.902
504.12	12.951
504.46	12.996
504.80	13.060
505.14	13.114
505.49	13.181
505.83	13.216
506.17	13.268
506.51	13.327
506.85	13.348
507.19	13.405
507.53	13.442
507.87	13.482
508.22	13.542
508.56	13.569
508.90	13.606
509.24	13.629
509.58	13.679
509.92	13.687
510.26	13.710
510.60	13.772
510.94	13.803
511.28	13.859
511.63	13.882
511.97	13.899
512.31	13.935
512.65	13.982
512.99	14.041
513.33	14.074
513.67	14.137
514.01	14.164
514.35	14.203
514.69	14.226
515.03	14.259
515.37	14.301
515.71	14.338
516.05	14.364
516.39	14.380
516.73	14.388
517.07	14.417
517.41	14.449
517.75	14.495
518.09	14.525
518.43	14.557
518.77	14.577
519.11	14.579
519.45	14.590
519.79	14.629
520.13	14.664
520.47	14.722
520.81	14.783
521.15	14.802
521.49	14.814
521.83	14.817
522.17	14.832
522.51	14.851
522.85	14.880
523.19	14.950
523.53	15.012
523.87	15.094
524.21	15.152
524.55	15.226
524.89	15.301
525.23	15.397
525.57	15.481
525.91	15.553
526.25	15.614
526.58	15.697
526.92	15.731
527.26	15.765
527.60	15.780
527.94	15.783
528.28	15.762
528.62	15.760
528.96	15.732
529.30	15.716
529.64	15.690
529.97	15.675
530.31	15.638
530.65	15.620
530.99	15.599
531.33	15.597
531.67	15.605
532.01	15.636
532.35	15.637
532.68	15.654
533.02	15.653
533.36	15.667
533.70	15.665
534.04	15.664
534.38	15.676
534.71	15.681
535.05	15.677
535.39	15.675
535.73	15.663
536.07	15.676
536.41	15.705
536.74	15.747
537.08	15.785
537.42	15.827
537.76	15.868
538.10	15.916
538.43	15.963
538.77	16.013
539.11	16.060
539.45	16.095
539.79	16.137
540.12	16.151
540.46	16.165
540.80	16.167
541.14	16.178
541.47	16.188
541.81	16.178
542.15	16.179
542.49	16.158
542.82	16.159
543.16	16.162
543.50	16.151
543.84	16.175
544.17	16.173
544.51	16.207
544.85	16.210
545.18	16.213
545.52	16.230
545.86	16.241
546.20	16.276
546.53	16.306
546.87	16.333
547.21	16.374
547.54	16.360
547.88	16.398
548.22	16.408
548.55	16.448
548.89	16.476
549.23	16.512
549.56	16.548
549.90	16.557
550.24	16.564
550.57	16.556
550.91	16.557
551.25	16.580
551.58	16.584
551.92	16.612
552.26	16.645
552.59	16.663
552.93	16.713
553.27	16.716
553.60	16.725
553.94	16.753
554.27	16.794
554.61	16.829
554.95	16.859
555.28	16.885
555.62	16.903
555.95	16.912
556.29	16.948
556.63	16.948
556.96	16.964
557.30	17.012
557.63	17.022
557.97	17.045
558.31	17.045
558.64	17.047
558.98	17.083
559.31	17.089
559.65	17.082
559.98	17.083
560.32	17.105
560.65	17.128
560.99	17.146
561.33	17.167
561.66	17.175
562.00	17.178
562.33	17.220
562.67	17.208
563.00	17.239
563.34	17.292
563.67	17.300
564.01	17.302
564.34	17.313
564.68	17.338
565.01	17.351
565.35	17.373
565.68	17.407
566.02	17.405
566.35	17.452
566.69	17.441
567.02	17.440
567.36	17.489
567.69	17.505
568.03	17.539
568.36	17.545
568.69	17.575
569.03	17.608
569.36	17.601
569.70	17.646
570.03	17.658
570.37	17.689
570.70	17.702
571.04	17.701
571.37	17.708
571.70	17.716
572.04	17.726
572.37	17.757
572.71	17.767
573.04	17.789
573.37	17.812
573.71	17.844
574.04	17.858
574.38	17.893
574.71	17.911
575.04	17.958
575.38	17.984
575.71	18.027
576.05	18.034
576.38	18.064
576.71	18.122
577.05	18.148
577.38	18.147
577.71	18.194
578.05	18.200
578.38	18.262
578.71	18.274
579.05	18.289
579.38	18.316
579.71	18.353
580.05	18.358
580.38	18.378
580.71	18.411
581.05	18.434
581.38	18.433
581.71	18.469
582.05	18.450
582.38	18.447
582.71	18.488
583.04	18.506
583.38	18.528
583.71	18.559
584.04	18.558
584.38	18.561
584.71	18.578
585.04	18.612
585.37	18.620
585.71	18.642
586.04	18.670
586.37	18.683
586.70	18.667
587.04	18.678
587.37	18.701
587.70	18.700
588.03	18.662
588.37	18.658
588.70	18.691
589.03	18.715
589.36	18.729
589.69	18.734
590.03	18.712
590.36	18.732
590.69	18.688
591.02	18.681
591.35	18.694
591.69	18.713
592.02	18.727
592.35	18.705
592.68	18.696
593.01	18.674
593.35	18.663
593.68	18.664
594.01	18.651
594.34	18.688
594.67	18.703
595.00	18.677
595.34	18.690
595.67	18.696
596.00	18.677
596.33	18.680
596.66	18.697
596.99	18.704
597.32	18.739
597.65	18.747
597.99	18.719
598.32	18.674
598.65	18.701
598.98	18.682
599.31	18.673
599.64	18.719
599.97	18.746
600.30	18.740
600.63	18.755
600.96	18.764
601.30	18.771
601.63	18.784
601.96	18.826
602.29	18.862
602.62	18.881
602.95	18.906
603.28	18.915
603.61	18.889
603.94	18.889
604.27	18.918
604.60	18.901
604.93	18.926
605.26	18.918
605.59	18.905
605.92	18.904
606.25	18.905
606.58	18.915
606.91	18.893
607.24	18.894
607.57	18.891
607.90	18.874
608.23	18.850
608.56	18.793
608.89	18.814
609.22	18.802
609.55	18.776
609.88	18.769
610.21	18.768
610.54	18.746
610.87	18.755
611.20	18.736
611.53	18.716
611.86	18.748
612.19	18.805
612.52	18.797
612.85	18.843
613.18	18.853
613.51	18.843
613.84	18.803
614.17	18.852
614.49	18.802
614.82	18.883
615.15	18.899
615.48	18.880
615.81	18.903
616.14	18.922
616.47	18.865
616.80	18.895
617.13	18.929
617.46	18.912
617.78	18.809
618.11	18.874
618.44	18.834
618.77	18.820
619.10	18.831
619.43	18.839
619.76	18.827
620.09	18.857
620.41	18.834
620.74	18.866
621.07	18.929
621.40	19.052
621.73	19.076
622.06	19.122
622.38	19.169
622.71	19.157
623.04	19.120
623.37	19.147
623.70	19.186
624.02	19.191
624.35	19.155
624.68	19.147
625.01	19.128
625.34	19.104
625.66	19.089
625.99	19.051
626.32	19.078
626.65	19.120
626.98	19.109
627.30	19.105
627.63	19.135
627.96	19.118
628.29	19.144
628.61	19.153
628.94	19.161
629.27	19.136
629.60	19.198
629.92	19.265
630.25	19.225
630.58	19.208
630.91	19.175
631.23	19.147
631.56	19.156
631.89	19.137
632.21	19.123
632.54	19.089
632.87	19.106
633.19	19.062
633.52	18.978
633.85	19.003
634.18	18.991
634.50	19.000
634.83	18.998
635.16	19.032
635.48	18.991
635.81	18.977
636.14	18.989
636.46	18.966
636.79	18.946
637.11	18.974
637.44	18.912
637.77	18.943
638.09	18.923
638.42	18.899
638.75	18.860
639.07	18.864
639.40	18.827
639.73	18.848
640.05	18.860
640.38	18.846
640.70	18.808
641.03	18.833
641.36	18.799
641.68	18.789
642.01	18.805
642.33	18.846
642.66	18.872
642.98	18.917
643.31	18.909
643.64	18.947
643.96	18.993
644.29	19.025
644.61	19.010
644.94	19.053
645.26	19.124
645.59	19.144
645.91	19.103
646.24	19.096
646.56	19.088
646.89	19.126
647.22	19.073
647.54	19.063
647.87	19.051
648.19	19.092
648.52	19.087
648.84	19.053
649.17	19.061
649.49	19.065
649.82	19.025
650.14	19.013
650.47	18.957
650.79	19.005
651.11	18.973
651.44	18.959
651.76	18.967
652.09	18.954
652.41	18.929
652.74	18.864
653.06	18.834
653.39	18.873
653.71	18.868
654.04	18.866
654.36	18.890
654.68	18.872
655.01	18.876
655.33	18.890
655.66	18.887
655.98	18.851
656.30	18.880
656.63	18.864
656.95	18.857
657.28	18.894
657.60	18.912
657.92	18.853
658.25	18.873
658.57	18.883
658.90	18.840
659.22	18.830
659.54	18.817
659.87	18.749
660.19	18.728
660.51	18.684
660.84	18.597
661.16	18.553
661.48	18.539
661.81	18.503
662.13	18.433
662.45	18.376
662.78	18.357
663.10	18.379
663.42	18.380
663.75	18.423
664.07	18.426
664.39	18.395
664.72	18.372
665.04	18.342
665.36	18.261
665.69	18.296
666.01	18.341
666.33	18.323
666.65	18.244
666.98	18.216
667.30	18.245
667.62	18.184
667.94	18.160
668.27	18.119
668.59	18.094
668.91	18.196
669.23	18.148
669.56	18.064
669.88	17.953
670.20	17.947
670.52	17.951
670.85	17.851
671.17	17.874
671.49	17.885
671.81	17.896
672.13	17.914
672.46	17.838
672.78	17.820
673.10	17.796
673.42	17.867
673.74	17.900
674.07	17.955
674.39	17.979
674.71	17.961
675.03	18.018
675.35	18.009
675.67	17.988
676.00	18.029
676.32	18.021
676.64	18.098
676.96	18.171
677.28	18.182
677.60	18.157
677.92	18.140
678.25	18.163
678.57	18.120
678.89	18.130
679.21	18.060
679.53	18.014
679.85	18.015
680.17	17.936
680.49	17.813
680.81	17.766
681.13	17.734
681.46	17.681
681.78	17.656
682.10	17.723
682.42	17.695
682.74	17.726
683.06	17.714
683.38	17.709
683.70	17.799
684.02	17.872
684.34	17.874
684.66	17.905
684.98	17.983
685.30	18.000
685.62	18.023
685.94	18.051
686.26	18.061
686.58	18.114
686.90	18.107
687.22	18.053
687.54	18.053
687.86	18.141
688.18	18.127
688.50	18.106
688.82	18.090
689.14	17.911
689.46	17.837
689.78	17.846
690.10	17.761
690.42	17.711
690.74	17.650
691.06	17.568
691.38	17.366
691.70	17.292
692.02	17.161
692.34	17.113
692.66	17.106
692.98	17.103
693.30	17.071
693.62	17.204
693.94	17.253
694.26	17.233
694.57	17.308
694.89	17.371
695.21	17.435
695.53	17.534
695.85	17.492
696.17	17.528
696.49	17.558
696.81	17.569
697.13	17.535
697.44	17.470
697.76	17.537
698.08	17.495
698.40	17.500
698.72	17.332
699.04	17.215
699.36	17.176
699.67	17.046
699.99	16.897
700.31	16.778
700.63	16.555
700.95	16.554
701.27	16.384
701.58	16.228
701.90	16.054
702.22	16.094
702.54	16.119
702.86	16.098
703.17	16.128
703.49	16.150
703.81	16.135
704.13	16.074
704.45	15.980
704.76	15.930
705.08	15.926
705.40	15.963
705.72	15.971
706.03	15.945
706.35	15.966
706.67	15.968
706.99	15.907
707.30	15.904
707.62	16.024
707.94	16.020
708.26	16.049
708.57	16.054
708.89	16.029
709.21	16.043
709.53	16.018
709.84	16.037
710.16	15.978
710.48	16.060
710.79	16.018
711.11	15.983
711.43	16.074
711.74	16.068
712.06	16.090
712.38	16.201
712.69	16.242
713.01	16.227
713.33	16.154
713.64	16.292
713.96	16.351
714.28	16.480
714.59	16.565
714.91	16.610
715.23	16.792
715.54	16.846
715.86	16.757
716.17	16.789
716.49	16.785
716.81	16.831
717.12	16.731
717.44	16.605
717.76	16.437
718.07	16.325
718.39	16.112
718.70	15.860
719.02	15.797
719.33	15.751
719.65	15.671
719.97	15.645
720.28	15.644
720.60	15.727
720.91	15.735
721.23	15.688
721.54	15.662
721.86	15.836
722.17	15.930
722.49	15.895
722.81	16.004
723.12	16.016
723.44	16.134
723.75	16.246
724.07	16.071
724.38	16.063
724.70	16.136
725.01	16.156
725.33	16.021
725.64	16.002
725.96	15.931
726.27	15.954
726.59	15.913
726.90	15.820
727.22	15.751
727.53	15.904
727.84	15.851
728.16	15.837
728.47	15.891
728.79	15.874
729.10	15.768
729.42	15.833
729.73	15.684
730.05	15.571
730.36	15.550
730.67	15.424
730.99	15.219
731.30	15.119
731.62	15.159
731.93	15.046
732.24	14.783
732.56	14.721
732.87	14.556
733.19	14.553
733.50	14.618
733.81	14.495
734.13	14.255
734.44	14.252
734.76	14.218
735.07	13.977
735.38	13.877
735.70	13.899
736.01	13.834
736.32	13.842
736.64	13.653
736.95	13.372
737.26	13.413
737.58	13.599
737.89	13.551
738.20	13.460
738.52	13.390
738.83	13.368
739.14	13.428
739.45	13.440
739.77	13.259
740.08	13.309
740.39	13.147
740.71	12.916
741.02	12.689
741.33	12.670
741.64	12.480
741.96	12.359
742.27	12.170
742.58	12.148
742.90	11.909
743.21	11.889
743.52	11.881
743.83	11.961
744.14	11.828
744.46	11.738
744.77	11.637
745.08	11.904
745.39	12.086
745.71	12.227
746.02	12.070
746.33	12.127
746.64	12.248
746.95	12.124
747.27	12.128
747.58	12.212
747.89	12.373
748.20	12.298
748.51	12.051
748.82	11.954
749.14	11.761
749.45	11.838
749.76	11.948
750.07	11.913
750.38	11.833
750.69	11.874
751.01	11.875
751.32	11.672
751.63	11.518
751.94	11.761
752.25	11.692
752.56	11.658
752.87	11.603
753.18	11.443
753.49	11.345
753.81	11.411
754.12	11.387
754.43	11.513
754.74	11.584
755.05	11.865
755.36	11.948
755.67	12.212
755.98	12.518
756.29	12.741
756.60	13.004
756.91	13.524
757.22	13.876
757.53	14.075
757.84	14.228
758.15	14.672
758.46	14.854
758.77	14.991
759.09	15.096
759.40	15.263
759.71	15.441
760.02	15.577
760.33	15.496
760.64	15.465
760.95	15.621
761.26	15.607
761.57	15.500
761.88	15.497
762.18	15.449
762.49	15.436
762.80	15.278
763.11	15.168
763.42	15.016
763.73	14.785
764.04	14.624
764.35	14.393
764.66	14.198
764.97	13.972
765.28	13.610
765.59	13.275
765.90	12.884
766.21	12.578
766.52	12.104
766.83	11.949
767.14	11.665
767.44	11.312
767.75	10.968
768.06	10.742
768.37	10.423
768.68	10.258
768.99	10.191
769.30	10.118
769.61	10.021
769.91	10.014
770.22	9.761
770.53	9.730
770.84	9.612
771.15	9.469
771.46	9.620
771.77	9.784
772.07	9.701
772.38	9.551
772.69	9.258
773.00	9.104
773.31	9.084
773.61	8.821
773.92	8.915
774.23	8.814
774.54	8.925
774.85	8.734
775.15	8.636
775.46	8.617
775.77	8.537
776.08	8.681
776.39	8.665
776.69	8.637
777.00	8.859
777.31	8.543
777.62	8.610
777.92	8.864
778.23	8.862
778.54	8.837
778.85	9.105
779.15	9.234
779.46	9.299
779.77	9.399
780.07	9.421
780.38	9.505
780.69	9.502
781.00	9.728
781.30	9.397
781.61	9.237
781.92	9.188
782.22	8.986
782.53	8.889
782.84	8.727
783.14	8.574
783.45	8.447
783.76	8.406
784.06	8.720
784.37	8.659
784.68	8.915
784.98	9.023
785.29	9.365
785.60	9.650
785.90	10.031
786.21	10.263
786.51	10.750
786.82	10.767
787.13	10.809
787.43	11.043
787.74	11.279
788.04	11.245
788.35	11.621
788.66	11.364
788.96	11.321
789.27	11.092
789.57	11.072
789.88	10.686
790.19	10.816
790.49	10.881
790.80	10.655
791.10	10.587
791.41	10.578
791.71	10.533
792.02	10.538
792.32	10.416
792.63	10.396
792.93	10.486
793.24	10.759
793.54	11.046
793.85	10.892
794.15	10.958
794.46	10.932
794.76	11.008
795.07	10.909
795.37	11.154
795.68	11.428
795.98	11.543
796.29	11.627
796.59	11.466
796.90	11.391
797.20	11.475
797.51	11.340
797.81	11.494
798.12	11.282
798.42	11.298
798.72	11.146
799.03	11.022
799.33	11.235
799.64	11.239
799.94	11.664
800.25	11.697
800.55	11.947
800.85	11.929
801.16	11.846
801.46	11.820
801.77	11.827
802.07	12.106
802.37	12.034
802.68	12.064
802.98	12.222
803.28	11.900
803.59	11.803
803.89	11.483
804.20	11.607
804.50	11.566
804.80	11.839
805.11	11.548
805.41	11.363
805.71	11.317
806.02	11.099
806.32	10.770
806.62	10.623
806.93	10.582
807.23	11.220
807.53	11.279
807.83	11.398
808.14	11.506
808.44	11.935
808.74	12.194
809.05	12.388
809.35	12.475
809.65	12.486
809.95	12.639
810.26	12.753
810.56	12.287
810.86	12.246
811.16	12.118
811.47	12.130
811.77	12.003
812.07	11.568
812.37	11.608
812.68	11.985
812.98	12.318
813.28	12.511
813.58	13.107
813.88	13.239
814.19	14.470
814.49	14.888
814.79	15.083
815.09	15.283
815.39	15.254
815.70	15.525
816.00	15.264
816.30	15.196
816.60	15.232
816.90	14.982
817.20	15.187
817.50	14.751
817.81	14.803
818.11	15.080
818.41	15.397
818.71	15.687
819.01	15.756
819.31	15.856
819.61	15.862
819.92	15.993
820.22	16.103
820.52	16.000
820.82	15.918
821.12	15.912
821.42	15.845
821.72	15.809
822.02	15.829
822.32	15.848
822.62	15.869
822.92	15.861
823.22	15.698
823.52	15.639
823.83	15.686
824.13	15.762
824.43	15.699
824.73	15.749
825.03	15.657
825.33	15.660
825.63	15.487
825.93	15.369
826.23	15.346
826.53	15.508
826.83	15.367
827.13	15.358
827.43	15.271
827.73	15.302
828.03	15.269
828.33	15.352
828.63	15.107
828.93	15.097
829.23	15.052
829.53	15.170
829.83	15.279
830.13	15.323
830.42	15.288
830.72	15.125
831.02	15.191
831.32	14.861
831.62	14.719
831.92	14.955
832.22	15.027
832.52	15.105
832.82	14.971
833.12	14.733
833.42	14.784
833.72	14.837
834.01	14.810
834.31	14.620
834.61	14.853
834.91	14.734
835.21	14.342
835.51	13.979
835.81	13.414
836.11	13.411
836.40	13.108
836.70	12.524
837.00	11.901
837.30	12.313
837.60	12.608
837.90	12.376
838.19	12.362
838.49	12.799
838.79	13.009
839.09	13.435
839.39	13.259
839.68	13.259
839.98	13.734
840.28	14.215
840.58	13.360
840.88	12.840
841.17	12.416
841.47	12.590
841.77	11.675
842.07	11.799
842.36	12.089
842.66	11.689
842.96	11.591
843.26	11.595
843.55	10.564
843.85	10.629
844.15	10.451
844.45	10.170
844.74	9.850
845.04	10.704
845.34	9.944
845.63	9.293
845.93	9.456
846.23	9.977
846.53	8.689
846.82	8.212
847.12	7.783
847.42	8.323
847.71	9.038
848.01	8.613
848.31	8.614
848.60	10.368
848.90	10.941
849.19	10.540
849.49	9.244
849.79	9.202
850.08	11.405
850.38	12.262
850.68	11.675
850.97	11.595
851.27	11.844
851.56	11.036
851.86	9.216
852.16	9.689
852.45	9.636
852.75	10.095
853.04	8.880
853.34	8.213
853.64	7.717
853.93	7.303
854.23	7.338
854.52	6.769
854.82	6.150
855.11	7.974
855.41	5.703
855.70	6.005
856.00	6.458
856.30	7.405
856.59	6.185
856.89	6.039
857.18	7.294
857.48	7.640
857.77	8.699
858.07	11.246
858.36	10.157
858.66	12.447
858.95	12.846
859.25	13.663
859.54	15.283
859.84	16.398
860.13	16.399
860.42	17.137
860.72	17.531
861.01	16.743
861.31	15.185
861.60	15.521
861.90	15.027
862.19	14.536
862.49	14.581
862.78	14.149
863.07	13.356
863.37	14.558
863.66	14.621
863.96	13.190
864.25	14.271
864.54	14.063
864.84	13.935
865.13	13.837
865.43	13.382
865.72	15.221
866.01	5.896
866.31	13.297
866.60	15.389
866.89	3.770
>>>>>End Spectral Data<<<<<
