OOIBase32 Version 2.0.0.6 Data File
++++++++++++++++++++++++++++++++++++
Date: 01-22-2012, 21:06:24
User: Valued Ocean Optics Customer
Spectrometer Serial Number: USB2E2917
Spectrometer Channel: Master
Integration Time (msec): 4
Spectra Averaged: 10
Boxcar Smoothing: 5
Correct for Electrical Dark: Enabled
Time Normalized: Disabled
Dual-beam Reference: Disabled
Reference Channel: Master
Temperature: Not acquired
Spectrometer Type: S2000
ADC Type: USB2000
Number of Pixels in File: 2048
Graph Title: 
>>>>>Begin Spectral Data<<<<<
180.30	0.000
180.67	0.000
181.03	75.950
181.40	89.566
181.77	-87.280
182.14	-139.618
182.51	726.045
182.88	197.968
183.25	244.460
183.62	512.399
183.99	86.766
184.36	20.605
184.73	121.829
185.10	-797.275
185.46	151.445
185.83	114.438
186.20	88.670
186.57	376.757
186.94	107.507
187.31	70.546
187.68	-312.517
188.05	222.765
188.42	250.654
188.78	0.859
189.15	67.853
189.52	75.693
189.89	54.992
190.26	50.205
190.63	42.788
191.00	51.012
191.37	56.423
191.73	33.727
192.10	-14.726
192.47	-25.307
192.84	-154.373
193.21	-340.589
193.58	-402.643
193.94	-283.568
194.31	-115.472
194.68	-36.948
195.05	-32.180
195.42	-55.426
195.79	-35.370
196.15	12.851
196.52	20.085
196.89	8.611
197.26	6.643
197.63	15.493
198.00	11.864
198.36	-16.842
198.73	-167.904
199.10	-90.235
199.47	-11.160
199.84	3.172
200.20	-67.729
200.57	-46.734
200.94	-14.451
201.31	8.918
201.68	15.010
202.04	23.083
202.41	18.297
202.78	26.129
203.15	26.495
203.51	18.589
203.88	17.565
204.25	18.899
204.62	17.529
204.98	18.572
205.35	-11.517
205.72	-40.138
206.09	-117.195
206.46	-88.990
206.82	-140.734
207.19	-145.067
207.56	-175.341
207.92	-213.309
208.29	-124.692
208.66	-76.748
209.03	-88.032
209.39	-32.861
209.76	-28.870
210.13	-2.613
210.50	-14.033
210.86	-45.022
211.23	-99.638
211.60	-109.084
211.96	-96.442
212.33	-205.869
212.70	6881.739
213.07	623.904
213.43	589.262
213.80	1813.333
214.17	336.046
214.53	1484.403
214.90	-93.761
215.27	-22.773
215.63	-12.708
216.00	8.437
216.37	20.076
216.74	1.753
217.10	9.749
217.47	8.019
217.84	11.040
218.20	9.011
218.57	14.737
218.94	1.435
219.30	1.931
219.67	7.800
220.04	1.128
220.40	-6.468
220.77	-0.848
221.13	4.058
221.50	1.562
221.87	5.167
222.23	8.486
222.60	6.331
222.97	1.197
223.33	-8.535
223.70	-16.700
224.07	-16.531
224.43	-9.671
224.80	-3.617
225.16	-6.939
225.53	-3.556
225.90	-3.271
226.26	-2.570
226.63	-3.122
226.99	-0.963
227.36	2.912
227.73	5.018
228.09	4.738
228.46	4.901
228.82	2.380
229.19	2.742
229.56	1.096
229.92	1.003
230.29	0.768
230.65	0.754
231.02	-1.389
231.38	-1.738
231.75	-2.972
232.12	-1.617
232.48	-4.467
232.85	-2.287
233.21	-2.592
233.58	0.116
233.94	1.470
234.31	2.840
234.68	1.640
235.04	3.867
235.41	3.003
235.77	3.432
236.14	4.111
236.50	7.168
236.87	6.805
237.23	6.703
237.60	4.163
237.96	2.598
238.33	1.405
238.69	2.156
239.06	1.445
239.42	1.892
239.79	1.750
240.15	1.343
240.52	0.824
240.88	0.593
241.25	0.328
241.61	0.369
241.98	0.296
242.34	0.836
242.71	1.157
243.07	1.807
243.44	1.731
243.80	1.745
244.17	1.736
244.53	1.727
244.90	1.969
245.26	2.311
245.63	2.750
245.99	3.080
246.36	3.026
246.72	2.638
247.09	2.349
247.45	2.465
247.81	2.377
248.18	2.613
248.54	2.711
248.91	2.444
249.27	1.913
249.64	1.948
250.00	2.013
250.36	2.203
250.73	2.489
251.09	2.401
251.46	1.543
251.82	1.914
252.19	1.388
252.55	1.292
252.91	1.538
253.28	2.571
253.64	2.508
254.01	2.073
254.37	2.225
254.73	2.292
255.10	2.281
255.46	3.064
255.83	3.105
256.19	3.369
256.55	3.363
256.92	3.303
257.28	2.982
257.65	2.880
258.01	2.963
258.37	2.756
258.74	2.803
259.10	3.143
259.46	2.944
259.83	2.898
260.19	2.885
260.55	2.762
260.92	2.732
261.28	2.723
261.64	2.775
262.01	2.509
262.37	2.423
262.73	2.176
263.10	1.589
263.46	2.093
263.82	2.077
264.19	1.917
264.55	2.041
264.91	1.981
265.28	2.204
265.64	2.235
266.00	2.319
266.37	2.648
266.73	3.088
267.09	3.009
267.46	2.254
267.82	2.230
268.18	2.511
268.54	2.536
268.91	2.676
269.27	2.517
269.63	2.300
270.00	2.539
270.36	2.325
270.72	1.979
271.08	2.013
271.45	2.497
271.81	2.686
272.17	2.680
272.53	2.782
272.90	2.760
273.26	2.495
273.62	2.386
273.98	2.354
274.35	2.508
274.71	2.355
275.07	2.654
275.43	2.371
275.80	2.298
276.16	2.292
276.52	1.952
276.88	1.801
277.25	1.780
277.61	2.243
277.97	2.214
278.33	2.130
278.69	2.304
279.06	1.957
279.42	2.359
279.78	2.251
280.14	2.175
280.50	2.411
280.87	2.563
281.23	2.689
281.59	2.612
281.95	2.614
282.31	2.530
282.68	2.669
283.04	2.741
283.40	2.396
283.76	2.607
284.12	2.634
284.48	2.650
284.85	2.613
285.21	2.833
285.57	2.950
285.93	2.965
286.29	3.000
286.65	2.995
287.02	3.146
287.38	3.328
287.74	3.307
288.10	3.194
288.46	3.221
288.82	3.115
289.18	2.767
289.54	2.397
289.91	2.363
290.27	2.493
290.63	2.632
290.99	2.544
291.35	2.507
291.71	2.485
292.07	2.698
292.43	2.739
292.79	3.127
293.16	3.854
293.52	4.179
293.88	4.618
294.24	4.815
294.60	5.060
294.96	5.191
295.32	5.414
295.68	5.407
296.04	5.590
296.40	5.745
296.76	5.838
297.12	5.819
297.49	6.138
297.85	6.371
298.21	6.699
298.57	6.734
298.93	7.158
299.29	7.515
299.65	8.052
300.01	8.208
300.37	8.580
300.73	8.774
301.09	9.056
301.45	9.136
301.81	9.230
302.17	9.192
302.53	9.223
302.89	9.313
303.25	9.375
303.61	9.464
303.97	9.918
304.33	10.158
304.69	10.528
305.05	10.666
305.41	10.879
305.77	10.874
306.13	11.220
306.49	11.498
306.85	11.692
307.21	11.804
307.57	11.967
307.93	11.846
308.29	11.876
308.65	11.730
309.01	11.723
309.37	11.839
309.73	11.908
310.09	11.810
310.45	11.856
310.81	11.802
311.17	11.719
311.53	11.675
311.89	11.775
312.25	11.711
312.61	11.856
312.96	12.000
313.32	11.980
313.68	11.920
314.04	12.045
314.40	12.135
314.76	12.195
315.12	12.358
315.48	12.428
315.84	12.194
316.20	12.130
316.56	12.314
316.92	12.116
317.27	12.281
317.63	12.314
317.99	12.242
318.35	12.199
318.71	12.210
319.07	12.267
319.43	12.047
319.79	12.232
320.15	12.408
320.50	12.256
320.86	12.313
321.22	12.191
321.58	12.109
321.94	12.103
322.30	12.267
322.66	12.332
323.01	12.251
323.37	12.457
323.73	12.410
324.09	12.504
324.45	12.456
324.81	12.631
325.17	12.649
325.52	12.863
325.88	12.886
326.24	12.728
326.60	12.636
326.96	12.677
327.31	12.556
327.67	12.604
328.03	12.480
328.39	12.522
328.75	12.383
329.11	12.353
329.46	12.344
329.82	12.390
330.18	12.499
330.54	12.511
330.90	12.417
331.25	12.499
331.61	12.363
331.97	12.307
332.33	12.154
332.68	12.204
333.04	12.142
333.40	12.059
333.76	12.040
334.11	11.915
334.47	12.050
334.83	12.177
335.19	12.060
335.54	12.108
335.90	12.120
336.26	12.194
336.62	12.258
336.97	12.191
337.33	12.157
337.69	12.082
338.05	12.157
338.40	12.032
338.76	11.996
339.12	12.033
339.48	11.920
339.83	11.878
340.19	11.953
340.55	11.746
340.90	11.817
341.26	11.800
341.62	11.691
341.97	11.583
342.33	11.554
342.69	11.454
343.04	11.355
343.40	11.493
343.76	11.423
344.12	11.373
344.47	11.356
344.83	11.279
345.19	11.267
345.54	11.329
345.90	11.273
346.26	11.228
346.61	11.132
346.97	11.210
347.32	11.130
347.68	11.115
348.04	11.070
348.39	11.094
348.75	11.151
349.11	11.103
349.46	11.142
349.82	11.152
350.18	11.138
350.53	11.245
350.89	11.212
351.24	11.188
351.60	11.156
351.96	11.168
352.31	11.170
352.67	11.106
353.02	11.126
353.38	10.986
353.74	10.979
354.09	10.975
354.45	10.927
354.80	10.817
355.16	10.868
355.52	10.815
355.87	10.675
356.23	10.617
356.58	10.583
356.94	10.533
357.29	10.525
357.65	10.523
358.00	10.411
358.36	10.382
358.72	10.362
359.07	10.218
359.43	10.309
359.78	10.374
360.14	10.404
360.49	10.432
360.85	10.397
361.20	10.409
361.56	10.347
361.91	10.393
362.27	10.385
362.62	10.411
362.98	10.414
363.33	10.357
363.69	10.405
364.04	10.358
364.40	10.316
364.75	10.278
365.11	10.239
365.46	10.231
365.82	10.167
366.17	10.117
366.53	10.106
366.88	10.181
367.24	10.179
367.59	10.117
367.95	10.107
368.30	10.064
368.66	10.048
369.01	10.085
369.37	10.120
369.72	10.158
370.08	10.114
370.43	10.043
370.78	9.968
371.14	9.977
371.49	9.893
371.85	9.832
372.20	9.809
372.56	9.847
372.91	9.798
373.26	9.814
373.62	9.732
373.97	9.796
374.33	9.762
374.68	9.805
375.03	9.750
375.39	9.748
375.74	9.783
376.10	9.833
376.45	9.809
376.80	9.787
377.16	9.739
377.51	9.740
377.87	9.739
378.22	9.791
378.57	9.696
378.93	9.651
379.28	9.634
379.63	9.601
379.99	9.547
380.34	9.513
380.70	9.559
381.05	9.504
381.40	9.506
381.76	9.425
382.11	9.360
382.46	9.364
382.82	9.334
383.17	9.328
383.52	9.336
383.88	9.341
384.23	9.355
384.58	9.264
384.94	9.263
385.29	9.265
385.64	9.269
385.99	9.267
386.35	9.282
386.70	9.276
387.05	9.250
387.41	9.226
387.76	9.167
388.11	9.107
388.47	9.065
388.82	9.082
389.17	9.073
389.52	9.001
389.88	9.012
390.23	8.961
390.58	8.941
390.93	8.914
391.29	8.887
391.64	8.911
391.99	8.890
392.34	8.894
392.70	8.873
393.05	8.845
393.40	8.881
393.75	8.877
394.11	8.868
394.46	8.823
394.81	8.780
395.16	8.779
395.52	8.755
395.87	8.743
396.22	8.739
396.57	8.658
396.92	8.643
397.28	8.616
397.63	8.556
397.98	8.542
398.33	8.560
398.68	8.566
399.04	8.490
399.39	8.433
399.74	8.425
400.09	8.384
400.44	8.378
400.80	8.360
401.15	8.339
401.50	8.346
401.85	8.340
402.20	8.291
402.55	8.269
402.90	8.281
403.26	8.271
403.61	8.230
403.96	8.226
404.31	8.218
404.66	8.172
405.01	8.155
405.36	8.141
405.72	8.094
406.07	8.097
406.42	8.108
406.77	8.073
407.12	8.058
407.47	8.069
407.82	8.048
408.17	8.009
408.53	8.015
408.88	7.990
409.23	7.954
409.58	7.993
409.93	7.992
410.28	7.973
410.63	7.973
410.98	7.944
411.33	7.904
411.68	7.925
412.03	7.886
412.38	7.842
412.73	7.817
413.09	7.787
413.44	7.709
413.79	7.703
414.14	7.666
414.49	7.625
414.84	7.603
415.19	7.584
415.54	7.525
415.89	7.489
416.24	7.482
416.59	7.468
416.94	7.451
417.29	7.422
417.64	7.370
417.99	7.345
418.34	7.338
418.69	7.311
419.04	7.288
419.39	7.291
419.74	7.306
420.09	7.280
420.44	7.252
420.79	7.229
421.14	7.218
421.49	7.234
421.84	7.226
422.19	7.211
422.54	7.223
422.89	7.229
423.24	7.212
423.59	7.197
423.94	7.209
424.29	7.219
424.64	7.254
424.99	7.295
425.34	7.290
425.68	7.301
426.03	7.313
426.38	7.314
426.73	7.308
427.08	7.305
427.43	7.293
427.78	7.273
428.13	7.271
428.48	7.247
428.83	7.213
429.18	7.196
429.53	7.200
429.87	7.194
430.22	7.168
430.57	7.180
430.92	7.168
431.27	7.171
431.62	7.168
431.97	7.160
432.32	7.131
432.67	7.132
433.01	7.161
433.36	7.146
433.71	7.145
434.06	7.175
434.41	7.152
434.76	7.148
435.11	7.157
435.45	7.159
435.80	7.136
436.15	7.145
436.50	7.119
436.85	7.087
437.20	7.077
437.54	7.043
437.89	7.027
438.24	7.010
438.59	7.006
438.94	6.982
439.29	6.975
439.63	6.973
439.98	6.964
440.33	6.964
440.68	6.961
441.03	6.944
441.37	6.938
441.72	6.922
442.07	6.910
442.42	6.889
442.76	6.887
443.11	6.861
443.46	6.861
443.81	6.840
444.16	6.846
444.50	6.838
444.85	6.842
445.20	6.848
445.55	6.828
445.89	6.827
446.24	6.833
446.59	6.823
446.94	6.828
447.28	6.831
447.63	6.826
447.98	6.790
448.32	6.767
448.67	6.749
449.02	6.718
449.37	6.717
449.71	6.706
450.06	6.713
450.41	6.731
450.75	6.727
451.10	6.709
451.45	6.707
451.79	6.727
452.14	6.737
452.49	6.734
452.84	6.737
453.18	6.722
453.53	6.696
453.88	6.663
454.22	6.620
454.57	6.584
454.92	6.562
455.26	6.544
455.61	6.526
455.95	6.498
456.30	6.485
456.65	6.475
456.99	6.468
457.34	6.475
457.69	6.478
458.03	6.479
458.38	6.504
458.73	6.512
459.07	6.521
459.42	6.523
459.76	6.523
460.11	6.536
460.46	6.551
460.80	6.558
461.15	6.551
461.49	6.540
461.84	6.538
462.19	6.523
462.53	6.507
462.88	6.500
463.22	6.493
463.57	6.510
463.91	6.497
464.26	6.495
464.61	6.481
464.95	6.504
465.30	6.521
465.64	6.528
465.99	6.523
466.33	6.523
466.68	6.527
467.02	6.516
467.37	6.501
467.71	6.490
468.06	6.466
468.41	6.457
468.75	6.427
469.10	6.408
469.44	6.404
469.79	6.393
470.13	6.389
470.48	6.374
470.82	6.395
471.17	6.379
471.51	6.367
471.86	6.383
472.20	6.381
472.55	6.376
472.89	6.369
473.23	6.347
473.58	6.321
473.92	6.297
474.27	6.280
474.61	6.236
474.96	6.221
475.30	6.214
475.65	6.189
475.99	6.177
476.34	6.146
476.68	6.134
477.02	6.130
477.37	6.118
477.71	6.100
478.06	6.093
478.40	6.096
478.75	6.111
479.09	6.137
479.43	6.173
479.78	6.206
480.12	6.268
480.47	6.334
480.81	6.386
481.15	6.458
481.50	6.525
481.84	6.617
482.19	6.699
482.53	6.755
482.87	6.766
483.22	6.719
483.56	6.641
483.90	6.556
484.25	6.476
484.59	6.431
484.94	6.364
485.28	6.306
485.62	6.204
485.97	6.102
486.31	6.018
486.65	5.977
487.00	5.990
487.34	6.048
487.68	6.091
488.03	6.118
488.37	6.105
488.71	6.103
489.06	6.077
489.40	6.068
489.74	6.064
490.09	6.058
490.43	6.045
490.77	6.037
491.11	6.026
491.46	6.031
491.80	6.010
492.14	5.982
492.49	5.962
492.83	5.937
493.17	5.920
493.51	5.886
493.86	5.877
494.20	5.855
494.54	5.831
494.88	5.822
495.23	5.803
495.57	5.789
495.91	5.795
496.25	5.790
496.60	5.804
496.94	5.789
497.28	5.772
497.62	5.754
497.97	5.752
498.31	5.768
498.65	5.767
498.99	5.758
499.33	5.775
499.68	5.775
500.02	5.777
500.36	5.771
500.70	5.774
501.04	5.787
501.39	5.791
501.73	5.779
502.07	5.752
502.41	5.749
502.75	5.742
503.09	5.730
503.44	5.717
503.78	5.699
504.12	5.695
504.46	5.683
504.80	5.694
505.14	5.679
505.49	5.698
505.83	5.715
506.17	5.714
506.51	5.721
506.85	5.728
507.19	5.726
507.53	5.733
507.87	5.722
508.22	5.736
508.56	5.728
508.90	5.734
509.24	5.716
509.58	5.727
509.92	5.719
510.26	5.697
510.60	5.680
510.94	5.679
511.28	5.673
511.63	5.690
511.97	5.681
512.31	5.660
512.65	5.650
512.99	5.654
513.33	5.628
513.67	5.615
514.01	5.634
514.35	5.649
514.69	5.663
515.03	5.680
515.37	5.665
515.71	5.679
516.05	5.691
516.39	5.693
516.73	5.681
517.07	5.689
517.41	5.700
517.75	5.697
518.09	5.680
518.43	5.672
518.77	5.651
519.11	5.638
519.45	5.611
519.79	5.605
520.13	5.604
520.47	5.601
520.81	5.586
521.15	5.577
521.49	5.574
521.83	5.582
522.17	5.571
522.51	5.563
522.85	5.597
523.19	5.617
523.53	5.617
523.87	5.637
524.21	5.667
524.55	5.695
524.89	5.728
525.23	5.764
525.57	5.795
525.91	5.824
526.25	5.851
526.58	5.861
526.92	5.878
527.26	5.903
527.60	5.907
527.94	5.904
528.28	5.891
528.62	5.869
528.96	5.850
529.30	5.820
529.64	5.799
529.97	5.781
530.31	5.751
530.65	5.722
530.99	5.685
531.33	5.663
531.67	5.649
532.01	5.639
532.35	5.633
532.68	5.616
533.02	5.610
533.36	5.593
533.70	5.570
534.04	5.559
534.38	5.540
534.71	5.532
535.05	5.502
535.39	5.476
535.73	5.464
536.07	5.451
536.41	5.434
536.74	5.440
537.08	5.448
537.42	5.451
537.76	5.458
538.10	5.466
538.43	5.476
538.77	5.507
539.11	5.525
539.45	5.533
539.79	5.537
540.12	5.551
540.46	5.552
540.80	5.539
541.14	5.553
541.47	5.546
541.81	5.529
542.15	5.513
542.49	5.491
542.82	5.469
543.16	5.442
543.50	5.427
543.84	5.409
544.17	5.370
544.51	5.367
544.85	5.336
545.18	5.314
545.52	5.314
545.86	5.302
546.20	5.305
546.53	5.293
546.87	5.294
547.21	5.274
547.54	5.264
547.88	5.274
548.22	5.263
548.55	5.251
548.89	5.247
549.23	5.233
549.56	5.233
549.90	5.204
550.24	5.194
550.57	5.181
550.91	5.192
551.25	5.171
551.58	5.164
551.92	5.149
552.26	5.142
552.59	5.132
552.93	5.150
553.27	5.127
553.60	5.096
553.94	5.101
554.27	5.108
554.61	5.103
554.95	5.109
555.28	5.094
555.62	5.087
555.95	5.104
556.29	5.118
556.63	5.120
556.96	5.118
557.30	5.146
557.63	5.134
557.97	5.133
558.31	5.115
558.64	5.112
558.98	5.117
559.31	5.124
559.65	5.086
559.98	5.063
560.32	5.030
560.65	5.035
560.99	5.013
561.33	5.017
561.66	5.000
562.00	5.004
562.33	4.994
562.67	4.964
563.00	4.956
563.34	4.980
563.67	4.995
564.01	4.993
564.34	4.996
564.68	5.007
565.01	5.000
565.35	5.022
565.68	5.022
566.02	5.037
566.35	5.070
566.69	5.050
567.02	5.033
567.36	5.046
567.69	5.024
568.03	5.023
568.36	5.023
568.69	5.030
569.03	5.021
569.36	5.025
569.70	4.993
570.03	4.989
570.37	5.013
570.70	5.024
571.04	4.999
571.37	5.005
571.70	4.993
572.04	4.984
572.37	4.975
572.71	4.969
573.04	4.942
573.37	4.972
573.71	4.972
574.04	4.975
574.38	4.957
574.71	4.967
575.04	4.974
575.38	4.975
575.71	4.979
576.05	4.984
576.38	4.982
576.71	4.989
577.05	4.980
577.38	4.948
577.71	4.930
578.05	4.911
578.38	4.879
578.71	4.863
579.05	4.840
579.38	4.824
579.71	4.801
580.05	4.774
580.38	4.753
580.71	4.710
581.05	4.710
581.38	4.686
581.71	4.686
582.05	4.680
582.38	4.657
582.71	4.672
583.04	4.662
583.38	4.647
583.71	4.634
584.04	4.657
584.38	4.660
584.71	4.641
585.04	4.640
585.37	4.631
585.71	4.642
586.04	4.665
586.37	4.641
586.70	4.634
587.04	4.653
587.37	4.659
587.70	4.611
588.03	4.566
588.37	4.549
588.70	4.537
589.03	4.535
589.36	4.512
589.69	4.480
590.03	4.484
590.36	4.476
590.69	4.449
591.02	4.444
591.35	4.431
591.69	4.443
592.02	4.453
592.35	4.480
592.68	4.442
593.01	4.422
593.35	4.423
593.68	4.394
594.01	4.379
594.34	4.376
594.67	4.354
595.00	4.349
595.34	4.330
595.67	4.294
596.00	4.216
596.33	4.217
596.66	4.207
596.99	4.183
597.32	4.160
597.65	4.134
597.99	4.078
598.32	4.033
598.65	4.003
598.98	3.993
599.31	3.997
599.64	4.033
599.97	4.011
600.30	3.980
600.63	3.943
600.96	3.956
601.30	3.962
601.63	3.975
601.96	3.988
602.29	3.995
602.62	3.998
602.95	3.978
603.28	3.947
603.61	3.929
603.94	3.922
604.27	3.924
604.60	3.894
604.93	3.859
605.26	3.821
605.59	3.804
605.92	3.796
606.25	3.782
606.58	3.769
606.91	3.758
607.24	3.748
607.57	3.746
607.90	3.717
608.23	3.706
608.56	3.681
608.89	3.671
609.22	3.608
609.55	3.564
609.88	3.507
610.21	3.493
610.54	3.440
610.87	3.379
611.20	3.315
611.53	3.277
611.86	3.230
612.19	3.237
612.52	3.219
612.85	3.266
613.18	3.245
613.51	3.216
613.84	3.155
614.17	3.184
614.49	3.183
614.82	3.213
615.15	3.233
615.48	3.224
615.81	3.182
616.14	3.171
616.47	3.146
616.80	3.152
617.13	3.151
617.46	3.150
617.78	3.103
618.11	3.105
618.44	3.090
618.77	3.041
619.10	3.012
619.43	3.040
619.76	3.004
620.09	2.967
620.41	2.966
620.74	2.978
621.07	3.004
621.40	3.030
621.73	3.047
622.06	3.044
622.38	3.102
622.71	3.138
623.04	3.116
623.37	3.158
623.70	3.169
624.02	3.185
624.35	3.202
624.68	3.228
625.01	3.221
625.34	3.227
625.66	3.220
625.99	3.210
626.32	3.195
626.65	3.215
626.98	3.206
627.30	3.195
627.63	3.165
627.96	3.132
628.29	3.066
628.61	3.045
628.94	3.007
629.27	2.983
629.60	2.952
629.92	2.962
630.25	2.897
630.58	2.835
630.91	2.848
631.23	2.814
631.56	2.802
631.89	2.792
632.21	2.792
632.54	2.785
632.87	2.795
633.19	2.796
633.52	2.751
633.85	2.759
634.18	2.762
634.50	2.748
634.83	2.736
635.16	2.721
635.48	2.703
635.81	2.663
636.14	2.611
636.46	2.561
636.79	2.543
637.11	2.526
637.44	2.492
637.77	2.467
638.09	2.388
638.42	2.367
638.75	2.347
639.07	2.311
639.40	2.296
639.73	2.286
640.05	2.245
640.38	2.217
640.70	2.172
641.03	2.157
641.36	2.169
641.68	2.184
642.01	2.192
642.33	2.267
642.66	2.288
642.98	2.317
643.31	2.302
643.64	2.371
643.96	2.389
644.29	2.439
644.61	2.434
644.94	2.474
645.26	2.523
645.59	2.542
645.91	2.464
646.24	2.462
646.56	2.449
646.89	2.546
647.22	2.517
647.54	2.505
647.87	2.490
648.19	2.529
648.52	2.510
648.84	2.491
649.17	2.482
649.49	2.496
649.82	2.519
650.14	2.487
650.47	2.467
650.79	2.501
651.11	2.474
651.44	2.474
651.76	2.468
652.09	2.468
652.41	2.468
652.74	2.451
653.06	2.404
653.39	2.400
653.71	2.477
654.04	2.477
654.36	2.463
654.68	2.486
655.01	2.522
655.33	2.554
655.66	2.584
655.98	2.623
656.30	2.675
656.63	2.727
656.95	2.710
657.28	2.676
657.60	2.710
657.92	2.654
658.25	2.665
658.57	2.601
658.90	2.543
659.22	2.508
659.54	2.375
659.87	2.272
660.19	2.213
660.51	2.196
660.84	2.137
661.16	2.037
661.48	2.089
661.81	2.033
662.13	2.029
662.45	2.017
662.78	1.921
663.10	1.964
663.42	1.943
663.75	1.934
664.07	1.921
664.39	1.913
664.72	1.870
665.04	1.842
665.36	1.815
665.69	1.860
666.01	1.817
666.33	1.889
666.65	1.901
666.98	1.916
667.30	1.967
667.62	1.966
667.94	1.945
668.27	2.006
668.59	1.959
668.91	1.993
669.23	1.929
669.56	1.947
669.88	1.917
670.20	1.825
670.52	1.814
670.85	1.774
671.17	1.723
671.49	1.756
671.81	1.711
672.13	1.698
672.46	1.602
672.78	1.585
673.10	1.585
673.42	1.588
673.74	1.672
674.07	1.749
674.39	1.741
674.71	1.741
675.03	1.767
675.35	1.809
675.67	1.857
676.00	1.974
676.32	2.033
676.64	2.089
676.96	2.123
677.28	2.203
677.60	2.170
677.92	2.205
678.25	2.259
678.57	2.291
678.89	2.285
679.21	2.304
679.53	2.259
679.85	2.245
680.17	2.260
680.49	2.229
680.81	2.140
681.13	2.143
681.46	2.091
681.78	2.071
682.10	2.065
682.42	2.040
682.74	1.995
683.06	2.021
683.38	2.088
683.70	2.106
684.02	2.153
684.34	2.207
684.66	2.294
684.98	2.353
685.30	2.401
685.62	2.428
685.94	2.465
686.26	2.496
686.58	2.537
686.90	2.450
687.22	2.461
687.54	2.505
687.86	2.496
688.18	2.463
688.50	2.460
688.82	2.429
689.14	2.361
689.46	2.377
689.78	2.352
690.10	2.277
690.42	2.264
690.74	2.182
691.06	2.107
691.38	2.070
691.70	1.982
692.02	1.940
692.34	1.906
692.66	1.897
692.98	1.872
693.30	1.962
693.62	2.062
693.94	2.152
694.26	2.166
694.57	2.229
694.89	2.279
695.21	2.391
695.53	2.458
695.85	2.534
696.17	2.616
696.49	2.647
696.81	2.669
697.13	2.694
697.44	2.742
697.76	2.819
698.08	2.785
698.40	2.727
698.72	2.589
699.04	2.494
699.36	2.425
699.67	2.229
699.99	2.101
700.31	1.926
700.63	1.749
700.95	1.623
701.27	1.386
701.58	1.275
701.90	1.285
702.22	1.294
702.54	1.333
702.86	1.284
703.17	1.337
703.49	1.348
703.81	1.393
704.13	1.373
704.45	1.240
704.76	1.262
705.08	1.314
705.40	1.231
705.72	1.254
706.03	1.289
706.35	1.363
706.67	1.427
706.99	1.351
707.30	1.338
707.62	1.434
707.94	1.559
708.26	1.542
708.57	1.460
708.89	1.588
709.21	1.638
709.53	1.567
709.84	1.582
710.16	1.544
710.48	1.652
710.79	1.651
711.11	1.545
711.43	1.540
711.74	1.660
712.06	1.817
712.38	1.798
712.69	1.820
713.01	1.903
713.33	1.917
713.64	2.073
713.96	2.174
714.28	2.345
714.59	2.547
714.91	2.727
715.23	2.854
715.54	2.821
715.86	2.853
716.17	2.958
716.49	2.971
716.81	2.923
717.12	2.850
717.44	2.784
717.76	2.641
718.07	2.615
718.39	2.309
718.70	2.129
719.02	2.062
719.33	2.063
719.65	1.880
719.97	1.850
720.28	1.872
720.60	1.868
720.91	1.923
721.23	1.919
721.54	1.846
721.86	2.081
722.17	2.262
722.49	2.349
722.81	2.426
723.12	2.507
723.44	2.610
723.75	2.670
724.07	2.617
724.38	2.635
724.70	2.631
725.01	2.617
725.33	2.591
725.64	2.500
725.96	2.505
726.27	2.507
726.59	2.638
726.90	2.583
727.22	2.677
727.53	2.798
727.84	2.739
728.16	2.767
728.47	2.859
728.79	2.769
729.10	2.714
729.42	2.633
729.73	2.534
730.05	2.367
730.36	2.273
730.67	2.151
730.99	1.960
731.30	1.868
731.62	1.921
731.93	1.825
732.24	1.667
732.56	1.639
732.87	1.614
733.19	1.598
733.50	1.656
733.81	1.563
734.13	1.427
734.44	1.517
734.76	1.496
735.07	1.189
735.38	1.027
735.70	0.956
736.01	0.855
736.32	0.861
736.64	0.724
736.95	0.528
737.26	0.663
737.58	0.654
737.89	0.495
738.20	0.432
738.52	0.439
738.83	0.407
739.14	0.493
739.45	0.439
739.77	0.242
740.08	0.243
740.39	0.105
740.71	-0.017
741.02	-0.201
741.33	-0.313
741.64	-0.531
741.96	-0.424
742.27	-0.467
742.58	-0.488
742.90	-0.566
743.21	-0.560
743.52	-0.638
743.83	-0.576
744.14	-0.883
744.46	-0.926
744.77	-0.897
745.08	-0.718
745.39	-0.829
745.71	-0.759
746.02	-0.749
746.33	-0.673
746.64	-0.503
746.95	-0.428
747.27	-0.571
747.58	-0.323
747.89	-0.093
748.20	-0.129
748.51	-0.148
748.82	-0.156
749.14	-0.393
749.45	-0.402
749.76	-0.460
750.07	-0.407
750.38	-0.486
750.69	-0.385
751.01	-0.417
751.32	-0.562
751.63	-0.627
751.94	-0.534
752.25	-0.511
752.56	-0.324
752.87	-0.234
753.18	-0.243
753.49	-0.472
753.81	-0.351
754.12	-0.254
754.43	-0.141
754.74	-0.078
755.05	0.256
755.36	0.277
755.67	0.546
755.98	0.828
756.29	0.946
756.60	1.345
756.91	1.713
757.22	2.084
757.53	2.315
757.84	2.562
758.15	2.969
758.46	3.326
758.77	3.608
759.09	3.909
759.40	4.101
759.71	4.246
760.02	4.341
760.33	4.382
760.64	4.277
760.95	4.459
761.26	4.484
761.57	4.393
761.88	4.243
762.18	4.131
762.49	3.975
762.80	3.898
763.11	3.799
763.42	3.547
763.73	3.313
764.04	3.120
764.35	2.857
764.66	2.642
764.97	2.395
765.28	2.072
765.59	1.822
765.90	1.417
766.21	0.940
766.52	0.418
766.83	0.213
767.14	-0.082
767.44	-0.383
767.75	-0.805
768.06	-1.161
768.37	-1.406
768.68	-1.465
768.99	-1.645
769.30	-1.728
769.61	-1.902
769.91	-1.788
770.22	-2.059
770.53	-1.929
770.84	-1.914
771.15	-1.828
771.46	-1.767
771.77	-1.779
772.07	-1.984
772.38	-1.997
772.69	-2.112
773.00	-2.256
773.31	-2.191
773.61	-2.029
773.92	-1.970
774.23	-1.819
774.54	-2.121
774.85	-2.027
775.15	-2.004
775.46	-1.994
775.77	-1.984
776.08	-1.879
776.39	-1.680
776.69	-1.746
777.00	-1.798
777.31	-1.721
777.62	-1.881
777.92	-1.252
778.23	-1.404
778.54	-1.563
778.85	-1.491
779.15	-1.490
779.46	-1.478
779.77	-1.437
780.07	-1.364
780.38	-1.216
780.69	-1.511
781.00	-1.514
781.30	-1.855
781.61	-1.801
781.92	-1.631
782.22	-1.611
782.53	-1.585
782.84	-1.660
783.14	-1.796
783.45	-1.686
783.76	-1.804
784.06	-1.619
784.37	-1.404
784.68	-1.468
784.98	-1.383
785.29	-0.880
785.60	-0.787
785.90	-0.538
786.21	-0.235
786.51	0.152
786.82	-0.017
787.13	0.266
787.43	0.288
787.74	0.527
788.04	0.845
788.35	0.881
788.66	0.509
788.96	0.629
789.27	0.454
789.57	0.500
789.88	0.332
790.19	0.571
790.49	0.711
790.80	0.647
791.10	0.528
791.41	0.182
791.71	0.054
792.02	0.197
792.32	0.287
792.63	0.321
792.93	0.227
793.24	0.173
793.54	0.321
793.85	0.135
794.15	0.379
794.46	0.625
794.76	0.863
795.07	1.093
795.37	1.211
795.68	1.277
795.98	1.329
796.29	1.362
796.59	1.395
796.90	1.209
797.20	1.401
797.51	1.447
797.81	1.256
798.12	1.279
798.42	1.583
798.72	1.418
799.03	1.539
799.33	1.783
799.64	1.999
799.94	2.441
800.25	2.381
800.55	2.368
800.85	2.116
801.16	1.988
801.46	1.980
801.77	1.686
802.07	1.971
802.37	1.772
802.68	1.867
802.98	1.995
803.28	1.661
803.59	2.003
803.89	1.876
804.20	2.322
804.50	2.495
804.80	2.510
805.11	2.110
805.41	1.745
805.71	1.683
806.02	1.327
806.32	1.075
806.62	1.232
806.93	1.173
807.23	1.467
807.53	1.568
807.83	1.424
808.14	1.416
808.44	1.842
808.74	2.120
809.05	2.311
809.35	2.343
809.65	2.587
809.95	2.664
810.26	2.712
810.56	2.814
810.86	2.733
811.16	2.988
811.47	3.389
811.77	3.702
812.07	3.912
812.37	3.956
812.68	4.841
812.98	4.816
813.28	4.968
813.58	5.480
813.88	5.242
814.19	6.032
814.49	6.432
814.79	6.461
815.09	6.457
815.39	6.217
815.70	6.534
816.00	6.079
816.30	6.305
816.60	6.184
816.90	5.878
817.20	6.178
817.50	5.543
817.81	5.305
818.11	5.370
818.41	5.450
818.71	5.697
819.01	5.824
819.31	5.979
819.61	6.121
819.92	6.242
820.22	6.433
820.52	6.480
820.82	6.563
821.12	6.620
821.42	6.622
821.72	6.654
822.02	6.723
822.32	6.682
822.62	6.718
822.92	6.656
823.22	6.614
823.52	6.564
823.83	6.514
824.13	6.531
824.43	6.561
824.73	6.670
825.03	6.725
825.33	6.709
825.63	6.642
825.93	6.528
826.23	6.491
826.53	6.579
826.83	6.521
827.13	6.437
827.43	6.338
827.73	6.315
828.03	6.215
828.33	6.299
828.63	6.116
828.93	6.441
829.23	6.542
829.53	6.486
829.83	6.238
830.13	6.112
830.42	6.224
830.72	6.087
831.02	5.937
831.32	5.707
831.62	5.256
831.92	5.401
832.22	5.260
832.52	5.102
832.82	5.314
833.12	5.420
833.42	5.459
833.72	5.443
834.01	5.367
834.31	5.193
834.61	5.375
834.91	5.416
835.21	5.168
835.51	4.886
835.81	4.665
836.11	4.501
836.40	4.547
836.70	4.179
837.00	3.787
837.30	4.521
837.60	5.045
837.90	5.122
838.19	5.377
838.49	5.328
838.79	5.633
839.09	5.927
839.39	5.566
839.68	4.876
839.98	4.984
840.28	5.004
840.58	4.200
840.88	3.706
841.17	2.889
841.47	2.987
841.77	2.563
842.07	1.972
842.36	2.206
842.66	2.246
842.96	2.225
843.26	2.173
843.55	1.306
843.85	0.658
844.15	-0.195
844.45	-0.127
844.74	-0.118
845.04	0.521
845.34	0.751
845.63	0.552
845.93	0.965
846.23	2.036
846.53	1.391
846.82	1.592
847.12	2.351
847.42	3.148
847.71	3.961
848.01	3.439
848.31	4.423
848.60	5.227
848.90	5.614
849.19	5.499
849.49	3.570
849.79	2.849
850.08	4.576
850.38	4.031
850.68	4.069
850.97	3.411
851.27	2.203
851.56	0.879
851.86	-0.751
852.16	-1.583
852.45	-1.087
852.75	0.450
853.04	0.363
853.34	0.519
853.64	1.099
853.93	1.980
854.23	2.689
854.52	4.273
854.82	3.460
855.11	4.863
855.41	3.618
855.70	1.705
856.00	1.312
856.30	2.979
856.59	1.368
856.89	1.071
857.18	0.959
857.48	0.323
857.77	-0.352
858.07	1.680
858.36	1.015
858.66	2.820
858.95	3.976
859.25	4.570
859.54	4.138
859.84	5.225
860.13	4.796
860.42	4.961
860.72	4.878
861.01	3.630
861.31	3.375
861.60	4.583
861.90	4.320
862.19	2.979
862.49	3.899
862.78	5.271
863.07	4.122
863.37	5.418
863.66	3.845
863.96	3.971
864.25	5.438
864.54	5.495
864.84	4.948
865.13	4.493
865.43	5.552
865.72	8.754
866.01	5.694
866.31	10.621
866.60	-4.079
866.89	3.865
>>>>>End Spectral Data<<<<<
