OOIBase32 Version 2.0.0.6 Data File
++++++++++++++++++++++++++++++++++++
Date: 01-18-2012, 22:33:26
User: Valued Ocean Optics Customer
Spectrometer Serial Number: USB2E2917
Spectrometer Channel: Master
Integration Time (msec): 5
Spectra Averaged: 10
Boxcar Smoothing: 5
Correct for Electrical Dark: Enabled
Time Normalized: Disabled
Dual-beam Reference: Disabled
Reference Channel: Master
Temperature: Not acquired
Spectrometer Type: S2000
ADC Type: USB2000
Number of Pixels in File: 2048
Graph Title: 
>>>>>Begin Spectral Data<<<<<
180.30	0.000
180.67	0.000
181.03	-137.204
181.40	-2527.850
181.77	-359.330
182.14	246.693
182.51	-95.935
182.88	224.366
183.25	-10.299
183.62	150.154
183.99	-112.271
184.36	-149.073
184.73	146.726
185.10	-209.202
185.46	120.854
185.83	60.849
186.20	273.850
186.57	-691.314
186.94	47.140
187.31	115.371
187.68	147.271
188.05	91.729
188.42	47.648
188.78	28.626
189.15	13.705
189.52	-21.564
189.89	-37.692
190.26	-32.030
190.63	-1.545
191.00	-9.877
191.37	-11.521
191.73	-17.813
192.10	-16.956
192.47	-23.005
192.84	-61.351
193.21	-55.856
193.58	-8.166
193.94	-30.579
194.31	-20.039
194.68	-23.665
195.05	-10.589
195.42	-27.751
195.79	-62.341
196.15	-62.749
196.52	-58.275
196.89	-55.982
197.26	-62.301
197.63	-208.790
198.00	-42.761
198.36	-62.010
198.73	-47.100
199.10	-35.620
199.47	-17.308
199.84	-8.016
200.20	-9.616
200.57	-9.144
200.94	-2.862
201.31	2.214
201.68	19.389
202.04	3.773
202.41	3.916
202.78	4.092
203.15	0.196
203.51	4.058
203.88	3.249
204.25	-2.873
204.62	1.932
204.98	17.022
205.35	24.626
205.72	22.174
206.09	31.974
206.46	40.937
206.82	52.149
207.19	59.202
207.56	40.377
207.92	36.931
208.29	43.060
208.66	43.399
209.03	43.871
209.39	36.733
209.76	36.639
210.13	35.727
210.50	32.987
210.86	19.037
211.23	12.680
211.60	14.480
211.96	16.248
212.33	2.880
212.70	-0.931
213.07	-6.038
213.43	1.673
213.80	-2.011
214.17	-15.908
214.53	-14.103
214.90	-4.601
215.27	-0.602
215.63	10.877
216.00	-7.537
216.37	-1.638
216.74	1.352
217.10	-21.541
217.47	-23.744
217.84	-13.427
218.20	-0.006
218.57	-1.231
218.94	-11.009
219.30	-6.169
219.67	-6.793
220.04	5.394
220.40	1.283
220.77	-2.245
221.13	9.824
221.50	20.788
221.87	18.722
222.23	18.255
222.60	15.830
222.97	15.907
223.33	13.936
223.70	12.648
224.07	13.682
224.43	15.657
224.80	13.542
225.16	14.222
225.53	11.087
225.90	10.282
226.26	9.264
226.63	8.567
226.99	9.789
227.36	10.119
227.73	8.024
228.09	8.392
228.46	7.596
228.82	7.355
229.19	6.052
229.56	4.816
229.92	6.670
230.29	7.555
230.65	9.901
231.02	10.577
231.38	8.826
231.75	10.727
232.12	11.145
232.48	13.647
232.85	14.263
233.21	15.007
233.58	16.660
233.94	13.404
234.31	11.581
234.68	9.060
235.04	8.586
235.41	11.803
235.77	12.016
236.14	11.335
236.50	10.176
236.87	10.015
237.23	10.227
237.60	10.115
237.96	9.081
238.33	8.782
238.69	8.314
239.06	7.889
239.42	6.345
239.79	5.697
240.15	5.875
240.52	5.305
240.88	4.988
241.25	4.712
241.61	3.414
241.98	4.772
242.34	4.906
242.71	4.560
243.07	3.815
243.44	4.278
243.80	4.080
244.17	3.274
244.53	2.869
244.90	2.741
245.26	1.952
245.63	2.240
245.99	1.792
246.36	2.155
246.72	2.512
247.09	3.026
247.45	2.865
247.81	3.234
248.18	3.353
248.54	3.273
248.91	3.136
249.27	4.447
249.64	4.450
250.00	5.088
250.36	4.432
250.73	4.736
251.09	4.150
251.46	3.932
251.82	3.889
252.19	4.653
252.55	4.820
252.91	5.365
253.28	4.266
253.64	3.468
254.01	2.645
254.37	3.094
254.73	1.894
255.10	2.417
255.46	2.334
255.83	2.318
256.19	2.326
256.55	2.514
256.92	2.444
257.28	2.383
257.65	2.659
258.01	2.556
258.37	2.359
258.74	2.676
259.10	2.152
259.46	1.820
259.83	2.109
260.19	1.703
260.55	1.382
260.92	1.271
261.28	1.283
261.64	1.523
262.01	1.768
262.37	2.106
262.73	2.092
263.10	2.333
263.46	2.723
263.82	2.341
264.19	2.643
264.55	3.275
264.91	3.029
265.28	3.551
265.64	3.094
266.00	2.801
266.37	2.876
266.73	2.514
267.09	3.108
267.46	3.046
267.82	2.956
268.18	3.009
268.54	2.666
268.91	2.746
269.27	2.807
269.63	3.425
270.00	3.199
270.36	2.807
270.72	3.126
271.08	3.017
271.45	3.232
271.81	3.297
272.17	3.139
272.53	3.282
272.90	3.438
273.26	2.989
273.62	2.472
273.98	3.026
274.35	2.805
274.71	2.315
275.07	2.139
275.43	2.351
275.80	2.276
276.16	2.335
276.52	2.462
276.88	2.442
277.25	2.501
277.61	2.813
277.97	2.875
278.33	2.930
278.69	3.400
279.06	3.460
279.42	3.011
279.78	2.939
280.14	2.910
280.50	2.817
280.87	2.991
281.23	3.133
281.59	2.905
281.95	2.683
282.31	2.840
282.68	2.865
283.04	3.013
283.40	3.266
283.76	3.272
284.12	3.312
284.48	3.309
284.85	3.138
285.21	2.771
285.57	3.231
285.93	3.131
286.29	3.193
286.65	3.063
287.02	3.053
287.38	2.704
287.74	2.676
288.10	2.932
288.46	3.158
288.82	3.355
289.18	3.655
289.54	2.987
289.91	3.006
290.27	2.885
290.63	3.022
290.99	3.051
291.35	3.132
291.71	3.531
292.07	3.513
292.43	3.328
292.79	3.406
293.16	3.533
293.52	4.027
293.88	4.431
294.24	4.971
294.60	4.964
294.96	4.820
295.32	5.099
295.68	4.842
296.04	4.846
296.40	5.235
296.76	5.257
297.12	5.657
297.49	5.923
297.85	6.097
298.21	6.129
298.57	6.402
298.93	6.875
299.29	7.259
299.65	7.749
300.01	8.166
300.37	8.282
300.73	8.516
301.09	8.669
301.45	8.863
301.81	8.970
302.17	9.325
302.53	9.707
302.89	9.837
303.25	9.886
303.61	10.034
303.97	10.362
304.33	10.568
304.69	10.931
305.05	10.969
305.41	11.135
305.77	11.267
306.13	10.996
306.49	11.003
306.85	11.238
307.21	11.481
307.57	11.800
307.93	11.732
308.29	11.879
308.65	11.902
309.01	12.034
309.37	12.054
309.73	12.247
310.09	12.601
310.45	12.694
310.81	12.709
311.17	12.600
311.53	12.655
311.89	12.622
312.25	12.740
312.61	12.668
312.96	12.687
313.32	12.538
313.68	12.422
314.04	12.231
314.40	12.248
314.76	12.357
315.12	12.540
315.48	12.462
315.84	12.603
316.20	12.601
316.56	12.810
316.92	12.832
317.27	12.910
317.63	12.945
317.99	13.058
318.35	12.992
318.71	12.791
319.07	12.662
319.43	12.442
319.79	12.322
320.15	12.161
320.50	11.919
320.86	11.836
321.22	11.826
321.58	11.813
321.94	11.670
322.30	11.637
322.66	11.582
323.01	11.785
323.37	11.822
323.73	11.750
324.09	11.567
324.45	11.587
324.81	11.437
325.17	11.361
325.52	11.265
325.88	11.422
326.24	11.352
326.60	11.423
326.96	11.192
327.31	11.228
327.67	11.251
328.03	11.383
328.39	11.414
328.75	11.472
329.11	11.587
329.46	11.612
329.82	11.411
330.18	11.380
330.54	11.233
330.90	11.213
331.25	11.126
331.61	11.078
331.97	11.023
332.33	10.951
332.68	10.988
333.04	10.847
333.40	10.757
333.76	10.870
334.11	10.741
334.47	10.843
334.83	10.714
335.19	10.734
335.54	10.698
335.90	10.651
336.26	10.574
336.62	10.450
336.97	10.472
337.33	10.454
337.69	10.388
338.05	10.429
338.40	10.347
338.76	10.390
339.12	10.420
339.48	10.513
339.83	10.497
340.19	10.487
340.55	10.593
340.90	10.536
341.26	10.511
341.62	10.533
341.97	10.536
342.33	10.575
342.69	10.612
343.04	10.572
343.40	10.470
343.76	10.518
344.12	10.547
344.47	10.559
344.83	10.567
345.19	10.558
345.54	10.341
345.90	10.450
346.26	10.342
346.61	10.453
346.97	10.425
347.32	10.407
347.68	10.375
348.04	10.335
348.39	10.239
348.75	10.227
349.11	10.265
349.46	10.400
349.82	10.368
350.18	10.400
350.53	10.329
350.89	10.370
351.24	10.350
351.60	10.284
351.96	10.136
352.31	10.051
352.67	10.076
353.02	9.961
353.38	9.855
353.74	9.672
354.09	9.616
354.45	9.564
354.80	9.486
355.16	9.533
355.52	9.541
355.87	9.605
356.23	9.604
356.58	9.527
356.94	9.447
357.29	9.472
357.65	9.521
358.00	9.509
358.36	9.409
358.72	9.327
359.07	9.265
359.43	9.231
359.78	9.218
360.14	9.241
360.49	9.140
360.85	9.168
361.20	9.117
361.56	9.059
361.91	8.965
362.27	8.959
362.62	8.965
362.98	8.877
363.33	8.839
363.69	8.790
364.04	8.744
364.40	8.813
364.75	8.834
365.11	8.879
365.46	8.850
365.82	8.817
366.17	8.770
366.53	8.708
366.88	8.804
367.24	8.816
367.59	8.783
367.95	8.795
368.30	8.696
368.66	8.692
369.01	8.591
369.37	8.617
369.72	8.696
370.08	8.682
370.43	8.655
370.78	8.549
371.14	8.498
371.49	8.538
371.85	8.560
372.20	8.630
372.56	8.569
372.91	8.615
373.26	8.522
373.62	8.468
373.97	8.458
374.33	8.487
374.68	8.452
375.03	8.417
375.39	8.343
375.74	8.252
376.10	8.171
376.45	8.140
376.80	8.085
377.16	8.104
377.51	8.077
377.87	8.092
378.22	8.021
378.57	8.074
378.93	8.059
379.28	8.068
379.63	8.042
379.99	8.117
380.34	8.119
380.70	8.121
381.05	8.124
381.40	8.124
381.76	8.082
382.11	8.021
382.46	7.944
382.82	7.915
383.17	7.882
383.52	7.865
383.88	7.834
384.23	7.758
384.58	7.735
384.94	7.717
385.29	7.677
385.64	7.645
385.99	7.669
386.35	7.653
386.70	7.619
387.05	7.631
387.41	7.578
387.76	7.516
388.11	7.534
388.47	7.500
388.82	7.474
389.17	7.473
389.52	7.431
389.88	7.450
390.23	7.441
390.58	7.432
390.93	7.366
391.29	7.396
391.64	7.400
391.99	7.437
392.34	7.394
392.70	7.387
393.05	7.367
393.40	7.357
393.75	7.321
394.11	7.284
394.46	7.249
394.81	7.244
395.16	7.161
395.52	7.096
395.87	6.996
396.22	6.936
396.57	6.888
396.92	6.825
397.28	6.762
397.63	6.712
397.98	6.651
398.33	6.594
398.68	6.578
399.04	6.557
399.39	6.535
399.74	6.536
400.09	6.549
400.44	6.521
400.80	6.519
401.15	6.517
401.50	6.500
401.85	6.488
402.20	6.486
402.55	6.477
402.90	6.468
403.26	6.410
403.61	6.376
403.96	6.363
404.31	6.337
404.66	6.314
405.01	6.303
405.36	6.301
405.72	6.305
406.07	6.289
406.42	6.215
406.77	6.187
407.12	6.170
407.47	6.141
407.82	6.103
408.17	6.107
408.53	6.077
408.88	6.116
409.23	6.075
409.58	6.080
409.93	6.052
410.28	6.073
410.63	6.042
410.98	6.041
411.33	6.043
411.68	6.030
412.03	5.997
412.38	5.994
412.73	5.915
413.09	5.915
413.44	5.890
413.79	5.898
414.14	5.895
414.49	5.905
414.84	5.920
415.19	5.937
415.54	5.955
415.89	5.943
416.24	5.935
416.59	5.962
416.94	5.944
417.29	5.936
417.64	5.943
417.99	5.948
418.34	5.951
418.69	5.949
419.04	5.926
419.39	5.924
419.74	5.932
420.09	5.930
420.44	5.923
420.79	5.919
421.14	5.923
421.49	5.897
421.84	5.895
422.19	5.896
422.54	5.892
422.89	5.894
423.24	5.877
423.59	5.853
423.94	5.847
424.29	5.823
424.64	5.825
424.99	5.795
425.34	5.792
425.68	5.772
426.03	5.716
426.38	5.728
426.73	5.698
427.08	5.702
427.43	5.698
427.78	5.688
428.13	5.678
428.48	5.658
428.83	5.699
429.18	5.716
429.53	5.714
429.87	5.743
430.22	5.706
430.57	5.719
430.92	5.672
431.27	5.696
431.62	5.663
431.97	5.659
432.32	5.649
432.67	5.598
433.01	5.569
433.36	5.539
433.71	5.537
434.06	5.518
434.41	5.505
434.76	5.519
435.11	5.492
435.45	5.535
435.80	5.544
436.15	5.560
436.50	5.579
436.85	5.592
437.20	5.619
437.54	5.613
437.89	5.622
438.24	5.612
438.59	5.613
438.94	5.605
439.29	5.566
439.63	5.563
439.98	5.532
440.33	5.524
440.68	5.512
441.03	5.483
441.37	5.454
441.72	5.445
442.07	5.451
442.42	5.440
442.76	5.445
443.11	5.463
443.46	5.476
443.81	5.474
444.16	5.465
444.50	5.466
444.85	5.455
445.20	5.453
445.55	5.434
445.89	5.406
446.24	5.391
446.59	5.348
446.94	5.320
447.28	5.261
447.63	5.242
447.98	5.220
448.32	5.189
448.67	5.167
449.02	5.157
449.37	5.139
449.71	5.135
450.06	5.139
450.41	5.170
450.75	5.155
451.10	5.147
451.45	5.144
451.79	5.111
452.14	5.091
452.49	5.071
452.84	5.072
453.18	5.041
453.53	5.022
453.88	5.006
454.22	4.993
454.57	4.985
454.92	5.000
455.26	5.010
455.61	5.043
455.95	5.064
456.30	5.096
456.65	5.100
456.99	5.124
457.34	5.156
457.69	5.177
458.03	5.166
458.38	5.162
458.73	5.162
459.07	5.153
459.42	5.129
459.76	5.101
460.11	5.059
460.46	5.028
460.80	4.987
461.15	4.925
461.49	4.870
461.84	4.838
462.19	4.840
462.53	4.823
462.88	4.813
463.22	4.816
463.57	4.818
463.91	4.842
464.26	4.849
464.61	4.880
464.95	4.891
465.30	4.893
465.64	4.898
465.99	4.880
466.33	4.871
466.68	4.844
467.02	4.819
467.37	4.806
467.71	4.769
468.06	4.759
468.41	4.719
468.75	4.711
469.10	4.693
469.44	4.664
469.79	4.646
470.13	4.615
470.48	4.597
470.82	4.602
471.17	4.582
471.51	4.588
471.86	4.566
472.20	4.566
472.55	4.526
472.89	4.513
473.23	4.500
473.58	4.467
473.92	4.453
474.27	4.439
474.61	4.413
474.96	4.414
475.30	4.377
475.65	4.353
475.99	4.328
476.34	4.335
476.68	4.311
477.02	4.309
477.37	4.314
477.71	4.334
478.06	4.354
478.40	4.392
478.75	4.448
479.09	4.528
479.43	4.609
479.78	4.715
480.12	4.807
480.47	4.894
480.81	4.969
481.15	5.034
481.50	5.084
481.84	5.153
482.19	5.215
482.53	5.272
482.87	5.301
483.22	5.289
483.56	5.259
483.90	5.230
484.25	5.206
484.59	5.176
484.94	5.139
485.28	5.093
485.62	5.028
485.97	4.949
486.31	4.861
486.65	4.798
487.00	4.781
487.34	4.770
487.68	4.751
488.03	4.723
488.37	4.694
488.71	4.666
489.06	4.644
489.40	4.624
489.74	4.606
490.09	4.591
490.43	4.571
490.77	4.532
491.11	4.474
491.46	4.422
491.80	4.359
492.14	4.299
492.49	4.250
492.83	4.198
493.17	4.132
493.51	4.084
493.86	4.044
494.20	3.984
494.54	3.949
494.88	3.936
495.23	3.937
495.57	3.960
495.91	3.969
496.25	3.967
496.60	3.964
496.94	3.953
497.28	3.933
497.62	3.892
497.97	3.871
498.31	3.854
498.65	3.842
498.99	3.815
499.33	3.786
499.68	3.763
500.02	3.740
500.36	3.723
500.70	3.720
501.04	3.703
501.39	3.694
501.73	3.695
502.07	3.686
502.41	3.689
502.75	3.680
503.09	3.667
503.44	3.662
503.78	3.674
504.12	3.678
504.46	3.672
504.80	3.697
505.14	3.702
505.49	3.714
505.83	3.715
506.17	3.707
506.51	3.710
506.85	3.709
507.19	3.711
507.53	3.714
507.87	3.712
508.22	3.715
508.56	3.687
508.90	3.664
509.24	3.648
509.58	3.639
509.92	3.638
510.26	3.609
510.60	3.585
510.94	3.563
511.28	3.516
511.63	3.505
511.97	3.479
512.31	3.453
512.65	3.450
512.99	3.437
513.33	3.430
513.67	3.432
514.01	3.461
514.35	3.493
514.69	3.518
515.03	3.565
515.37	3.586
515.71	3.622
516.05	3.652
516.39	3.674
516.73	3.694
517.07	3.704
517.41	3.715
517.75	3.706
518.09	3.686
518.43	3.657
518.77	3.619
519.11	3.580
519.45	3.527
519.79	3.492
520.13	3.461
520.47	3.406
520.81	3.368
521.15	3.323
521.49	3.320
521.83	3.330
522.17	3.343
522.51	3.367
522.85	3.403
523.19	3.460
523.53	3.538
523.87	3.620
524.21	3.715
524.55	3.816
524.89	3.901
525.23	3.966
525.57	4.011
525.91	4.066
526.25	4.102
526.58	4.137
526.92	4.162
527.26	4.177
527.60	4.176
527.94	4.171
528.28	4.146
528.62	4.111
528.96	4.079
529.30	4.053
529.64	4.015
529.97	3.991
530.31	3.944
530.65	3.902
530.99	3.860
531.33	3.829
531.67	3.796
532.01	3.773
532.35	3.759
532.68	3.728
533.02	3.704
533.36	3.662
533.70	3.619
534.04	3.586
534.38	3.553
534.71	3.512
535.05	3.469
535.39	3.430
535.73	3.396
536.07	3.366
536.41	3.369
536.74	3.375
537.08	3.410
537.42	3.434
537.76	3.488
538.10	3.533
538.43	3.579
538.77	3.620
539.11	3.662
539.45	3.690
539.79	3.717
540.12	3.738
540.46	3.739
540.80	3.746
541.14	3.735
541.47	3.697
541.81	3.656
542.15	3.618
542.49	3.576
542.82	3.514
543.16	3.475
543.50	3.426
543.84	3.363
544.17	3.307
544.51	3.236
544.85	3.218
545.18	3.181
545.52	3.162
545.86	3.140
546.20	3.107
546.53	3.065
546.87	3.009
547.21	2.968
547.54	2.937
547.88	2.911
548.22	2.901
548.55	2.869
548.89	2.856
549.23	2.831
549.56	2.804
549.90	2.804
550.24	2.833
550.57	2.832
550.91	2.832
551.25	2.821
551.58	2.836
551.92	2.825
552.26	2.811
552.59	2.800
552.93	2.789
553.27	2.773
553.60	2.733
553.94	2.712
554.27	2.694
554.61	2.678
554.95	2.688
555.28	2.668
555.62	2.664
555.95	2.658
556.29	2.657
556.63	2.658
556.96	2.657
557.30	2.665
557.63	2.654
557.97	2.684
558.31	2.700
558.64	2.676
558.98	2.655
559.31	2.664
559.65	2.643
559.98	2.632
560.32	2.649
560.65	2.665
560.99	2.684
561.33	2.724
561.66	2.738
562.00	2.758
562.33	2.789
562.67	2.821
563.00	2.828
563.34	2.865
563.67	2.905
564.01	2.925
564.34	2.931
564.68	2.956
565.01	2.945
565.35	2.932
565.68	2.927
566.02	2.924
566.35	2.920
566.69	2.919
567.02	2.946
567.36	2.950
567.69	2.957
568.03	2.979
568.36	2.983
568.69	2.988
569.03	2.992
569.36	3.004
569.70	3.010
570.03	3.033
570.37	3.063
570.70	3.042
571.04	3.052
571.37	3.054
571.70	3.040
572.04	3.018
572.37	3.023
572.71	3.029
573.04	3.020
573.37	3.027
573.71	3.003
574.04	2.975
574.38	2.960
574.71	2.956
575.04	2.930
575.38	2.929
575.71	2.908
576.05	2.904
576.38	2.882
576.71	2.862
577.05	2.832
577.38	2.802
577.71	2.776
578.05	2.769
578.38	2.740
578.71	2.725
579.05	2.715
579.38	2.711
579.71	2.697
580.05	2.685
580.38	2.692
580.71	2.705
581.05	2.733
581.38	2.736
581.71	2.736
582.05	2.723
582.38	2.722
582.71	2.738
583.04	2.767
583.38	2.752
583.71	2.766
584.04	2.761
584.38	2.766
584.71	2.794
585.04	2.840
585.37	2.860
585.71	2.901
586.04	2.932
586.37	2.925
586.70	2.941
587.04	2.964
587.37	2.991
587.70	3.000
588.03	3.013
588.37	3.018
588.70	3.000
589.03	3.010
589.36	2.982
589.69	2.986
590.03	2.973
590.36	2.964
590.69	2.965
591.02	2.963
591.35	2.964
591.69	2.967
592.02	2.984
592.35	3.010
592.68	3.025
593.01	3.073
593.35	3.095
593.68	3.109
594.01	3.109
594.34	3.114
594.67	3.112
595.00	3.116
595.34	3.111
595.67	3.095
596.00	3.096
596.33	3.085
596.66	3.045
596.99	2.999
597.32	3.000
597.65	3.000
597.99	3.001
598.32	2.998
598.65	2.993
598.98	2.976
599.31	2.978
599.64	2.971
599.97	2.988
600.30	3.023
600.63	3.072
600.96	3.090
601.30	3.113
601.63	3.107
601.96	3.141
602.29	3.157
602.62	3.167
602.95	3.133
603.28	3.149
603.61	3.153
603.94	3.127
604.27	3.121
604.60	3.094
604.93	3.087
605.26	3.107
605.59	3.080
605.92	3.069
606.25	3.064
606.58	3.101
606.91	3.097
607.24	3.091
607.57	3.125
607.90	3.106
608.23	3.097
608.56	3.093
608.89	3.082
609.22	3.072
609.55	3.067
609.88	3.074
610.21	3.035
610.54	3.010
610.87	2.971
611.20	2.917
611.53	2.902
611.86	2.915
612.19	2.895
612.52	2.887
612.85	2.880
613.18	2.861
613.51	2.845
613.84	2.862
614.17	2.812
614.49	2.864
614.82	2.890
615.15	2.884
615.48	2.913
615.81	2.950
616.14	2.924
616.47	2.924
616.80	2.925
617.13	2.916
617.46	2.919
617.78	2.939
618.11	2.917
618.44	2.912
618.77	2.906
619.10	2.879
619.43	2.858
619.76	2.875
620.09	2.872
620.41	2.887
620.74	2.895
621.07	2.948
621.40	2.982
621.73	2.964
622.06	2.967
622.38	3.001
622.71	3.018
623.04	3.006
623.37	3.003
623.70	3.032
624.02	3.042
624.35	3.050
624.68	3.018
625.01	3.041
625.34	3.077
625.66	3.092
625.99	3.068
626.32	3.064
626.65	3.076
626.98	3.107
627.30	3.099
627.63	3.078
627.96	3.079
628.29	3.078
628.61	3.022
628.94	2.978
629.27	2.958
629.60	2.953
629.92	2.938
630.25	2.918
630.58	2.877
630.91	2.852
631.23	2.869
631.56	2.884
631.89	2.883
632.21	2.922
632.54	2.932
632.87	2.917
633.19	2.909
633.52	2.895
633.85	2.872
634.18	2.878
634.50	2.869
634.83	2.876
635.16	2.871
635.48	2.841
635.81	2.795
636.14	2.777
636.46	2.775
636.79	2.778
637.11	2.760
637.44	2.726
637.77	2.688
638.09	2.662
638.42	2.645
638.75	2.594
639.07	2.589
639.40	2.584
639.73	2.559
640.05	2.548
640.38	2.540
640.70	2.571
641.03	2.578
641.36	2.576
641.68	2.599
642.01	2.588
642.33	2.591
642.66	2.586
642.98	2.622
643.31	2.666
643.64	2.691
643.96	2.713
644.29	2.737
644.61	2.820
644.94	2.847
645.26	2.837
645.59	2.833
645.91	2.837
646.24	2.827
646.56	2.809
646.89	2.808
647.22	2.779
647.54	2.777
647.87	2.731
648.19	2.687
648.52	2.744
648.84	2.768
649.17	2.771
649.49	2.805
649.82	2.840
650.14	2.863
650.47	2.865
650.79	2.844
651.11	2.859
651.44	2.841
651.76	2.853
652.09	2.769
652.41	2.747
652.74	2.765
653.06	2.735
653.39	2.752
653.71	2.759
654.04	2.740
654.36	2.791
654.68	2.773
655.01	2.810
655.33	2.825
655.66	2.877
655.98	2.909
656.30	2.920
656.63	2.933
656.95	2.956
657.28	2.929
657.60	2.863
657.92	2.885
658.25	2.846
658.57	2.847
658.90	2.807
659.22	2.773
659.54	2.707
659.87	2.604
660.19	2.622
660.51	2.557
660.84	2.502
661.16	2.516
661.48	2.439
661.81	2.452
662.13	2.432
662.45	2.438
662.78	2.466
663.10	2.498
663.42	2.604
663.75	2.565
664.07	2.546
664.39	2.554
664.72	2.559
665.04	2.538
665.36	2.532
665.69	2.513
666.01	2.530
666.33	2.492
666.65	2.502
666.98	2.432
667.30	2.439
667.62	2.461
667.94	2.519
668.27	2.555
668.59	2.605
668.91	2.573
669.23	2.571
669.56	2.560
669.88	2.508
670.20	2.460
670.52	2.451
670.85	2.391
671.17	2.348
671.49	2.278
671.81	2.266
672.13	2.189
672.46	2.213
672.78	2.204
673.10	2.181
673.42	2.229
673.74	2.225
674.07	2.235
674.39	2.233
674.71	2.263
675.03	2.273
675.35	2.296
675.67	2.368
676.00	2.388
676.32	2.356
676.64	2.401
676.96	2.385
677.28	2.467
677.60	2.538
677.92	2.565
678.25	2.526
678.57	2.546
678.89	2.535
679.21	2.474
679.53	2.482
679.85	2.484
680.17	2.480
680.49	2.484
680.81	2.417
681.13	2.335
681.46	2.316
681.78	2.321
682.10	2.301
682.42	2.261
682.74	2.328
683.06	2.303
683.38	2.342
683.70	2.301
684.02	2.400
684.34	2.422
684.66	2.503
684.98	2.587
685.30	2.676
685.62	2.668
685.94	2.747
686.26	2.732
686.58	2.755
686.90	2.805
687.22	2.810
687.54	2.793
687.86	2.765
688.18	2.709
688.50	2.683
688.82	2.619
689.14	2.659
689.46	2.626
689.78	2.644
690.10	2.560
690.42	2.533
690.74	2.565
691.06	2.520
691.38	2.483
691.70	2.426
692.02	2.354
692.34	2.313
692.66	2.246
692.98	2.180
693.30	2.126
693.62	2.225
693.94	2.209
694.26	2.220
694.57	2.183
694.89	2.274
695.21	2.322
695.53	2.407
695.85	2.440
696.17	2.500
696.49	2.592
696.81	2.596
697.13	2.570
697.44	2.611
697.76	2.587
698.08	2.614
698.40	2.565
698.72	2.579
699.04	2.494
699.36	2.512
699.67	2.440
699.99	2.262
700.31	2.321
700.63	2.278
700.95	2.110
701.27	1.986
701.58	1.915
701.90	1.930
702.22	1.793
702.54	1.773
702.86	1.672
703.17	1.660
703.49	1.654
703.81	1.480
704.13	1.413
704.45	1.379
704.76	1.374
705.08	1.339
705.40	1.303
705.72	1.346
706.03	1.309
706.35	1.341
706.67	1.294
706.99	1.377
707.30	1.386
707.62	1.429
707.94	1.515
708.26	1.577
708.57	1.523
708.89	1.553
709.21	1.549
709.53	1.624
709.84	1.594
710.16	1.566
710.48	1.527
710.79	1.503
711.11	1.450
711.43	1.363
711.74	1.359
712.06	1.490
712.38	1.532
712.69	1.612
713.01	1.637
713.33	1.704
713.64	1.850
713.96	1.965
714.28	2.100
714.59	2.253
714.91	2.382
715.23	2.353
715.54	2.336
715.86	2.349
716.17	2.370
716.49	2.395
716.81	2.304
717.12	2.287
717.44	2.219
717.76	2.165
718.07	2.073
718.39	2.045
718.70	2.153
719.02	2.075
719.33	1.942
719.65	1.860
719.97	1.763
720.28	1.892
720.60	1.778
720.91	1.802
721.23	1.793
721.54	1.893
721.86	1.861
722.17	1.786
722.49	1.843
722.81	1.959
723.12	2.027
723.44	2.060
723.75	1.976
724.07	2.108
724.38	2.153
724.70	2.162
725.01	2.042
725.33	2.108
725.64	2.122
725.96	2.030
726.27	2.010
726.59	1.979
726.90	1.931
727.22	1.952
727.53	2.006
727.84	1.896
728.16	1.939
728.47	1.951
728.79	1.852
729.10	1.883
729.42	1.879
729.73	1.834
730.05	1.817
730.36	1.762
730.67	1.720
730.99	1.451
731.30	1.401
731.62	1.270
731.93	1.251
732.24	1.243
732.56	1.093
732.87	1.067
733.19	0.977
733.50	0.857
733.81	0.803
734.13	0.761
734.44	0.801
734.76	0.665
735.07	0.569
735.38	0.437
735.70	0.390
736.01	0.339
736.32	0.212
736.64	0.181
736.95	0.073
737.26	0.047
737.58	-0.034
737.89	-0.118
738.20	-0.127
738.52	-0.132
738.83	-0.200
739.14	-0.342
739.45	-0.410
739.77	-0.418
740.08	-0.518
740.39	-0.498
740.71	-0.666
741.02	-0.809
741.33	-0.850
741.64	-0.780
741.96	-0.853
742.27	-0.933
742.58	-1.094
742.90	-0.955
743.21	-0.998
743.52	-1.091
743.83	-1.335
744.14	-1.337
744.46	-1.305
744.77	-1.286
745.08	-1.423
745.39	-1.437
745.71	-1.527
746.02	-1.438
746.33	-1.581
746.64	-1.438
746.95	-1.523
747.27	-1.452
747.58	-1.311
747.89	-1.314
748.20	-1.354
748.51	-1.413
748.82	-1.394
749.14	-1.280
749.45	-1.336
749.76	-1.178
750.07	-1.245
750.38	-1.227
750.69	-1.229
751.01	-1.322
751.32	-1.467
751.63	-1.584
751.94	-1.522
752.25	-1.625
752.56	-1.712
752.87	-1.572
753.18	-1.819
753.49	-1.736
753.81	-1.634
754.12	-1.635
754.43	-1.619
754.74	-1.464
755.05	-1.437
755.36	-1.135
755.67	-1.087
755.98	-0.904
756.29	-0.676
756.60	-0.285
756.91	-0.171
757.22	0.222
757.53	0.691
757.84	1.247
758.15	1.738
758.46	2.140
758.77	2.382
759.09	2.800
759.40	3.022
759.71	3.138
760.02	3.257
760.33	3.469
760.64	3.467
760.95	3.483
761.26	3.353
761.57	3.236
761.88	3.238
762.18	3.178
762.49	3.077
762.80	3.021
763.11	2.872
763.42	2.649
763.73	2.365
764.04	2.116
764.35	1.736
764.66	1.461
764.97	1.236
765.28	0.926
765.59	0.337
765.90	-0.063
766.21	-0.414
766.52	-0.802
766.83	-1.196
767.14	-1.693
767.44	-2.134
767.75	-2.431
768.06	-2.914
768.37	-3.253
768.68	-3.556
768.99	-3.536
769.30	-3.723
769.61	-4.151
769.91	-4.142
770.22	-4.312
770.53	-3.907
770.84	-3.695
771.15	-3.681
771.46	-3.453
771.77	-3.737
772.07	-3.707
772.38	-4.054
772.69	-4.272
773.00	-4.141
773.31	-4.172
773.61	-4.058
773.92	-4.284
774.23	-4.427
774.54	-4.292
774.85	-4.216
775.15	-3.988
775.46	-4.092
775.77	-3.667
776.08	-3.615
776.39	-3.485
776.69	-3.592
777.00	-3.585
777.31	-3.905
777.62	-3.931
777.92	-4.075
778.23	-4.191
778.54	-4.283
778.85	-4.294
779.15	-4.740
779.46	-4.846
779.77	-5.128
780.07	-5.114
780.38	-5.150
780.69	-4.865
781.00	-4.901
781.30	-4.808
781.61	-5.130
781.92	-4.821
782.22	-4.430
782.53	-4.082
782.84	-3.628
783.14	-3.513
783.45	-3.783
783.76	-3.786
784.06	-3.710
784.37	-3.555
784.68	-3.195
784.98	-2.929
785.29	-2.943
785.60	-2.966
785.90	-2.534
786.21	-2.487
786.51	-2.060
786.82	-1.754
787.13	-1.658
787.43	-1.604
787.74	-1.243
788.04	-1.461
788.35	-1.547
788.66	-1.772
788.96	-1.875
789.27	-2.274
789.57	-2.282
789.88	-2.532
790.19	-2.634
790.49	-2.733
790.80	-2.837
791.10	-3.105
791.41	-2.859
791.71	-2.726
792.02	-2.692
792.32	-2.606
792.63	-2.768
792.93	-2.632
793.24	-2.779
793.54	-2.424
793.85	-2.009
794.15	-1.577
794.46	-1.620
794.76	-1.356
795.07	-0.955
795.37	-0.726
795.68	-0.551
795.98	0.046
796.29	0.069
796.59	0.475
796.90	0.278
797.20	0.354
797.51	-0.000
797.81	-0.182
798.12	-0.787
798.42	-0.952
798.72	-1.170
799.03	-1.427
799.33	-1.619
799.64	-1.615
799.94	-1.655
800.25	-1.720
800.55	-2.107
800.85	-2.338
801.16	-2.203
801.46	-1.543
801.77	-1.884
802.07	-1.652
802.37	-1.362
802.68	-1.278
802.98	-1.393
803.28	-1.955
803.59	-1.662
803.89	-1.251
804.20	-1.144
804.50	-0.707
804.80	-1.016
805.11	-1.031
805.41	-1.573
805.71	-1.858
806.02	-2.045
806.32	-2.168
806.62	-2.067
806.93	-2.593
807.23	-2.710
807.53	-2.526
807.83	-2.849
808.14	-3.117
808.44	-2.966
808.74	-2.095
809.05	-2.055
809.35	-1.938
809.65	-1.762
809.95	-1.214
810.26	-0.885
810.56	-0.907
810.86	-0.942
811.16	-0.858
811.47	-0.601
811.77	-0.158
812.07	-0.042
812.37	0.174
812.68	-0.105
812.98	0.154
813.28	0.293
813.58	0.968
813.88	1.247
814.19	1.353
814.49	1.581
814.79	2.286
815.09	2.259
815.39	1.989
815.70	1.961
816.00	2.497
816.30	2.768
816.60	2.717
816.90	2.601
817.20	2.409
817.50	2.646
817.81	2.853
818.11	2.878
818.41	3.370
818.71	3.696
819.01	3.951
819.31	4.147
819.61	4.139
819.92	4.323
820.22	4.492
820.52	4.653
820.82	4.814
821.12	4.837
821.42	4.878
821.72	4.866
822.02	4.950
822.32	4.966
822.62	4.955
822.92	5.026
823.22	5.030
823.52	4.999
823.83	5.025
824.13	5.026
824.43	5.084
824.73	5.189
825.03	5.132
825.33	5.023
825.63	5.024
825.93	5.042
826.23	5.059
826.53	5.081
826.83	5.019
827.13	4.958
827.43	4.894
827.73	4.966
828.03	4.753
828.33	4.746
828.63	4.489
828.93	4.634
829.23	4.300
829.53	3.981
829.83	3.678
830.13	3.300
830.42	3.002
830.72	2.660
831.02	2.522
831.32	2.771
831.62	2.851
831.92	3.199
832.22	2.980
832.52	3.172
832.82	3.466
833.12	3.627
833.42	3.766
833.72	3.559
834.01	3.730
834.31	3.693
834.61	3.335
834.91	3.185
835.21	2.905
835.51	2.852
835.81	2.599
836.11	1.980
836.40	1.732
836.70	1.243
837.00	1.141
837.30	0.756
837.60	0.232
837.90	0.361
838.19	0.515
838.49	0.190
838.79	-0.129
839.09	-0.000
839.39	0.434
839.68	-0.546
839.98	-0.018
840.28	0.324
840.58	0.222
840.88	-0.594
841.17	-1.229
841.47	-2.216
841.77	-1.958
842.07	-2.304
842.36	-2.649
842.66	-3.333
842.96	-3.767
843.26	-4.268
843.55	-5.241
843.85	-5.005
844.15	-4.230
844.45	-4.077
844.74	-3.200
845.04	-3.036
845.34	-3.596
845.63	-4.301
845.93	-4.075
846.23	-2.762
846.53	-4.005
846.82	-4.565
847.12	-6.366
847.42	-6.831
847.71	-8.819
848.01	-8.897
848.31	-10.773
848.60	-9.344
848.90	-10.339
849.19	-9.998
849.49	-9.639
849.79	-9.430
850.08	-9.563
850.38	-7.944
850.68	-6.233
850.97	-4.480
851.27	-4.756
851.56	-2.555
851.86	-3.988
852.16	-3.254
852.45	-2.862
852.75	-4.221
853.04	-3.531
853.34	-4.454
853.64	-7.881
853.93	-8.674
854.23	-8.193
854.52	-8.126
854.82	-10.324
855.11	-9.815
855.41	-8.251
855.70	-9.990
856.00	-10.394
856.30	-9.125
856.59	-7.657
856.89	-7.033
857.18	-6.903
857.48	-8.089
857.77	-10.054
858.07	-8.918
858.36	-7.746
858.66	-9.081
858.95	-8.936
859.25	-6.834
859.54	-8.245
859.84	-7.918
860.13	-6.637
860.42	-8.360
860.72	-7.214
861.01	-5.810
861.31	-5.101
861.60	-6.584
861.90	-9.565
862.19	-10.006
862.49	-10.388
862.78	-9.570
863.07	-9.876
863.37	-9.035
863.66	-7.979
863.96	-8.530
864.25	-6.746
864.54	-5.929
864.84	-4.364
865.13	-1.726
865.43	-0.676
865.72	9.056
866.01	7.149
866.31	7.609
866.60	-9.169
866.89	2.441
>>>>>End Spectral Data<<<<<
