OOIBase32 Version 2.0.0.6 Data File
++++++++++++++++++++++++++++++++++++
Date: 01-20-2012, 22:29:15
User: Valued Ocean Optics Customer
Spectrometer Serial Number: USB2E2917
Spectrometer Channel: Master
Integration Time (msec): 4
Spectra Averaged: 10
Boxcar Smoothing: 5
Correct for Electrical Dark: Enabled
Time Normalized: Disabled
Dual-beam Reference: Disabled
Reference Channel: Master
Temperature: Not acquired
Spectrometer Type: S2000
ADC Type: USB2000
Number of Pixels in File: 2048
Graph Title: 
>>>>>Begin Spectral Data<<<<<
180.30	0.000
180.67	0.000
181.03	61.785
181.40	28.861
181.77	103.666
182.14	-49.198
182.51	25.647
182.88	-239.142
183.25	45.528
183.62	93.774
183.99	-43.254
184.36	-40.065
184.73	108.974
185.10	553.206
185.46	-29.093
185.83	63.733
186.20	-303.196
186.57	22.476
186.94	219.345
187.31	-60.643
187.68	3169.506
188.05	-22.636
188.42	-76.498
188.78	1.478
189.15	-14.797
189.52	-23.381
189.89	-39.327
190.26	-37.593
190.63	-17.451
191.00	-42.981
191.37	-70.511
191.73	-111.215
192.10	-149.488
192.47	-85.500
192.84	-123.221
193.21	-123.573
193.58	-102.521
193.94	-119.377
194.31	-55.016
194.68	-29.043
195.05	-38.432
195.42	-28.444
195.79	-7.953
196.15	-17.089
196.52	-12.655
196.89	-35.871
197.26	-39.289
197.63	-28.710
198.00	-4.302
198.36	-30.204
198.73	-34.261
199.10	-10.334
199.47	-2.283
199.84	-15.386
200.20	-1.534
200.57	-7.405
200.94	1.800
201.31	0.096
201.68	-16.209
202.04	-12.481
202.41	0.591
202.78	1.619
203.15	-4.164
203.51	4.719
203.88	33.224
204.25	38.461
204.62	46.988
204.98	45.299
205.35	51.091
205.72	48.940
206.09	47.902
206.46	41.873
206.82	30.558
207.19	37.317
207.56	34.520
207.92	28.146
208.29	28.686
208.66	7.691
209.03	-0.212
209.39	8.072
209.76	28.425
210.13	28.096
210.50	39.472
210.86	48.127
211.23	32.777
211.60	35.824
211.96	24.883
212.33	19.395
212.70	29.069
213.07	32.375
213.43	29.240
213.80	27.769
214.17	24.908
214.53	18.964
214.90	9.305
215.27	24.484
215.63	21.829
216.00	12.349
216.37	25.353
216.74	14.818
217.10	16.975
217.47	5.291
217.84	-8.804
218.20	-4.723
218.57	-4.769
218.94	-8.821
219.30	-12.164
219.67	-5.398
220.04	2.615
220.40	-6.143
220.77	2.410
221.13	2.044
221.50	10.419
221.87	16.346
222.23	13.527
222.60	14.441
222.97	19.604
223.33	18.134
223.70	10.325
224.07	9.642
224.43	9.114
224.80	8.795
225.16	8.577
225.53	8.543
225.90	8.557
226.26	8.617
226.63	7.905
226.99	7.737
227.36	7.935
227.73	9.025
228.09	9.663
228.46	9.916
228.82	9.258
229.19	8.890
229.56	8.796
229.92	7.890
230.29	7.638
230.65	9.207
231.02	8.522
231.38	8.665
231.75	7.775
232.12	6.900
232.48	7.774
232.85	7.622
233.21	7.699
233.58	6.401
233.94	7.313
234.31	7.590
234.68	5.832
235.04	6.776
235.41	5.921
235.77	6.109
236.14	5.937
236.50	5.374
236.87	5.679
237.23	6.203
237.60	7.089
237.96	6.875
238.33	6.881
238.69	7.174
239.06	7.008
239.42	7.508
239.79	7.826
240.15	7.759
240.52	7.818
240.88	7.933
241.25	7.783
241.61	7.398
241.98	7.496
242.34	7.345
242.71	7.212
243.07	7.041
243.44	6.804
243.80	6.844
244.17	6.744
244.53	6.604
244.90	6.460
245.26	6.529
245.63	6.696
245.99	6.643
246.36	6.799
246.72	6.655
247.09	6.740
247.45	6.485
247.81	6.067
248.18	6.176
248.54	5.974
248.91	5.962
249.27	5.890
249.64	5.778
250.00	5.610
250.36	5.500
250.73	5.385
251.09	4.982
251.46	5.484
251.82	5.959
252.19	5.839
252.55	6.166
252.91	6.376
253.28	6.588
253.64	6.903
254.01	7.142
254.37	6.911
254.73	7.018
255.10	7.346
255.46	7.250
255.83	7.302
256.19	7.244
256.55	7.122
256.92	7.222
257.28	6.945
257.65	6.681
258.01	6.574
258.37	6.531
258.74	6.663
259.10	6.466
259.46	6.476
259.83	6.255
260.19	6.175
260.55	6.145
260.92	5.954
261.28	6.151
261.64	6.343
262.01	6.242
262.37	6.339
262.73	6.092
263.10	6.236
263.46	6.355
263.82	6.638
264.19	6.564
264.55	6.669
264.91	6.608
265.28	6.447
265.64	6.445
266.00	6.654
266.37	6.762
266.73	7.033
267.09	7.065
267.46	6.875
267.82	6.868
268.18	6.914
268.54	6.830
268.91	6.698
269.27	6.461
269.63	6.328
270.00	6.113
270.36	5.789
270.72	5.555
271.08	5.617
271.45	5.577
271.81	5.387
272.17	5.384
272.53	5.547
272.90	5.680
273.26	5.748
273.62	5.789
273.98	6.019
274.35	6.179
274.71	6.367
275.07	6.181
275.43	6.222
275.80	6.445
276.16	6.503
276.52	6.529
276.88	6.185
277.25	6.217
277.61	6.203
277.97	6.118
278.33	6.122
278.69	6.140
279.06	6.231
279.42	5.971
279.78	5.790
280.14	6.070
280.50	5.914
280.87	6.128
281.23	6.124
281.59	6.218
281.95	6.166
282.31	6.104
282.68	6.005
283.04	5.946
283.40	6.136
283.76	6.191
284.12	5.909
284.48	5.888
284.85	5.836
285.21	5.997
285.57	5.839
285.93	5.863
286.29	5.946
286.65	5.869
287.02	5.923
287.38	5.855
287.74	5.886
288.10	5.898
288.46	5.856
288.82	5.973
289.18	5.731
289.54	5.857
289.91	5.814
290.27	5.768
290.63	5.913
290.99	5.905
291.35	5.944
291.71	5.950
292.07	6.119
292.43	6.103
292.79	5.863
293.16	5.867
293.52	5.774
293.88	5.843
294.24	5.921
294.60	5.875
294.96	5.923
295.32	6.006
295.68	5.960
296.04	5.892
296.40	5.903
296.76	5.983
297.12	6.102
297.49	6.034
297.85	5.928
298.21	5.871
298.57	6.029
298.93	5.984
299.29	6.058
299.65	6.032
300.01	5.973
300.37	6.061
300.73	6.106
301.09	6.035
301.45	6.182
301.81	6.260
302.17	6.382
302.53	6.206
302.89	6.276
303.25	6.127
303.61	6.138
303.97	6.120
304.33	6.105
304.69	6.224
305.05	6.150
305.41	5.938
305.77	5.978
306.13	5.865
306.49	5.914
306.85	5.899
307.21	5.920
307.57	5.969
307.93	6.013
308.29	5.930
308.65	5.902
309.01	5.923
309.37	6.105
309.73	6.049
310.09	6.085
310.45	6.015
310.81	5.946
311.17	5.893
311.53	5.897
311.89	5.841
312.25	5.862
312.61	5.794
312.96	5.811
313.32	5.738
313.68	5.744
314.04	5.650
314.40	5.598
314.76	5.626
315.12	5.669
315.48	5.611
315.84	5.648
316.20	5.678
316.56	5.629
316.92	5.636
317.27	5.637
317.63	5.665
317.99	5.622
318.35	5.711
318.71	5.818
319.07	5.933
319.43	6.030
319.79	6.052
320.15	5.966
320.50	6.031
320.86	5.974
321.22	5.938
321.58	5.897
321.94	5.916
322.30	5.931
322.66	5.781
323.01	5.663
323.37	5.629
323.73	5.541
324.09	5.522
324.45	5.601
324.81	5.674
325.17	5.729
325.52	5.733
325.88	5.781
326.24	5.689
326.60	5.750
326.96	5.717
327.31	5.667
327.67	5.710
328.03	5.789
328.39	5.687
328.75	5.646
329.11	5.590
329.46	5.641
329.82	5.661
330.18	5.743
330.54	5.670
330.90	5.819
331.25	5.714
331.61	5.786
331.97	5.756
332.33	5.857
332.68	5.912
333.04	5.919
333.40	5.989
333.76	5.982
334.11	5.985
334.47	5.999
334.83	5.911
335.19	6.039
335.54	6.034
335.90	6.101
336.26	6.055
336.62	5.988
336.97	6.029
337.33	5.942
337.69	5.939
338.05	5.899
338.40	5.949
338.76	5.959
339.12	5.942
339.48	5.897
339.83	5.841
340.19	5.761
340.55	5.790
340.90	5.829
341.26	5.801
341.62	5.810
341.97	5.911
342.33	5.978
342.69	5.969
343.04	5.910
343.40	5.975
343.76	6.069
344.12	6.175
344.47	6.192
344.83	6.148
345.19	6.224
345.54	6.269
345.90	6.264
346.26	6.304
346.61	6.254
346.97	6.389
347.32	6.377
347.68	6.389
348.04	6.347
348.39	6.401
348.75	6.447
349.11	6.494
349.46	6.469
349.82	6.522
350.18	6.448
350.53	6.597
350.89	6.625
351.24	6.608
351.60	6.583
351.96	6.667
352.31	6.740
352.67	6.766
353.02	6.745
353.38	6.752
353.74	6.797
354.09	6.848
354.45	6.893
354.80	6.837
355.16	6.925
355.52	6.884
355.87	6.887
356.23	6.824
356.58	6.853
356.94	6.886
357.29	6.995
357.65	6.966
358.00	6.993
358.36	6.920
358.72	6.933
359.07	6.900
359.43	7.002
359.78	6.990
360.14	7.033
360.49	6.988
360.85	6.993
361.20	6.934
361.56	6.923
361.91	6.880
362.27	6.915
362.62	6.943
362.98	7.024
363.33	7.041
363.69	7.058
364.04	7.029
364.40	7.103
364.75	7.141
365.11	7.181
365.46	7.216
365.82	7.282
366.17	7.327
366.53	7.363
366.88	7.345
367.24	7.304
367.59	7.301
367.95	7.349
368.30	7.367
368.66	7.392
369.01	7.412
369.37	7.447
369.72	7.478
370.08	7.553
370.43	7.600
370.78	7.661
371.14	7.754
371.49	7.811
371.85	7.818
372.20	7.886
372.56	7.892
372.91	7.892
373.26	7.888
373.62	7.956
373.97	7.907
374.33	7.888
374.68	7.863
375.03	7.841
375.39	7.825
375.74	7.888
376.10	7.893
376.45	7.939
376.80	7.999
377.16	8.059
377.51	8.026
377.87	8.081
378.22	8.116
378.57	8.180
378.93	8.187
379.28	8.311
379.63	8.306
379.99	8.327
380.34	8.335
380.70	8.405
381.05	8.420
381.40	8.480
381.76	8.530
382.11	8.574
382.46	8.592
382.82	8.660
383.17	8.699
383.52	8.733
383.88	8.741
384.23	8.758
384.58	8.741
384.94	8.747
385.29	8.704
385.64	8.676
385.99	8.700
386.35	8.663
386.70	8.636
387.05	8.578
387.41	8.582
387.76	8.610
388.11	8.622
388.47	8.638
388.82	8.687
389.17	8.768
389.52	8.787
389.88	8.802
390.23	8.859
390.58	8.891
390.93	8.935
391.29	9.004
391.64	9.010
391.99	9.089
392.34	9.106
392.70	9.101
393.05	9.071
393.40	9.083
393.75	9.082
394.11	9.085
394.46	9.110
394.81	9.104
395.16	9.062
395.52	9.037
395.87	8.952
396.22	8.914
396.57	8.891
396.92	8.876
397.28	8.853
397.63	8.834
397.98	8.791
398.33	8.745
398.68	8.742
399.04	8.727
399.39	8.721
399.74	8.706
400.09	8.705
400.44	8.703
400.80	8.710
401.15	8.713
401.50	8.744
401.85	8.757
402.20	8.813
402.55	8.820
402.90	8.833
403.26	8.867
403.61	8.907
403.96	8.934
404.31	8.949
404.66	8.953
405.01	8.971
405.36	8.913
405.72	8.914
406.07	8.899
406.42	8.877
406.77	8.905
407.12	8.889
407.47	8.900
407.82	8.879
408.17	8.917
408.53	8.931
408.88	8.965
409.23	8.989
409.58	8.972
409.93	8.926
410.28	8.951
410.63	8.917
410.98	8.893
411.33	8.882
411.68	8.897
412.03	8.883
412.38	8.911
412.73	8.928
413.09	8.982
413.44	9.035
413.79	9.118
414.14	9.171
414.49	9.219
414.84	9.301
415.19	9.354
415.54	9.415
415.89	9.481
416.24	9.518
416.59	9.547
416.94	9.600
417.29	9.634
417.64	9.681
417.99	9.699
418.34	9.732
418.69	9.766
419.04	9.791
419.39	9.833
419.74	9.850
420.09	9.887
420.44	9.918
420.79	9.937
421.14	9.975
421.49	9.979
421.84	10.006
422.19	10.014
422.54	10.006
422.89	10.005
423.24	9.994
423.59	9.961
423.94	9.948
424.29	9.935
424.64	9.922
424.99	9.883
425.34	9.861
425.68	9.814
426.03	9.807
426.38	9.787
426.73	9.777
427.08	9.769
427.43	9.781
427.78	9.792
428.13	9.800
428.48	9.805
428.83	9.835
429.18	9.896
429.53	9.946
429.87	9.955
430.22	9.966
430.57	9.997
430.92	10.013
431.27	10.062
431.62	10.067
431.97	10.079
432.32	10.076
432.67	10.069
433.01	10.028
433.36	10.020
433.71	10.032
434.06	10.048
434.41	10.046
434.76	10.050
435.11	10.036
435.45	10.060
435.80	10.097
436.15	10.153
436.50	10.215
436.85	10.268
437.20	10.287
437.54	10.310
437.89	10.349
438.24	10.369
438.59	10.387
438.94	10.392
439.29	10.387
439.63	10.364
439.98	10.343
440.33	10.343
440.68	10.354
441.03	10.371
441.37	10.387
441.72	10.405
442.07	10.453
442.42	10.472
442.76	10.506
443.11	10.565
443.46	10.611
443.81	10.640
444.16	10.646
444.50	10.653
444.85	10.654
445.20	10.671
445.55	10.651
445.89	10.612
446.24	10.584
446.59	10.568
446.94	10.517
447.28	10.455
447.63	10.425
447.98	10.403
448.32	10.378
448.67	10.362
449.02	10.333
449.37	10.333
449.71	10.358
450.06	10.370
450.41	10.391
450.75	10.406
451.10	10.434
451.45	10.451
451.79	10.466
452.14	10.467
452.49	10.458
452.84	10.474
453.18	10.498
453.53	10.513
453.88	10.547
454.22	10.551
454.57	10.583
454.92	10.639
455.26	10.655
455.61	10.720
455.95	10.787
456.30	10.881
456.65	10.916
456.99	10.960
457.34	10.998
457.69	11.019
458.03	11.042
458.38	11.053
458.73	11.025
459.07	11.061
459.42	11.033
459.76	11.000
460.11	10.949
460.46	10.901
460.80	10.859
461.15	10.810
461.49	10.786
461.84	10.766
462.19	10.764
462.53	10.819
462.88	10.809
463.22	10.815
463.57	10.845
463.91	10.842
464.26	10.884
464.61	10.890
464.95	10.923
465.30	10.951
465.64	10.972
465.99	10.970
466.33	10.957
466.68	10.954
467.02	10.949
467.37	10.928
467.71	10.957
468.06	10.961
468.41	10.961
468.75	10.959
469.10	10.917
469.44	10.940
469.79	10.909
470.13	10.896
470.48	10.857
470.82	10.856
471.17	10.869
471.51	10.870
471.86	10.862
472.20	10.872
472.55	10.892
472.89	10.908
473.23	10.866
473.58	10.885
473.92	10.921
474.27	10.982
474.61	11.004
474.96	11.010
475.30	11.033
475.65	11.051
475.99	11.075
476.34	11.081
476.68	11.116
477.02	11.158
477.37	11.194
477.71	11.211
478.06	11.268
478.40	11.374
478.75	11.532
479.09	11.696
479.43	11.894
479.78	12.132
480.12	12.371
480.47	12.627
480.81	12.889
481.15	13.158
481.50	13.412
481.84	13.709
482.19	14.028
482.53	14.298
482.87	14.481
483.22	14.533
483.56	14.438
483.90	14.258
484.25	13.999
484.59	13.699
484.94	13.454
485.28	13.260
485.62	12.990
485.97	12.675
486.31	12.395
486.65	12.193
487.00	12.100
487.34	12.110
487.68	12.178
488.03	12.313
488.37	12.460
488.71	12.522
489.06	12.505
489.40	12.467
489.74	12.440
490.09	12.404
490.43	12.350
490.77	12.305
491.11	12.270
491.46	12.232
491.80	12.177
492.14	12.132
492.49	12.066
492.83	12.008
493.17	11.963
493.51	11.905
493.86	11.862
494.20	11.826
494.54	11.828
494.88	11.836
495.23	11.857
495.57	11.877
495.91	11.891
496.25	11.907
496.60	11.921
496.94	11.939
497.28	11.943
497.62	11.959
497.97	11.977
498.31	11.974
498.65	11.974
498.99	11.980
499.33	11.977
499.68	11.978
500.02	12.022
500.36	12.045
500.70	12.072
501.04	12.124
501.39	12.132
501.73	12.156
502.07	12.176
502.41	12.200
502.75	12.232
503.09	12.270
503.44	12.327
503.78	12.346
504.12	12.394
504.46	12.423
504.80	12.441
505.14	12.494
505.49	12.552
505.83	12.583
506.17	12.629
506.51	12.663
506.85	12.713
507.19	12.742
507.53	12.786
507.87	12.812
508.22	12.851
508.56	12.865
508.90	12.877
509.24	12.877
509.58	12.904
509.92	12.922
510.26	12.959
510.60	12.968
510.94	12.968
511.28	12.975
511.63	13.003
511.97	13.031
512.31	13.093
512.65	13.139
512.99	13.230
513.33	13.325
513.67	13.393
514.01	13.443
514.35	13.508
514.69	13.615
515.03	13.707
515.37	13.764
515.71	13.844
516.05	13.899
516.39	13.964
516.73	13.987
517.07	14.019
517.41	14.055
517.75	14.089
518.09	14.121
518.43	14.116
518.77	14.125
519.11	14.141
519.45	14.140
519.79	14.161
520.13	14.164
520.47	14.185
520.81	14.201
521.15	14.241
521.49	14.277
521.83	14.321
522.17	14.363
522.51	14.420
522.85	14.516
523.19	14.623
523.53	14.761
523.87	14.945
524.21	15.131
524.55	15.303
524.89	15.444
525.23	15.578
525.57	15.699
525.91	15.834
526.25	15.940
526.58	16.027
526.92	16.114
527.26	16.184
527.60	16.197
527.94	16.194
528.28	16.188
528.62	16.186
528.96	16.177
529.30	16.146
529.64	16.109
529.97	16.067
530.31	16.032
530.65	15.987
530.99	15.942
531.33	15.933
531.67	15.929
532.01	15.941
532.35	15.935
532.68	15.906
533.02	15.917
533.36	15.905
533.70	15.906
534.04	15.893
534.38	15.881
534.71	15.853
535.05	15.828
535.39	15.816
535.73	15.790
536.07	15.796
536.41	15.855
536.74	15.902
537.08	15.970
537.42	16.029
537.76	16.094
538.10	16.166
538.43	16.253
538.77	16.333
539.11	16.406
539.45	16.462
539.79	16.506
540.12	16.543
540.46	16.579
540.80	16.572
541.14	16.591
541.47	16.586
541.81	16.598
542.15	16.578
542.49	16.573
542.82	16.534
543.16	16.515
543.50	16.483
543.84	16.449
544.17	16.434
544.51	16.439
544.85	16.413
545.18	16.415
545.52	16.359
545.86	16.346
546.20	16.321
546.53	16.325
546.87	16.324
547.21	16.308
547.54	16.321
547.88	16.314
548.22	16.318
548.55	16.359
548.89	16.373
549.23	16.426
549.56	16.463
549.90	16.459
550.24	16.477
550.57	16.496
550.91	16.545
551.25	16.571
551.58	16.557
551.92	16.575
552.26	16.568
552.59	16.573
552.93	16.573
553.27	16.574
553.60	16.627
553.94	16.645
554.27	16.647
554.61	16.654
554.95	16.633
555.28	16.668
555.62	16.691
555.95	16.691
556.29	16.732
556.63	16.763
556.96	16.793
557.30	16.805
557.63	16.847
557.97	16.859
558.31	16.888
558.64	16.916
558.98	16.938
559.31	16.955
559.65	17.007
559.98	17.013
560.32	17.057
560.65	17.087
560.99	17.099
561.33	17.096
561.66	17.146
562.00	17.191
562.33	17.220
562.67	17.269
563.00	17.308
563.34	17.316
563.67	17.341
564.01	17.367
564.34	17.376
564.68	17.411
565.01	17.451
565.35	17.460
565.68	17.458
566.02	17.501
566.35	17.501
566.69	17.517
567.02	17.536
567.36	17.568
567.69	17.573
568.03	17.587
568.36	17.598
568.69	17.621
569.03	17.613
569.36	17.637
569.70	17.638
570.03	17.647
570.37	17.653
570.70	17.692
571.04	17.703
571.37	17.719
571.70	17.747
572.04	17.781
572.37	17.796
572.71	17.830
573.04	17.852
573.37	17.836
573.71	17.848
574.04	17.890
574.38	17.905
574.71	17.902
575.04	17.900
575.38	17.920
575.71	17.904
576.05	17.934
576.38	17.927
576.71	17.927
577.05	17.969
577.38	18.002
577.71	17.971
578.05	17.940
578.38	17.955
578.71	17.955
579.05	17.934
579.38	17.958
579.71	17.938
580.05	18.008
580.38	18.016
580.71	18.015
581.05	18.015
581.38	18.064
581.71	18.106
582.05	18.150
582.38	18.215
582.71	18.258
583.04	18.285
583.38	18.292
583.71	18.274
584.04	18.317
584.38	18.373
584.71	18.402
585.04	18.404
585.37	18.458
585.71	18.462
586.04	18.460
586.37	18.507
586.70	18.493
587.04	18.547
587.37	18.595
587.70	18.608
588.03	18.603
588.37	18.636
588.70	18.661
589.03	18.650
589.36	18.662
589.69	18.677
590.03	18.663
590.36	18.694
590.69	18.715
591.02	18.703
591.35	18.740
591.69	18.804
592.02	18.816
592.35	18.860
592.68	18.895
593.01	18.960
593.35	19.019
593.68	19.072
594.01	19.137
594.34	19.132
594.67	19.181
595.00	19.197
595.34	19.215
595.67	19.236
596.00	19.241
596.33	19.244
596.66	19.235
596.99	19.226
597.32	19.240
597.65	19.232
597.99	19.260
598.32	19.239
598.65	19.254
598.98	19.254
599.31	19.264
599.64	19.337
599.97	19.341
600.30	19.355
600.63	19.376
600.96	19.381
601.30	19.401
601.63	19.433
601.96	19.489
602.29	19.496
602.62	19.553
602.95	19.595
603.28	19.566
603.61	19.610
603.94	19.651
604.27	19.674
604.60	19.699
604.93	19.737
605.26	19.766
605.59	19.761
605.92	19.815
606.25	19.755
606.58	19.767
606.91	19.803
607.24	19.844
607.57	19.836
607.90	19.842
608.23	19.854
608.56	19.841
608.89	19.832
609.22	19.875
609.55	19.879
609.88	19.951
610.21	19.954
610.54	19.969
610.87	19.929
611.20	19.933
611.53	19.925
611.86	19.958
612.19	19.975
612.52	19.987
612.85	19.999
613.18	19.980
613.51	19.970
613.84	19.987
614.17	20.008
614.49	20.048
614.82	20.133
615.15	20.174
615.48	20.151
615.81	20.153
616.14	20.200
616.47	20.169
616.80	20.168
617.13	20.225
617.46	20.253
617.78	20.287
618.11	20.318
618.44	20.268
618.77	20.292
619.10	20.339
619.43	20.413
619.76	20.413
620.09	20.452
620.41	20.475
620.74	20.451
621.07	20.506
621.40	20.524
621.73	20.573
622.06	20.666
622.38	20.739
622.71	20.803
623.04	20.793
623.37	20.808
623.70	20.846
624.02	20.970
624.35	20.986
624.68	20.997
625.01	21.036
625.34	21.045
625.66	21.067
625.99	21.085
626.32	21.073
626.65	21.101
626.98	21.139
627.30	21.157
627.63	21.133
627.96	21.155
628.29	21.190
628.61	21.226
628.94	21.279
629.27	21.288
629.60	21.314
629.92	21.333
630.25	21.371
630.58	21.392
630.91	21.433
631.23	21.444
631.56	21.526
631.89	21.486
632.21	21.485
632.54	21.475
632.87	21.455
633.19	21.450
633.52	21.467
633.85	21.485
634.18	21.493
634.50	21.472
634.83	21.473
635.16	21.452
635.48	21.480
635.81	21.473
636.14	21.451
636.46	21.451
636.79	21.420
637.11	21.417
637.44	21.401
637.77	21.424
638.09	21.448
638.42	21.437
638.75	21.414
639.07	21.429
639.40	21.378
639.73	21.402
640.05	21.420
640.38	21.421
640.70	21.441
641.03	21.450
641.36	21.501
641.68	21.505
642.01	21.537
642.33	21.552
642.66	21.523
642.98	21.544
643.31	21.525
643.64	21.545
643.96	21.574
644.29	21.599
644.61	21.636
644.94	21.592
645.26	21.596
645.59	21.541
645.91	21.586
646.24	21.612
646.56	21.623
646.89	21.682
647.22	21.678
647.54	21.666
647.87	21.648
648.19	21.649
648.52	21.647
648.84	21.655
649.17	21.713
649.49	21.654
649.82	21.722
650.14	21.761
650.47	21.730
650.79	21.715
651.11	21.723
651.44	21.745
651.76	21.764
652.09	21.786
652.41	21.816
652.74	21.818
653.06	21.855
653.39	21.825
653.71	21.848
654.04	21.901
654.36	21.980
654.68	22.020
655.01	22.049
655.33	21.988
655.66	21.966
655.98	21.962
656.30	21.971
656.63	22.011
656.95	22.025
657.28	22.059
657.60	22.050
657.92	22.007
658.25	22.006
658.57	21.948
658.90	21.982
659.22	21.985
659.54	21.959
659.87	21.894
660.19	21.830
660.51	21.745
660.84	21.656
661.16	21.613
661.48	21.522
661.81	21.455
662.13	21.419
662.45	21.342
662.78	21.287
663.10	21.228
663.42	21.277
663.75	21.259
664.07	21.240
664.39	21.142
664.72	21.082
665.04	21.165
665.36	21.160
665.69	21.157
666.01	21.121
666.33	21.115
666.65	21.119
666.98	21.067
667.30	21.059
667.62	20.961
667.94	21.030
668.27	21.022
668.59	20.995
668.91	20.962
669.23	20.959
669.56	21.002
669.88	20.975
670.20	20.940
670.52	20.969
670.85	20.977
671.17	21.084
671.49	21.035
671.81	21.064
672.13	21.024
672.46	21.063
672.78	21.082
673.10	21.137
673.42	21.139
673.74	21.184
674.07	21.157
674.39	21.183
674.71	21.248
675.03	21.285
675.35	21.303
675.67	21.442
676.00	21.512
676.32	21.600
676.64	21.585
676.96	21.700
677.28	21.780
677.60	21.835
677.92	21.896
678.25	21.930
678.57	22.006
678.89	22.089
679.21	22.076
679.53	22.078
679.85	22.129
680.17	22.176
680.49	22.204
680.81	22.233
681.13	22.316
681.46	22.377
681.78	22.435
682.10	22.490
682.42	22.532
682.74	22.636
683.06	22.828
683.38	22.909
683.70	23.031
684.02	23.144
684.34	23.272
684.66	23.445
684.98	23.596
685.30	23.758
685.62	23.926
685.94	24.048
686.26	24.123
686.58	24.184
686.90	24.280
687.22	24.458
687.54	24.497
687.86	24.581
688.18	24.629
688.50	24.621
688.82	24.684
689.14	24.808
689.46	24.943
689.78	25.139
690.10	25.199
690.42	25.306
690.74	25.276
691.06	25.405
691.38	25.511
691.70	25.638
692.02	25.755
692.34	25.846
692.66	25.865
692.98	25.880
693.30	25.966
693.62	26.030
693.94	26.153
694.26	26.371
694.57	26.591
694.89	26.785
695.21	26.885
695.53	27.044
695.85	27.118
696.17	27.283
696.49	27.452
696.81	27.624
697.13	27.819
697.44	27.921
697.76	27.952
698.08	27.985
698.40	27.960
698.72	28.009
699.04	28.062
699.36	28.117
699.67	28.077
699.99	28.022
700.31	27.848
700.63	27.772
700.95	27.688
701.27	27.635
701.58	27.406
701.90	27.311
702.22	27.196
702.54	27.020
702.86	26.999
703.17	27.012
703.49	27.084
703.81	27.046
704.13	26.972
704.45	27.054
704.76	27.014
705.08	27.211
705.40	27.302
705.72	27.356
706.03	27.523
706.35	27.581
706.67	27.630
706.99	27.618
707.30	27.740
707.62	27.842
707.94	27.809
708.26	27.955
708.57	28.008
708.89	28.125
709.21	28.222
709.53	28.311
709.84	28.294
710.16	28.345
710.48	28.449
710.79	28.567
711.11	28.566
711.43	28.665
711.74	28.932
712.06	29.148
712.38	29.316
712.69	29.492
713.01	29.665
713.33	29.922
713.64	30.223
713.96	30.443
714.28	30.758
714.59	31.124
714.91	31.357
715.23	31.506
715.54	31.702
715.86	31.951
716.17	32.100
716.49	32.155
716.81	32.267
717.12	32.295
717.44	32.322
717.76	32.134
718.07	32.042
718.39	31.992
718.70	31.805
719.02	31.640
719.33	31.353
719.65	31.356
719.97	31.368
720.28	31.372
720.60	31.301
720.91	31.485
721.23	31.639
721.54	31.756
721.86	31.819
722.17	32.038
722.49	32.160
722.81	32.340
723.12	32.311
723.44	32.485
723.75	32.537
724.07	32.619
724.38	32.552
724.70	32.507
725.01	32.508
725.33	32.756
725.64	32.688
725.96	32.945
726.27	32.980
726.59	33.129
726.90	33.164
727.22	33.184
727.53	33.282
727.84	33.423
728.16	33.484
728.47	33.615
728.79	33.415
729.10	33.445
729.42	33.215
729.73	33.122
730.05	32.948
730.36	32.744
730.67	32.636
730.99	32.460
731.30	32.142
731.62	32.018
731.93	31.879
732.24	31.793
732.56	31.565
732.87	31.455
733.19	31.210
733.50	31.103
733.81	30.932
734.13	30.963
734.44	30.699
734.76	30.611
735.07	30.465
735.38	30.199
735.70	30.077
736.01	29.844
736.32	29.683
736.64	29.815
736.95	29.628
737.26	29.444
737.58	29.142
737.89	29.052
738.20	28.808
738.52	28.780
738.83	28.439
739.14	28.187
739.45	28.077
739.77	27.766
740.08	27.099
740.39	26.796
740.71	26.670
741.02	26.383
741.33	26.180
741.64	25.921
741.96	25.280
742.27	25.127
742.58	24.895
742.90	24.739
743.21	24.506
743.52	24.603
743.83	24.719
744.14	24.532
744.46	24.256
744.77	24.343
745.08	24.297
745.39	24.595
745.71	24.499
746.02	24.645
746.33	24.963
746.64	25.111
746.95	25.280
747.27	25.192
747.58	25.382
747.89	25.533
748.20	25.483
748.51	25.622
748.82	25.527
749.14	25.626
749.45	25.541
749.76	25.037
750.07	24.829
750.38	24.476
750.69	24.258
751.01	24.375
751.32	24.231
751.63	24.054
751.94	24.002
752.25	24.158
752.56	24.209
752.87	24.230
753.18	24.368
753.49	24.545
753.81	24.843
754.12	25.260
754.43	25.102
754.74	25.906
755.05	26.847
755.36	27.834
755.67	28.366
755.98	29.512
756.29	30.390
756.60	31.894
756.91	32.954
757.22	34.165
757.53	35.361
757.84	36.669
758.15	37.846
758.46	38.562
758.77	39.324
759.09	40.227
759.40	40.731
759.71	41.315
760.02	41.396
760.33	41.727
760.64	41.863
760.95	41.972
761.26	42.024
761.57	41.825
761.88	41.741
762.18	41.459
762.49	41.200
762.80	40.869
763.11	40.311
763.42	39.914
763.73	39.187
764.04	38.583
764.35	37.681
764.66	36.782
764.97	35.861
765.28	34.655
765.59	33.534
765.90	32.180
766.21	30.740
766.52	29.791
766.83	28.575
767.14	27.729
767.44	26.745
767.75	25.962
768.06	24.860
768.37	24.119
768.68	23.548
768.99	22.601
769.30	21.851
769.61	21.494
769.91	20.937
770.22	20.592
770.53	20.161
770.84	19.551
771.15	19.190
771.46	19.167
771.77	18.520
772.07	18.585
772.38	18.595
772.69	18.630
773.00	18.516
773.31	18.434
773.61	17.946
773.92	18.141
774.23	18.559
774.54	18.535
774.85	18.627
775.15	18.874
775.46	18.688
775.77	19.052
776.08	19.511
776.39	19.618
776.69	19.694
777.00	19.897
777.31	19.981
777.62	20.270
777.92	20.700
778.23	20.503
778.54	20.571
778.85	20.756
779.15	20.899
779.46	20.627
779.77	20.223
780.07	19.925
780.38	19.882
780.69	20.025
781.00	19.447
781.30	19.210
781.61	19.819
781.92	19.682
782.22	19.704
782.53	19.518
782.84	19.874
783.14	20.868
783.45	21.430
783.76	22.468
784.06	22.961
784.37	23.830
784.68	24.988
784.98	25.752
785.29	26.951
785.60	27.747
785.90	28.645
786.21	28.974
786.51	29.556
786.82	30.627
787.13	30.875
787.43	31.231
787.74	31.942
788.04	31.729
788.35	31.586
788.66	31.250
788.96	31.087
789.27	31.146
789.57	31.418
789.88	30.989
790.19	30.277
790.49	29.931
790.80	29.536
791.10	29.134
791.41	29.116
791.71	29.302
792.02	29.678
792.32	30.267
792.63	30.046
792.93	30.012
793.24	30.488
793.54	31.307
793.85	32.042
794.15	32.825
794.46	33.093
794.76	33.010
795.07	32.679
795.37	32.876
795.68	33.426
795.98	33.949
796.29	34.172
796.59	34.295
796.90	34.188
797.20	34.187
797.51	34.219
797.81	34.182
798.12	34.649
798.42	35.015
798.72	35.658
799.03	35.171
799.33	34.664
799.64	34.622
799.94	34.579
800.25	34.621
800.55	34.604
800.85	34.091
801.16	33.894
801.46	34.218
801.77	34.571
802.07	33.908
802.37	33.740
802.68	34.051
802.98	33.971
803.28	33.739
803.59	33.410
803.89	33.379
804.20	33.109
804.50	33.453
804.80	33.138
805.11	32.703
805.41	32.690
805.71	32.709
806.02	33.022
806.32	32.943
806.62	33.057
806.93	33.259
807.23	33.168
807.53	33.981
807.83	33.420
808.14	33.570
808.44	34.406
808.74	34.286
809.05	34.963
809.35	35.238
809.65	35.679
809.95	36.228
810.26	36.697
810.56	37.669
810.86	37.758
811.16	38.205
811.47	38.858
811.77	39.132
812.07	40.081
812.37	40.297
812.68	40.279
812.98	40.921
813.28	41.295
813.58	41.967
813.88	42.392
814.19	42.963
814.49	44.226
814.79	44.750
815.09	45.434
815.39	45.497
815.70	46.208
816.00	46.621
816.30	46.983
816.60	47.510
816.90	47.697
817.20	47.771
817.50	48.700
817.81	48.850
818.11	49.352
818.41	49.460
818.71	50.018
819.01	50.319
819.31	50.816
819.61	51.218
819.92	51.578
820.22	51.563
820.52	51.771
820.82	51.771
821.12	51.909
821.42	51.957
821.72	52.034
822.02	52.031
822.32	52.006
822.62	51.961
822.92	51.849
823.22	51.625
823.52	51.703
823.83	51.724
824.13	51.576
824.43	51.602
824.73	51.646
825.03	51.835
825.33	51.905
825.63	51.942
825.93	52.026
826.23	52.042
826.53	52.183
826.83	52.084
827.13	51.710
827.43	51.865
827.73	51.477
828.03	51.042
828.33	50.483
828.63	49.903
828.93	49.565
829.23	48.874
829.53	48.762
829.83	48.597
830.13	48.704
830.42	48.866
830.72	48.787
831.02	49.626
831.32	50.076
831.62	50.511
831.92	50.898
832.22	51.059
832.52	51.373
832.82	51.218
833.12	51.095
833.42	51.041
833.72	50.994
834.01	51.125
834.31	51.238
834.61	50.981
834.91	50.604
835.21	50.170
835.51	49.951
835.81	49.467
836.11	49.008
836.40	48.463
836.70	48.142
837.00	47.373
837.30	45.983
837.60	43.918
837.90	43.667
838.19	44.078
838.49	44.292
838.79	44.011
839.09	43.917
839.39	43.604
839.68	42.725
839.98	42.008
840.28	41.636
840.58	41.991
840.88	40.689
841.17	40.216
841.47	37.996
841.77	36.832
842.07	34.944
842.36	33.181
842.66	31.194
842.96	29.750
843.26	29.431
843.55	28.789
843.85	27.550
844.15	28.512
844.45	26.094
844.74	26.299
845.04	26.424
845.34	25.960
845.63	25.510
845.93	25.131
846.23	24.625
846.53	21.326
846.82	18.603
847.12	18.158
847.42	19.262
847.71	19.143
848.01	18.204
848.31	17.082
848.60	19.718
848.90	19.308
849.19	21.742
849.49	21.455
849.79	21.170
850.08	19.860
850.38	20.849
850.68	19.975
850.97	21.557
851.27	23.954
851.56	22.812
851.86	22.772
852.16	22.212
852.45	17.969
852.75	19.780
853.04	20.279
853.34	25.981
853.64	23.567
853.93	22.598
854.23	22.711
854.52	21.173
854.82	23.714
855.11	25.529
855.41	28.342
855.70	31.111
856.00	33.958
856.30	31.447
856.59	30.373
856.89	30.930
857.18	31.691
857.48	29.669
857.77	29.603
858.07	29.197
858.36	25.525
858.66	23.040
858.95	22.975
859.25	20.764
859.54	23.465
859.84	22.907
860.13	25.981
860.42	26.298
860.72	24.893
861.01	21.778
861.31	20.893
861.60	21.736
861.90	21.930
862.19	22.546
862.49	24.482
862.78	28.077
863.07	30.054
863.37	30.990
863.66	32.954
863.96	35.660
864.25	40.014
864.54	39.212
864.84	38.342
865.13	40.481
865.43	39.662
865.72	36.445
866.01	8.714
866.31	23.170
866.60	43.788
866.89	33.478
>>>>>End Spectral Data<<<<<
