OOIBase32 Version 2.0.0.6 Data File
++++++++++++++++++++++++++++++++++++
Date: 01-20-2012, 22:27:25
User: Valued Ocean Optics Customer
Spectrometer Serial Number: USB2E2917
Spectrometer Channel: Master
Integration Time (msec): 4
Spectra Averaged: 10
Boxcar Smoothing: 5
Correct for Electrical Dark: Enabled
Time Normalized: Disabled
Dual-beam Reference: Disabled
Reference Channel: Master
Temperature: Not acquired
Spectrometer Type: S2000
ADC Type: USB2000
Number of Pixels in File: 2048
Graph Title: 
>>>>>Begin Spectral Data<<<<<
180.30	0.000
180.67	0.000
181.03	197.012
181.40	1.423
181.77	130.808
182.14	244.981
182.51	41.688
182.88	13.778
183.25	2.835
183.62	114.392
183.99	166.637
184.36	-35.886
184.73	175.411
185.10	116.811
185.46	83.411
185.83	51.201
186.20	-13.694
186.57	90.288
186.94	113.038
187.31	-35.886
187.68	-3072.167
188.05	-150.546
188.42	-96.056
188.78	27.451
189.15	36.974
189.52	24.913
189.89	-2.567
190.26	11.709
190.63	20.192
191.00	10.469
191.37	-19.436
191.73	-27.985
192.10	-31.305
192.47	-7.985
192.84	-56.526
193.21	-93.003
193.58	-114.187
193.94	-124.273
194.31	-104.065
194.68	-65.833
195.05	-69.187
195.42	-36.630
195.79	-29.088
196.15	-30.812
196.52	-39.750
196.89	-55.338
197.26	-46.198
197.63	-30.505
198.00	-21.721
198.36	-25.074
198.73	-25.240
199.10	-12.380
199.47	-8.068
199.84	-13.635
200.20	-18.143
200.57	-22.244
200.94	-32.815
201.31	-34.333
201.68	-36.248
202.04	-37.476
202.41	-42.744
202.78	-43.301
203.15	-61.399
203.51	-74.535
203.88	-47.506
204.25	-36.325
204.62	-22.270
204.98	3.268
205.35	1.967
205.72	5.836
206.09	-0.350
206.46	-8.338
206.82	-11.353
207.19	4.472
207.56	6.609
207.92	19.251
208.29	20.508
208.66	2.866
209.03	-0.389
209.39	12.288
209.76	13.892
210.13	18.145
210.50	19.128
210.86	17.376
211.23	12.314
211.60	16.722
211.96	1.192
212.33	1.722
212.70	11.532
213.07	11.020
213.43	0.381
213.80	3.403
214.17	13.460
214.53	12.837
214.90	1.619
215.27	13.056
215.63	6.187
216.00	3.681
216.37	11.009
216.74	7.001
217.10	-0.907
217.47	-12.480
217.84	-25.006
218.20	-32.131
218.57	-30.363
218.94	-22.298
219.30	-27.555
219.67	-21.676
220.04	-17.562
220.40	-26.198
220.77	-26.518
221.13	-24.781
221.50	-10.318
221.87	-2.334
222.23	-4.032
222.60	-2.824
222.97	-0.613
223.33	3.260
223.70	2.150
224.07	4.268
224.43	6.872
224.80	6.602
225.16	6.751
225.53	4.725
225.90	3.923
226.26	4.866
226.63	4.252
226.99	3.127
227.36	3.977
227.73	4.732
228.09	4.572
228.46	4.273
228.82	3.980
229.19	3.613
229.56	3.665
229.92	3.490
230.29	2.784
230.65	4.369
231.02	6.215
231.38	5.941
231.75	4.461
232.12	4.325
232.48	3.239
232.85	3.031
233.21	3.484
233.58	3.155
233.94	2.685
234.31	3.219
234.68	1.517
235.04	1.588
235.41	0.164
235.77	1.751
236.14	1.657
236.50	1.565
236.87	2.665
237.23	2.703
237.60	3.553
237.96	4.210
238.33	4.735
238.69	5.218
239.06	5.143
239.42	5.446
239.79	5.015
240.15	4.988
240.52	5.085
240.88	5.151
241.25	5.362
241.61	5.330
241.98	5.144
242.34	4.956
242.71	4.673
243.07	4.699
243.44	4.507
243.80	4.897
244.17	4.883
244.53	4.910
244.90	4.929
245.26	5.047
245.63	5.212
245.99	5.345
246.36	5.339
246.72	5.419
247.09	5.366
247.45	5.324
247.81	5.151
248.18	5.180
248.54	5.119
248.91	4.771
249.27	4.333
249.64	4.183
250.00	4.028
250.36	4.416
250.73	4.268
251.09	4.317
251.46	4.686
251.82	4.594
252.19	4.900
252.55	5.293
252.91	5.597
253.28	6.097
253.64	5.876
254.01	5.827
254.37	5.243
254.73	5.344
255.10	5.392
255.46	5.032
255.83	5.152
256.19	5.011
256.55	4.818
256.92	5.043
257.28	4.827
257.65	4.815
258.01	4.756
258.37	4.724
258.74	4.649
259.10	4.576
259.46	4.710
259.83	4.512
260.19	4.342
260.55	4.449
260.92	4.362
261.28	4.555
261.64	4.665
262.01	4.702
262.37	4.767
262.73	4.911
263.10	4.670
263.46	4.770
263.82	5.051
264.19	5.046
264.55	4.982
264.91	5.109
265.28	4.857
265.64	4.930
266.00	4.803
266.37	4.951
266.73	5.001
267.09	5.189
267.46	5.134
267.82	5.127
268.18	5.248
268.54	5.212
268.91	4.921
269.27	5.041
269.63	4.621
270.00	4.723
270.36	4.312
270.72	4.135
271.08	4.106
271.45	3.896
271.81	3.753
272.17	3.864
272.53	3.933
272.90	3.981
273.26	3.792
273.62	4.037
273.98	4.185
274.35	4.387
274.71	4.629
275.07	4.589
275.43	4.561
275.80	4.669
276.16	4.441
276.52	4.345
276.88	4.162
277.25	4.329
277.61	4.420
277.97	4.233
278.33	4.266
278.69	4.225
279.06	4.113
279.42	4.147
279.78	4.080
280.14	4.263
280.50	4.254
280.87	4.422
281.23	4.383
281.59	4.329
281.95	4.354
282.31	4.383
282.68	4.351
283.04	4.412
283.40	4.488
283.76	4.531
284.12	4.433
284.48	4.467
284.85	4.390
285.21	4.475
285.57	4.362
285.93	4.270
286.29	4.202
286.65	4.273
287.02	4.224
287.38	3.991
287.74	3.922
288.10	4.011
288.46	3.867
288.82	4.038
289.18	3.921
289.54	4.137
289.91	4.041
290.27	3.923
290.63	3.844
290.99	3.969
291.35	4.197
291.71	4.209
292.07	4.205
292.43	4.195
292.79	3.883
293.16	3.857
293.52	3.666
293.88	3.878
294.24	4.136
294.60	4.099
294.96	4.024
295.32	4.025
295.68	3.944
296.04	3.849
296.40	3.969
296.76	4.141
297.12	4.214
297.49	4.217
297.85	4.128
298.21	3.988
298.57	4.062
298.93	4.089
299.29	4.198
299.65	4.160
300.01	4.153
300.37	4.232
300.73	4.194
301.09	4.136
301.45	4.271
301.81	4.482
302.17	4.560
302.53	4.535
302.89	4.566
303.25	4.430
303.61	4.605
303.97	4.669
304.33	4.490
304.69	4.585
305.05	4.573
305.41	4.481
305.77	4.351
306.13	4.336
306.49	4.305
306.85	4.241
307.21	4.414
307.57	4.472
307.93	4.481
308.29	4.578
308.65	4.619
309.01	4.708
309.37	4.879
309.73	4.859
310.09	4.803
310.45	4.834
310.81	4.876
311.17	4.725
311.53	4.755
311.89	4.747
312.25	4.845
312.61	4.711
312.96	4.653
313.32	4.552
313.68	4.554
314.04	4.605
314.40	4.597
314.76	4.700
315.12	4.832
315.48	4.682
315.84	4.709
316.20	4.467
316.56	4.555
316.92	4.587
317.27	4.430
317.63	4.507
317.99	4.527
318.35	4.602
318.71	4.651
319.07	4.747
319.43	4.879
319.79	4.977
320.15	5.110
320.50	5.123
320.86	5.157
321.22	5.337
321.58	5.261
321.94	5.240
322.30	5.122
322.66	5.145
323.01	5.086
323.37	5.121
323.73	5.054
324.09	5.165
324.45	5.220
324.81	5.293
325.17	5.301
325.52	5.432
325.88	5.519
326.24	5.635
326.60	5.631
326.96	5.714
327.31	5.728
327.67	5.830
328.03	5.793
328.39	5.889
328.75	5.937
329.11	6.007
329.46	6.063
329.82	6.132
330.18	6.204
330.54	6.191
330.90	6.245
331.25	6.157
331.61	6.127
331.97	6.210
332.33	6.125
332.68	6.068
333.04	6.064
333.40	6.073
333.76	6.054
334.11	6.093
334.47	6.126
334.83	6.073
335.19	6.169
335.54	6.119
335.90	6.125
336.26	6.176
336.62	6.120
336.97	6.055
337.33	5.953
337.69	5.969
338.05	5.943
338.40	5.966
338.76	5.902
339.12	5.895
339.48	5.884
339.83	5.873
340.19	5.854
340.55	5.957
340.90	6.042
341.26	6.037
341.62	6.053
341.97	6.024
342.33	5.985
342.69	6.006
343.04	5.888
343.40	5.929
343.76	5.928
344.12	5.881
344.47	5.855
344.83	5.810
345.19	5.904
345.54	5.891
345.90	5.956
346.26	5.990
346.61	5.971
346.97	6.101
347.32	6.158
347.68	6.099
348.04	6.125
348.39	6.078
348.75	6.041
349.11	6.029
349.46	5.933
349.82	5.966
350.18	5.905
350.53	5.978
350.89	5.909
351.24	5.841
351.60	5.811
351.96	5.801
352.31	5.822
352.67	5.884
353.02	5.805
353.38	5.769
353.74	5.717
354.09	5.665
354.45	5.680
354.80	5.727
355.16	5.790
355.52	5.784
355.87	5.851
356.23	5.863
356.58	5.840
356.94	5.834
357.29	5.995
357.65	5.939
358.00	6.005
358.36	5.963
358.72	5.953
359.07	5.869
359.43	5.907
359.78	5.827
360.14	5.769
360.49	5.697
360.85	5.715
361.20	5.619
361.56	5.641
361.91	5.585
362.27	5.590
362.62	5.587
362.98	5.680
363.33	5.708
363.69	5.760
364.04	5.779
364.40	5.873
364.75	5.927
365.11	5.968
365.46	5.967
365.82	5.998
366.17	5.994
366.53	6.014
366.88	5.915
367.24	5.850
367.59	5.826
367.95	5.870
368.30	5.871
368.66	5.874
369.01	5.859
369.37	5.905
369.72	5.974
370.08	6.027
370.43	6.063
370.78	6.153
371.14	6.246
371.49	6.264
371.85	6.296
372.20	6.292
372.56	6.292
372.91	6.301
373.26	6.283
373.62	6.328
373.97	6.281
374.33	6.243
374.68	6.264
375.03	6.228
375.39	6.240
375.74	6.247
376.10	6.353
376.45	6.388
376.80	6.430
377.16	6.453
377.51	6.431
377.87	6.476
378.22	6.594
378.57	6.640
378.93	6.733
379.28	6.824
379.63	6.894
379.99	6.898
380.34	6.940
380.70	7.031
381.05	7.077
381.40	7.178
381.76	7.246
382.11	7.215
382.46	7.273
382.82	7.299
383.17	7.381
383.52	7.418
383.88	7.483
384.23	7.529
384.58	7.557
384.94	7.607
385.29	7.574
385.64	7.601
385.99	7.653
386.35	7.603
386.70	7.615
387.05	7.598
387.41	7.590
387.76	7.621
388.11	7.674
388.47	7.715
388.82	7.810
389.17	7.905
389.52	7.965
389.88	7.999
390.23	8.114
390.58	8.214
390.93	8.268
391.29	8.340
391.64	8.349
391.99	8.385
392.34	8.403
392.70	8.399
393.05	8.407
393.40	8.412
393.75	8.421
394.11	8.396
394.46	8.369
394.81	8.366
395.16	8.387
395.52	8.367
395.87	8.343
396.22	8.303
396.57	8.289
396.92	8.253
397.28	8.289
397.63	8.321
397.98	8.322
398.33	8.310
398.68	8.341
399.04	8.353
399.39	8.371
399.74	8.373
400.09	8.403
400.44	8.428
400.80	8.442
401.15	8.422
401.50	8.457
401.85	8.505
402.20	8.578
402.55	8.576
402.90	8.559
403.26	8.596
403.61	8.630
403.96	8.686
404.31	8.720
404.66	8.746
405.01	8.773
405.36	8.725
405.72	8.727
406.07	8.690
406.42	8.706
406.77	8.736
407.12	8.732
407.47	8.756
407.82	8.748
408.17	8.729
408.53	8.732
408.88	8.703
409.23	8.757
409.58	8.731
409.93	8.727
410.28	8.749
410.63	8.738
410.98	8.750
411.33	8.764
411.68	8.762
412.03	8.805
412.38	8.844
412.73	8.944
413.09	8.974
413.44	9.050
413.79	9.134
414.14	9.175
414.49	9.220
414.84	9.275
415.19	9.325
415.54	9.398
415.89	9.438
416.24	9.485
416.59	9.522
416.94	9.590
417.29	9.619
417.64	9.639
417.99	9.657
418.34	9.706
418.69	9.740
419.04	9.767
419.39	9.786
419.74	9.834
420.09	9.853
420.44	9.868
420.79	9.874
421.14	9.871
421.49	9.886
421.84	9.903
422.19	9.918
422.54	9.913
422.89	9.903
423.24	9.892
423.59	9.855
423.94	9.844
424.29	9.819
424.64	9.801
424.99	9.814
425.34	9.780
425.68	9.745
426.03	9.703
426.38	9.666
426.73	9.653
427.08	9.635
427.43	9.607
427.78	9.607
428.13	9.622
428.48	9.646
428.83	9.631
429.18	9.658
429.53	9.687
429.87	9.711
430.22	9.732
430.57	9.757
430.92	9.793
431.27	9.830
431.62	9.859
431.97	9.850
432.32	9.844
432.67	9.832
433.01	9.836
433.36	9.829
433.71	9.825
434.06	9.816
434.41	9.805
434.76	9.816
435.11	9.832
435.45	9.840
435.80	9.883
436.15	9.907
436.50	9.955
436.85	10.002
437.20	10.052
437.54	10.074
437.89	10.123
438.24	10.140
438.59	10.141
438.94	10.135
439.29	10.130
439.63	10.116
439.98	10.113
440.33	10.130
440.68	10.131
441.03	10.105
441.37	10.106
441.72	10.107
442.07	10.118
442.42	10.118
442.76	10.147
443.11	10.167
443.46	10.175
443.81	10.192
444.16	10.181
444.50	10.173
444.85	10.166
445.20	10.169
445.55	10.137
445.89	10.119
446.24	10.105
446.59	10.058
446.94	10.013
447.28	9.984
447.63	9.939
447.98	9.899
448.32	9.851
448.67	9.822
449.02	9.768
449.37	9.761
449.71	9.746
450.06	9.703
450.41	9.717
450.75	9.739
451.10	9.738
451.45	9.718
451.79	9.749
452.14	9.764
452.49	9.771
452.84	9.792
453.18	9.796
453.53	9.814
453.88	9.877
454.22	9.897
454.57	9.922
454.92	9.964
455.26	10.020
455.61	10.075
455.95	10.141
456.30	10.215
456.65	10.256
456.99	10.305
457.34	10.330
457.69	10.348
458.03	10.376
458.38	10.387
458.73	10.402
459.07	10.405
459.42	10.372
459.76	10.343
460.11	10.308
460.46	10.282
460.80	10.254
461.15	10.223
461.49	10.214
461.84	10.196
462.19	10.206
462.53	10.195
462.88	10.193
463.22	10.224
463.57	10.236
463.91	10.252
464.26	10.281
464.61	10.297
464.95	10.334
465.30	10.342
465.64	10.359
465.99	10.346
466.33	10.362
466.68	10.386
467.02	10.389
467.37	10.398
467.71	10.406
468.06	10.428
468.41	10.438
468.75	10.436
469.10	10.411
469.44	10.405
469.79	10.405
470.13	10.391
470.48	10.378
470.82	10.372
471.17	10.380
471.51	10.378
471.86	10.353
472.20	10.354
472.55	10.375
472.89	10.408
473.23	10.402
473.58	10.399
473.92	10.415
474.27	10.435
474.61	10.437
474.96	10.416
475.30	10.412
475.65	10.424
475.99	10.440
476.34	10.442
476.68	10.437
477.02	10.449
477.37	10.490
477.71	10.519
478.06	10.561
478.40	10.670
478.75	10.824
479.09	10.992
479.43	11.201
479.78	11.424
480.12	11.659
480.47	11.906
480.81	12.168
481.15	12.421
481.50	12.670
481.84	12.942
482.19	13.244
482.53	13.514
482.87	13.708
483.22	13.752
483.56	13.671
483.90	13.501
484.25	13.271
484.59	12.988
484.94	12.774
485.28	12.592
485.62	12.358
485.97	12.056
486.31	11.790
486.65	11.588
487.00	11.509
487.34	11.529
487.68	11.606
488.03	11.724
488.37	11.874
488.71	11.918
489.06	11.919
489.40	11.902
489.74	11.908
490.09	11.890
490.43	11.863
490.77	11.840
491.11	11.800
491.46	11.767
491.80	11.738
492.14	11.704
492.49	11.674
492.83	11.615
493.17	11.599
493.51	11.551
493.86	11.536
494.20	11.535
494.54	11.543
494.88	11.585
495.23	11.642
495.57	11.677
495.91	11.727
496.25	11.764
496.60	11.818
496.94	11.849
497.28	11.906
497.62	11.929
497.97	11.952
498.31	11.996
498.65	12.024
498.99	12.057
499.33	12.107
499.68	12.157
500.02	12.224
500.36	12.267
500.70	12.351
501.04	12.390
501.39	12.454
501.73	12.509
502.07	12.549
502.41	12.619
502.75	12.661
503.09	12.739
503.44	12.799
503.78	12.849
504.12	12.914
504.46	12.948
504.80	13.012
505.14	13.080
505.49	13.156
505.83	13.216
506.17	13.258
506.51	13.355
506.85	13.401
507.19	13.444
507.53	13.498
507.87	13.549
508.22	13.600
508.56	13.649
508.90	13.681
509.24	13.721
509.58	13.760
509.92	13.816
510.26	13.845
510.60	13.870
510.94	13.898
511.28	13.924
511.63	13.962
511.97	13.993
512.31	14.047
512.65	14.098
512.99	14.173
513.33	14.253
513.67	14.321
514.01	14.406
514.35	14.508
514.69	14.605
515.03	14.691
515.37	14.769
515.71	14.844
516.05	14.904
516.39	14.967
516.73	14.983
517.07	15.016
517.41	15.051
517.75	15.055
518.09	15.055
518.43	15.062
518.77	15.061
519.11	15.055
519.45	15.048
519.79	15.053
520.13	15.057
520.47	15.104
520.81	15.132
521.15	15.168
521.49	15.197
521.83	15.246
522.17	15.298
522.51	15.389
522.85	15.481
523.19	15.624
523.53	15.768
523.87	15.957
524.21	16.139
524.55	16.317
524.89	16.486
525.23	16.639
525.57	16.765
525.91	16.891
526.25	16.995
526.58	17.095
526.92	17.161
527.26	17.232
527.60	17.252
527.94	17.244
528.28	17.230
528.62	17.200
528.96	17.172
529.30	17.129
529.64	17.078
529.97	17.030
530.31	16.977
530.65	16.923
530.99	16.858
531.33	16.825
531.67	16.824
532.01	16.832
532.35	16.829
532.68	16.822
533.02	16.832
533.36	16.826
533.70	16.808
534.04	16.784
534.38	16.786
534.71	16.790
535.05	16.773
535.39	16.746
535.73	16.700
536.07	16.703
536.41	16.714
536.74	16.744
537.08	16.790
537.42	16.848
537.76	16.925
538.10	16.996
538.43	17.057
538.77	17.128
539.11	17.196
539.45	17.273
539.79	17.324
540.12	17.380
540.46	17.420
540.80	17.443
541.14	17.468
541.47	17.454
541.81	17.442
542.15	17.420
542.49	17.401
542.82	17.372
543.16	17.329
543.50	17.290
543.84	17.252
544.17	17.225
544.51	17.194
544.85	17.157
545.18	17.165
545.52	17.139
545.86	17.137
546.20	17.132
546.53	17.125
546.87	17.124
547.21	17.106
547.54	17.094
547.88	17.100
548.22	17.098
548.55	17.111
548.89	17.094
549.23	17.111
549.56	17.112
549.90	17.117
550.24	17.120
550.57	17.131
550.91	17.166
551.25	17.189
551.58	17.172
551.92	17.188
552.26	17.206
552.59	17.214
552.93	17.225
553.27	17.239
553.60	17.235
553.94	17.262
554.27	17.272
554.61	17.275
554.95	17.255
555.28	17.281
555.62	17.305
555.95	17.294
556.29	17.335
556.63	17.379
556.96	17.402
557.30	17.463
557.63	17.458
557.97	17.480
558.31	17.488
558.64	17.519
558.98	17.509
559.31	17.546
559.65	17.596
559.98	17.628
560.32	17.616
560.65	17.638
560.99	17.626
561.33	17.661
561.66	17.716
562.00	17.781
562.33	17.846
562.67	17.910
563.00	17.914
563.34	17.924
563.67	17.937
564.01	17.984
564.34	18.020
564.68	18.084
565.01	18.120
565.35	18.117
565.68	18.092
566.02	18.065
566.35	18.094
566.69	18.121
567.02	18.149
567.36	18.156
567.69	18.147
568.03	18.163
568.36	18.147
568.69	18.167
569.03	18.181
569.36	18.213
569.70	18.257
570.03	18.252
570.37	18.282
570.70	18.306
571.04	18.342
571.37	18.386
571.70	18.393
572.04	18.400
572.37	18.402
572.71	18.409
573.04	18.442
573.37	18.437
573.71	18.454
574.04	18.443
574.38	18.409
574.71	18.418
575.04	18.423
575.38	18.439
575.71	18.453
576.05	18.458
576.38	18.446
576.71	18.402
577.05	18.414
577.38	18.409
577.71	18.379
578.05	18.373
578.38	18.342
578.71	18.285
579.05	18.248
579.38	18.224
579.71	18.204
580.05	18.207
580.38	18.213
580.71	18.197
581.05	18.194
581.38	18.237
581.71	18.278
582.05	18.305
582.38	18.312
582.71	18.351
583.04	18.373
583.38	18.365
583.71	18.349
584.04	18.406
584.38	18.418
584.71	18.440
585.04	18.454
585.37	18.462
585.71	18.442
586.04	18.509
586.37	18.535
586.70	18.535
587.04	18.568
587.37	18.632
587.70	18.598
588.03	18.628
588.37	18.622
588.70	18.612
589.03	18.648
589.36	18.652
589.69	18.642
590.03	18.616
590.36	18.621
590.69	18.639
591.02	18.623
591.35	18.668
591.69	18.680
592.02	18.690
592.35	18.729
592.68	18.724
593.01	18.751
593.35	18.765
593.68	18.789
594.01	18.811
594.34	18.795
594.67	18.821
595.00	18.826
595.34	18.811
595.67	18.810
596.00	18.758
596.33	18.755
596.66	18.754
596.99	18.734
597.32	18.728
597.65	18.725
597.99	18.727
598.32	18.706
598.65	18.689
598.98	18.710
599.31	18.727
599.64	18.765
599.97	18.756
600.30	18.786
600.63	18.808
600.96	18.766
601.30	18.729
601.63	18.737
601.96	18.748
602.29	18.753
602.62	18.739
602.95	18.717
603.28	18.718
603.61	18.722
603.94	18.697
604.27	18.678
604.60	18.706
604.93	18.727
605.26	18.712
605.59	18.687
605.92	18.645
606.25	18.619
606.58	18.617
606.91	18.608
607.24	18.565
607.57	18.565
607.90	18.538
608.23	18.537
608.56	18.519
608.89	18.515
609.22	18.515
609.55	18.543
609.88	18.534
610.21	18.517
610.54	18.471
610.87	18.452
611.20	18.369
611.53	18.324
611.86	18.293
612.19	18.261
612.52	18.233
612.85	18.153
613.18	18.069
613.51	18.084
613.84	18.070
614.17	18.081
614.49	18.096
614.82	18.138
615.15	18.161
615.48	18.105
615.81	18.065
616.14	18.085
616.47	18.131
616.80	18.118
617.13	18.072
617.46	18.058
617.78	18.017
618.11	17.943
618.44	17.887
618.77	17.876
619.10	17.879
619.43	17.876
619.76	17.809
620.09	17.775
620.41	17.771
620.74	17.757
621.07	17.745
621.40	17.741
621.73	17.782
622.06	17.805
622.38	17.796
622.71	17.812
623.04	17.825
623.37	17.809
623.70	17.821
624.02	17.860
624.35	17.861
624.68	17.855
625.01	17.875
625.34	17.839
625.66	17.788
625.99	17.783
626.32	17.743
626.65	17.726
626.98	17.719
627.30	17.705
627.63	17.624
627.96	17.582
628.29	17.563
628.61	17.549
628.94	17.576
629.27	17.589
629.60	17.573
629.92	17.548
630.25	17.531
630.58	17.554
630.91	17.516
631.23	17.519
631.56	17.524
631.89	17.498
632.21	17.451
632.54	17.404
632.87	17.381
633.19	17.354
633.52	17.352
633.85	17.339
634.18	17.294
634.50	17.299
634.83	17.269
635.16	17.258
635.48	17.224
635.81	17.218
636.14	17.167
636.46	17.133
636.79	17.073
637.11	17.048
637.44	17.007
637.77	16.950
638.09	16.882
638.42	16.853
638.75	16.811
639.07	16.790
639.40	16.708
639.73	16.735
640.05	16.753
640.38	16.723
640.70	16.679
641.03	16.634
641.36	16.649
641.68	16.608
642.01	16.605
642.33	16.524
642.66	16.451
642.98	16.442
643.31	16.389
643.64	16.348
643.96	16.338
644.29	16.334
644.61	16.336
644.94	16.341
645.26	16.332
645.59	16.296
645.91	16.332
646.24	16.378
646.56	16.341
646.89	16.338
647.22	16.284
647.54	16.286
647.87	16.234
648.19	16.197
648.52	16.152
648.84	16.135
649.17	16.132
649.49	16.064
649.82	15.995
650.14	15.978
650.47	15.947
650.79	15.906
651.11	15.865
651.44	15.840
651.76	15.856
652.09	15.828
652.41	15.804
652.74	15.754
653.06	15.715
653.39	15.696
653.71	15.732
654.04	15.743
654.36	15.729
654.68	15.739
655.01	15.748
655.33	15.679
655.66	15.604
655.98	15.560
656.30	15.525
656.63	15.553
656.95	15.547
657.28	15.469
657.60	15.425
657.92	15.396
658.25	15.345
658.57	15.296
658.90	15.240
659.22	15.230
659.54	15.190
659.87	15.156
660.19	15.063
660.51	14.964
660.84	14.889
661.16	14.778
661.48	14.657
661.81	14.503
662.13	14.368
662.45	14.371
662.78	14.284
663.10	14.237
663.42	14.221
663.75	14.181
664.07	14.128
664.39	14.068
664.72	13.989
665.04	14.000
665.36	14.029
665.69	14.011
666.01	13.879
666.33	13.834
666.65	13.778
666.98	13.678
667.30	13.608
667.62	13.563
667.94	13.524
668.27	13.446
668.59	13.357
668.91	13.220
669.23	13.162
669.56	13.165
669.88	13.074
670.20	12.940
670.52	12.880
670.85	12.788
671.17	12.711
671.49	12.621
671.81	12.617
672.13	12.618
672.46	12.659
672.78	12.604
673.10	12.481
673.42	12.443
673.74	12.419
674.07	12.411
674.39	12.425
674.71	12.388
675.03	12.333
675.35	12.320
675.67	12.294
676.00	12.267
676.32	12.241
676.64	12.274
676.96	12.218
677.28	12.307
677.60	12.272
677.92	12.233
678.25	12.286
678.57	12.379
678.89	12.349
679.21	12.292
679.53	12.132
679.85	12.174
680.17	12.113
680.49	12.128
680.81	12.028
681.13	11.995
681.46	11.923
681.78	11.814
682.10	11.646
682.42	11.546
682.74	11.523
683.06	11.629
683.38	11.494
683.70	11.412
684.02	11.379
684.34	11.367
684.66	11.338
684.98	11.379
685.30	11.380
685.62	11.425
685.94	11.403
686.26	11.306
686.58	11.234
686.90	11.243
687.22	11.292
687.54	11.181
687.86	11.089
688.18	10.993
688.50	10.901
688.82	10.759
689.14	10.615
689.46	10.524
689.78	10.445
690.10	10.376
690.42	10.230
690.74	10.140
691.06	10.069
691.38	9.941
691.70	9.802
692.02	9.657
692.34	9.599
692.66	9.562
692.98	9.454
693.30	9.496
693.62	9.459
693.94	9.477
694.26	9.432
694.57	9.500
694.89	9.602
695.21	9.778
695.53	9.888
695.85	9.971
696.17	10.017
696.49	10.146
696.81	10.167
697.13	10.201
697.44	10.209
697.76	10.205
698.08	10.143
698.40	10.048
698.72	9.836
699.04	9.656
699.36	9.488
699.67	9.268
699.99	8.916
700.31	8.537
700.63	8.172
700.95	7.743
701.27	7.346
701.58	6.928
701.90	6.554
702.22	6.339
702.54	6.096
702.86	5.898
703.17	5.726
703.49	5.617
703.81	5.508
704.13	5.358
704.45	5.310
704.76	5.198
705.08	5.116
705.40	5.126
705.72	5.020
706.03	4.996
706.35	4.866
706.67	4.766
706.99	4.746
707.30	4.721
707.62	4.657
707.94	4.574
708.26	4.646
708.57	4.744
708.89	4.670
709.21	4.630
709.53	4.566
709.84	4.505
710.16	4.485
710.48	4.487
710.79	4.479
711.11	4.652
711.43	4.748
711.74	4.801
712.06	4.870
712.38	4.955
712.69	5.026
713.01	5.232
713.33	5.387
713.64	5.694
713.96	5.847
714.28	6.058
714.59	6.156
714.91	6.510
715.23	6.688
715.54	6.814
715.86	7.017
716.17	7.143
716.49	7.029
716.81	7.119
717.12	6.951
717.44	6.902
717.76	6.686
718.07	6.541
718.39	6.013
718.70	5.558
719.02	5.124
719.33	4.603
719.65	4.362
719.97	4.112
720.28	3.850
720.60	3.643
720.91	3.625
721.23	3.678
721.54	3.581
721.86	3.638
722.17	3.812
722.49	3.976
722.81	4.141
723.12	4.097
723.44	4.230
723.75	4.302
724.07	4.306
724.38	4.032
724.70	3.876
725.01	3.858
725.33	3.952
725.64	3.973
725.96	4.032
726.27	4.061
726.59	4.129
726.90	4.219
727.22	4.217
727.53	4.349
727.84	4.516
728.16	4.588
728.47	4.612
728.79	4.423
729.10	4.234
729.42	3.956
729.73	3.616
730.05	3.256
730.36	2.836
730.67	2.356
730.99	1.904
731.30	1.450
731.62	0.957
731.93	0.420
732.24	-0.014
732.56	-0.528
732.87	-0.889
733.19	-1.202
733.50	-1.453
733.81	-1.695
734.13	-1.891
734.44	-2.403
734.76	-2.603
735.07	-2.893
735.38	-3.306
735.70	-3.648
736.01	-3.861
736.32	-3.978
736.64	-4.261
736.95	-4.510
737.26	-4.913
737.58	-5.369
737.89	-5.492
738.20	-5.983
738.52	-6.328
738.83	-6.528
739.14	-7.031
739.45	-7.556
739.77	-8.193
740.08	-8.721
740.39	-9.333
740.71	-9.845
741.02	-10.454
741.33	-10.966
741.64	-11.628
741.96	-12.151
742.27	-12.881
742.58	-13.050
742.90	-13.539
743.21	-13.894
743.52	-14.179
743.83	-14.476
744.14	-14.630
744.46	-14.650
744.77	-15.023
745.08	-15.250
745.39	-15.178
745.71	-15.029
746.02	-14.983
746.33	-14.698
746.64	-14.858
746.95	-14.799
747.27	-14.844
747.58	-14.824
747.89	-15.095
748.20	-15.167
748.51	-15.007
748.82	-15.174
749.14	-15.319
749.45	-15.554
749.76	-16.094
750.07	-16.162
750.38	-16.482
750.69	-16.598
751.01	-16.951
751.32	-16.700
751.63	-16.692
751.94	-16.449
752.25	-16.542
752.56	-16.762
752.87	-17.012
753.18	-16.630
753.49	-16.535
753.81	-16.377
754.12	-16.180
754.43	-15.671
754.74	-15.014
755.05	-14.028
755.36	-13.011
755.67	-11.841
755.98	-10.241
756.29	-8.765
756.60	-7.308
756.91	-5.703
757.22	-3.938
757.53	-2.188
757.84	-0.531
758.15	1.047
758.46	2.362
758.77	3.372
759.09	4.492
759.40	5.545
759.71	6.358
760.02	6.845
760.33	7.270
760.64	7.331
760.95	7.320
761.26	7.313
761.57	7.106
761.88	6.899
762.18	6.499
762.49	6.148
762.80	5.383
763.11	4.661
763.42	3.843
763.73	2.859
764.04	2.014
764.35	0.804
764.66	-0.503
764.97	-2.131
765.28	-3.940
765.59	-5.800
765.90	-8.263
766.21	-10.456
766.52	-12.624
766.83	-14.478
767.14	-16.315
767.44	-18.321
767.75	-19.999
768.06	-21.761
768.37	-22.929
768.68	-24.499
768.99	-25.510
769.30	-26.329
769.61	-27.189
769.91	-27.842
770.22	-28.529
770.53	-29.556
770.84	-30.518
771.15	-30.588
771.46	-31.110
771.77	-32.135
772.07	-31.883
772.38	-32.505
772.69	-32.746
773.00	-32.695
773.31	-32.992
773.61	-34.045
773.92	-34.059
774.23	-33.296
774.54	-34.534
774.85	-34.487
775.15	-34.444
775.46	-34.678
775.77	-34.158
776.08	-33.770
776.39	-34.031
776.69	-33.953
777.00	-33.288
777.31	-33.246
777.62	-33.157
777.92	-32.146
778.23	-32.827
778.54	-32.064
778.85	-32.027
779.15	-31.961
779.46	-32.209
779.77	-32.560
780.07	-32.881
780.38	-33.197
780.69	-33.188
781.00	-34.018
781.30	-34.114
781.61	-33.883
781.92	-34.854
782.22	-34.970
782.53	-35.289
782.84	-35.120
783.14	-34.154
783.45	-33.389
783.76	-32.386
784.06	-31.491
784.37	-30.112
784.68	-28.954
784.98	-27.550
785.29	-25.794
785.60	-24.323
785.90	-22.844
786.21	-21.822
786.51	-20.316
786.82	-18.903
787.13	-18.337
787.43	-17.748
787.74	-16.983
788.04	-17.149
788.35	-17.288
788.66	-17.487
788.96	-18.412
789.27	-18.907
789.57	-19.168
789.88	-20.542
790.19	-21.365
790.49	-21.696
790.80	-22.338
791.10	-22.768
791.41	-22.273
791.71	-21.643
792.02	-21.429
792.32	-20.687
792.63	-20.267
792.93	-19.818
793.24	-19.403
793.54	-19.320
793.85	-18.565
794.15	-17.661
794.46	-17.712
794.76	-17.654
795.07	-17.579
795.37	-17.931
795.68	-16.820
795.98	-17.112
796.29	-16.920
796.59	-16.204
796.90	-16.124
797.20	-15.930
797.51	-15.967
797.81	-15.764
798.12	-16.299
798.42	-16.287
798.72	-15.536
799.03	-16.402
799.33	-15.853
799.64	-16.172
799.94	-16.336
800.25	-16.406
800.55	-16.738
800.85	-17.082
801.16	-17.159
801.46	-16.297
801.77	-16.519
802.07	-17.252
802.37	-16.977
802.68	-18.047
802.98	-18.454
803.28	-18.335
803.59	-18.447
803.89	-18.490
804.20	-18.458
804.50	-18.782
804.80	-19.482
805.11	-19.601
805.41	-19.208
805.71	-19.456
806.02	-18.495
806.32	-18.164
806.62	-18.252
806.93	-18.038
807.23	-17.857
807.53	-17.603
807.83	-17.286
808.14	-17.216
808.44	-16.824
808.74	-16.321
809.05	-15.671
809.35	-15.134
809.65	-14.969
809.95	-14.746
810.26	-13.514
810.56	-12.532
810.86	-11.546
811.16	-11.144
811.47	-9.262
811.77	-8.364
812.07	-7.880
812.37	-6.813
812.68	-5.984
812.98	-4.805
813.28	-3.605
813.58	-3.219
813.88	-2.959
814.19	-2.916
814.49	-2.244
814.79	-2.177
815.09	-1.588
815.39	-0.815
815.70	-0.673
816.00	-0.181
816.30	0.222
816.60	0.238
816.90	1.109
817.20	2.093
817.50	3.441
817.81	4.881
818.11	5.838
818.41	6.858
818.71	7.766
819.01	8.625
819.31	9.198
819.61	9.842
819.92	10.382
820.22	10.553
820.52	10.877
820.82	11.104
821.12	11.413
821.42	11.599
821.72	11.695
822.02	11.783
822.32	11.817
822.62	11.800
822.92	11.673
823.22	11.492
823.52	11.476
823.83	11.304
824.13	11.175
824.43	10.916
824.73	10.769
825.03	10.645
825.33	10.325
825.63	10.150
825.93	10.202
826.23	10.047
826.53	9.977
826.83	9.857
827.13	9.875
827.43	9.782
827.73	9.305
828.03	8.985
828.33	8.639
828.63	8.223
828.93	7.476
829.23	6.364
829.53	6.141
829.83	5.813
830.13	5.284
830.42	4.625
830.72	4.248
831.02	4.529
831.32	4.839
831.62	4.922
831.92	5.472
832.22	5.680
832.52	5.864
832.82	5.547
833.12	5.734
833.42	5.752
833.72	5.379
834.01	5.004
834.31	5.214
834.61	4.218
834.91	3.758
835.21	3.033
835.51	2.159
835.81	1.007
836.11	0.185
836.40	-1.629
836.70	-2.962
837.00	-3.968
837.30	-4.573
837.60	-6.746
837.90	-6.399
838.19	-7.935
838.49	-8.754
838.79	-8.684
839.09	-8.334
839.39	-8.914
839.68	-9.860
839.98	-10.426
840.28	-11.863
840.58	-13.894
840.88	-16.412
841.17	-17.732
841.47	-19.479
841.77	-21.665
842.07	-26.420
842.36	-31.149
842.66	-33.483
842.96	-36.526
843.26	-39.125
843.55	-41.403
843.85	-44.492
844.15	-44.783
844.45	-44.999
844.74	-45.019
845.04	-49.207
845.34	-47.883
845.63	-44.912
845.93	-49.057
846.23	-49.769
846.53	-53.571
846.82	-55.828
847.12	-54.353
847.42	-51.435
847.71	-57.169
848.01	-58.465
848.31	-54.187
848.60	-52.561
848.90	-54.883
849.19	-49.944
849.49	-52.803
849.79	-53.304
850.08	-54.122
850.38	-53.579
850.68	-55.885
850.97	-52.300
851.27	-51.695
851.56	-56.160
851.86	-57.540
852.16	-56.625
852.45	-62.697
852.75	-57.385
853.04	-57.804
853.34	-52.004
853.64	-50.088
853.93	-47.553
854.23	-51.021
854.52	-51.883
854.82	-46.570
855.11	-45.593
855.41	-47.454
855.70	-41.059
856.00	-44.299
856.30	-42.231
856.59	-40.975
856.89	-45.257
857.18	-47.579
857.48	-46.990
857.77	-45.199
858.07	-47.362
858.36	-50.093
858.66	-46.919
858.95	-54.422
859.25	-50.256
859.54	-52.463
859.84	-55.693
860.13	-48.756
860.42	-46.402
860.72	-47.978
861.01	-50.420
861.31	-49.380
861.60	-44.433
861.90	-43.394
862.19	-38.977
862.49	-39.811
862.78	-35.986
863.07	-32.863
863.37	-32.718
863.66	-37.990
863.96	-34.473
864.25	-31.047
864.54	-33.122
864.84	-37.097
865.13	-40.854
865.43	-38.148
865.72	-35.964
866.01	-72.066
866.31	-67.691
866.60	-73.400
866.89	-8.141
>>>>>End Spectral Data<<<<<
