OOIBase32 Version 2.0.0.6 Data File
++++++++++++++++++++++++++++++++++++
Date: 01-20-2012, 22:27:09
User: Valued Ocean Optics Customer
Spectrometer Serial Number: USB2E2917
Spectrometer Channel: Master
Integration Time (msec): 4
Spectra Averaged: 10
Boxcar Smoothing: 5
Correct for Electrical Dark: Enabled
Time Normalized: Disabled
Dual-beam Reference: Disabled
Reference Channel: Master
Temperature: Not acquired
Spectrometer Type: S2000
ADC Type: USB2000
Number of Pixels in File: 2048
Graph Title: 
>>>>>Begin Spectral Data<<<<<
180.30	0.000
180.67	0.000
181.03	123.061
181.40	10.868
181.77	30.022
182.14	-76.486
182.51	67.475
182.88	249.374
183.25	48.140
183.62	75.067
183.99	41.677
184.36	23.401
184.73	86.642
185.10	217.719
185.46	-104.139
185.83	127.954
186.20	-232.528
186.57	58.429
186.94	171.174
187.31	-58.913
187.68	-4630.798
188.05	336.107
188.42	174.470
188.78	139.915
189.15	133.372
189.52	119.738
189.89	87.951
190.26	86.917
190.63	84.050
191.00	84.525
191.37	75.014
191.73	70.188
192.10	108.248
192.47	114.475
192.84	65.846
193.21	33.541
193.58	-1.181
193.94	10.946
194.31	25.520
194.68	41.720
195.05	47.199
195.42	45.488
195.79	41.399
196.15	23.058
196.52	6.487
196.89	-1.012
197.26	12.569
197.63	14.567
198.00	19.125
198.36	-10.550
198.73	-6.191
199.10	-11.098
199.47	5.132
199.84	12.504
200.20	11.169
200.57	18.206
200.94	10.588
201.31	14.547
201.68	14.306
202.04	28.063
202.41	48.791
202.78	38.444
203.15	62.227
203.51	77.422
203.88	67.083
204.25	56.776
204.62	53.313
204.98	66.023
205.35	54.539
205.72	59.946
206.09	34.457
206.46	40.114
206.82	26.095
207.19	38.951
207.56	21.030
207.92	18.280
208.29	22.675
208.66	11.034
209.03	2.956
209.39	16.960
209.76	8.468
210.13	21.297
210.50	15.912
210.86	27.717
211.23	13.507
211.60	25.807
211.96	14.635
212.33	22.950
212.70	32.205
213.07	36.792
213.43	32.918
213.80	35.931
214.17	47.276
214.53	40.963
214.90	36.723
215.27	44.592
215.63	46.077
216.00	47.708
216.37	42.846
216.74	38.731
217.10	43.298
217.47	30.133
217.84	27.382
218.20	17.331
218.57	25.638
218.94	25.723
219.30	18.672
219.67	18.542
220.04	25.619
220.40	28.345
220.77	25.749
221.13	21.306
221.50	27.353
221.87	27.481
222.23	29.600
222.60	28.835
222.97	32.084
223.33	33.966
223.70	28.529
224.07	23.100
224.43	19.813
224.80	18.805
225.16	16.701
225.53	15.289
225.90	16.103
226.26	15.016
226.63	14.516
226.99	12.303
227.36	11.422
227.73	11.607
228.09	12.424
228.46	13.394
228.82	13.040
229.19	12.232
229.56	12.305
229.92	11.357
230.29	11.079
230.65	12.197
231.02	12.555
231.38	10.780
231.75	9.327
232.12	9.013
232.48	8.644
232.85	9.297
233.21	11.109
233.58	10.546
233.94	10.604
234.31	10.846
234.68	8.824
235.04	10.744
235.41	11.826
235.77	13.193
236.14	11.978
236.50	9.996
236.87	10.185
237.23	9.519
237.60	10.595
237.96	11.067
238.33	10.744
238.69	10.643
239.06	10.081
239.42	10.183
239.79	10.135
240.15	10.391
240.52	10.895
240.88	10.828
241.25	10.954
241.61	10.308
241.98	9.722
242.34	9.882
242.71	9.893
243.07	9.692
243.44	9.544
243.80	9.530
244.17	9.333
244.53	9.081
244.90	8.775
245.26	8.811
245.63	9.006
245.99	9.077
246.36	8.929
246.72	8.796
247.09	8.911
247.45	8.613
247.81	8.235
248.18	8.294
248.54	8.046
248.91	8.145
249.27	8.053
249.64	7.811
250.00	7.701
250.36	7.832
250.73	7.867
251.09	7.842
251.46	8.320
251.82	8.623
252.19	8.284
252.55	8.718
252.91	8.791
253.28	8.679
253.64	8.959
254.01	9.431
254.37	9.026
254.73	9.092
255.10	8.852
255.46	8.746
255.83	8.624
256.19	8.616
256.55	8.274
256.92	8.313
257.28	8.041
257.65	7.853
258.01	7.623
258.37	7.475
258.74	7.487
259.10	7.293
259.46	7.257
259.83	7.249
260.19	7.243
260.55	7.354
260.92	7.370
261.28	7.597
261.64	7.709
262.01	7.702
262.37	7.978
262.73	7.722
263.10	7.874
263.46	7.901
263.82	8.078
264.19	8.044
264.55	8.294
264.91	8.460
265.28	8.457
265.64	8.555
266.00	8.726
266.37	8.858
266.73	9.023
267.09	9.103
267.46	9.044
267.82	8.921
268.18	8.889
268.54	8.483
268.91	8.025
269.27	7.811
269.63	7.640
270.00	7.264
270.36	6.982
270.72	6.684
271.08	6.528
271.45	6.468
271.81	6.396
272.17	6.548
272.53	6.676
272.90	6.679
273.26	6.700
273.62	6.784
273.98	6.925
274.35	7.002
274.71	7.251
275.07	7.170
275.43	7.063
275.80	7.093
276.16	6.979
276.52	7.044
276.88	7.040
277.25	7.124
277.61	7.105
277.97	7.056
278.33	7.039
278.69	7.046
279.06	7.166
279.42	7.084
279.78	7.101
280.14	7.218
280.50	7.223
280.87	7.194
281.23	7.169
281.59	7.049
281.95	7.055
282.31	7.038
282.68	6.933
283.04	6.923
283.40	6.989
283.76	6.905
284.12	6.775
284.48	6.622
284.85	6.541
285.21	6.514
285.57	6.389
285.93	6.394
286.29	6.320
286.65	6.270
287.02	6.158
287.38	6.001
287.74	5.890
288.10	5.770
288.46	5.747
288.82	5.934
289.18	5.789
289.54	5.982
289.91	6.049
290.27	6.010
290.63	6.219
290.99	6.367
291.35	6.444
291.71	6.495
292.07	6.826
292.43	6.957
292.79	6.698
293.16	6.768
293.52	6.466
293.88	6.421
294.24	6.589
294.60	6.504
294.96	6.479
295.32	6.556
295.68	6.634
296.04	6.408
296.40	6.381
296.76	6.533
297.12	6.511
297.49	6.623
297.85	6.704
298.21	6.663
298.57	6.712
298.93	6.736
299.29	6.909
299.65	6.986
300.01	7.093
300.37	7.115
300.73	7.150
301.09	7.366
301.45	7.536
301.81	7.630
302.17	7.739
302.53	7.762
302.89	7.777
303.25	7.467
303.61	7.436
303.97	7.464
304.33	7.467
304.69	7.464
305.05	7.299
305.41	7.160
305.77	7.104
306.13	7.035
306.49	6.968
306.85	6.987
307.21	7.103
307.57	7.064
307.93	7.078
308.29	7.184
308.65	7.219
309.01	7.178
309.37	7.382
309.73	7.310
310.09	7.271
310.45	7.446
310.81	7.447
311.17	7.512
311.53	7.568
311.89	7.542
312.25	7.591
312.61	7.550
312.96	7.740
313.32	7.574
313.68	7.509
314.04	7.570
314.40	7.473
314.76	7.468
315.12	7.487
315.48	7.402
315.84	7.537
316.20	7.356
316.56	7.369
316.92	7.366
317.27	7.461
317.63	7.617
317.99	7.690
318.35	7.736
318.71	7.880
319.07	7.941
319.43	8.085
319.79	7.985
320.15	8.122
320.50	8.208
320.86	8.294
321.22	8.283
321.58	8.234
321.94	8.244
322.30	8.142
322.66	8.132
323.01	8.134
323.37	8.153
323.73	8.195
324.09	8.155
324.45	8.189
324.81	8.195
325.17	8.213
325.52	8.286
325.88	8.306
326.24	8.419
326.60	8.501
326.96	8.583
327.31	8.608
327.67	8.708
328.03	8.875
328.39	8.996
328.75	9.088
329.11	9.251
329.46	9.387
329.82	9.577
330.18	9.760
330.54	9.677
330.90	9.761
331.25	9.709
331.61	9.713
331.97	9.643
332.33	9.643
332.68	9.547
333.04	9.575
333.40	9.547
333.76	9.431
334.11	9.315
334.47	9.327
334.83	9.232
335.19	9.344
335.54	9.367
335.90	9.430
336.26	9.416
336.62	9.520
336.97	9.440
337.33	9.495
337.69	9.491
338.05	9.448
338.40	9.491
338.76	9.425
339.12	9.414
339.48	9.430
339.83	9.332
340.19	9.284
340.55	9.267
340.90	9.253
341.26	9.139
341.62	9.139
341.97	9.274
342.33	9.270
342.69	9.401
343.04	9.332
343.40	9.348
343.76	9.399
344.12	9.341
344.47	9.238
344.83	9.227
345.19	9.273
345.54	9.295
345.90	9.190
346.26	9.248
346.61	9.167
346.97	9.269
347.32	9.260
347.68	9.330
348.04	9.431
348.39	9.496
348.75	9.511
349.11	9.547
349.46	9.520
349.82	9.543
350.18	9.499
350.53	9.577
350.89	9.508
351.24	9.397
351.60	9.394
351.96	9.340
352.31	9.386
352.67	9.445
353.02	9.339
353.38	9.296
353.74	9.327
354.09	9.299
354.45	9.337
354.80	9.389
355.16	9.496
355.52	9.461
355.87	9.511
356.23	9.485
356.58	9.477
356.94	9.534
357.29	9.582
357.65	9.605
358.00	9.622
358.36	9.560
358.72	9.526
359.07	9.496
359.43	9.477
359.78	9.490
360.14	9.472
360.49	9.439
360.85	9.443
361.20	9.437
361.56	9.358
361.91	9.351
362.27	9.343
362.62	9.301
362.98	9.304
363.33	9.329
363.69	9.333
364.04	9.323
364.40	9.338
364.75	9.357
365.11	9.384
365.46	9.443
365.82	9.448
366.17	9.464
366.53	9.543
366.88	9.554
367.24	9.502
367.59	9.470
367.95	9.495
368.30	9.540
368.66	9.569
369.01	9.575
369.37	9.595
369.72	9.637
370.08	9.701
370.43	9.742
370.78	9.777
371.14	9.893
371.49	9.926
371.85	9.955
372.20	9.974
372.56	9.993
372.91	10.000
373.26	9.974
373.62	10.024
373.97	9.986
374.33	9.971
374.68	9.993
375.03	9.997
375.39	10.022
375.74	10.069
376.10	10.092
376.45	10.111
376.80	10.214
377.16	10.245
377.51	10.251
377.87	10.359
378.22	10.472
378.57	10.514
378.93	10.592
379.28	10.742
379.63	10.802
379.99	10.919
380.34	11.008
380.70	11.081
381.05	11.179
381.40	11.326
381.76	11.389
382.11	11.433
382.46	11.580
382.82	11.654
383.17	11.698
383.52	11.802
383.88	11.888
384.23	12.003
384.58	12.052
384.94	12.121
385.29	12.125
385.64	12.213
385.99	12.270
386.35	12.263
386.70	12.290
387.05	12.314
387.41	12.355
387.76	12.434
388.11	12.474
388.47	12.562
388.82	12.639
389.17	12.724
389.52	12.789
389.88	12.862
390.23	13.001
390.58	13.075
390.93	13.147
391.29	13.239
391.64	13.270
391.99	13.320
392.34	13.352
392.70	13.440
393.05	13.488
393.40	13.514
393.75	13.554
394.11	13.574
394.46	13.631
394.81	13.666
395.16	13.677
395.52	13.652
395.87	13.640
396.22	13.615
396.57	13.602
396.92	13.603
397.28	13.608
397.63	13.616
397.98	13.595
398.33	13.593
398.68	13.645
399.04	13.628
399.39	13.669
399.74	13.692
400.09	13.730
400.44	13.758
400.80	13.809
401.15	13.835
401.50	13.872
401.85	13.907
402.20	13.959
402.55	13.988
402.90	14.036
403.26	14.077
403.61	14.121
403.96	14.215
404.31	14.278
404.66	14.306
405.01	14.356
405.36	14.382
405.72	14.446
406.07	14.475
406.42	14.499
406.77	14.570
407.12	14.609
407.47	14.668
407.82	14.651
408.17	14.681
408.53	14.730
408.88	14.760
409.23	14.804
409.58	14.769
409.93	14.783
410.28	14.779
410.63	14.749
410.98	14.749
411.33	14.740
411.68	14.788
412.03	14.751
412.38	14.744
412.73	14.749
413.09	14.756
413.44	14.808
413.79	14.830
414.14	14.865
414.49	14.911
414.84	14.909
415.19	14.926
415.54	14.930
415.89	14.946
416.24	14.941
416.59	14.950
416.94	14.933
417.29	14.918
417.64	14.894
417.99	14.859
418.34	14.828
418.69	14.828
419.04	14.810
419.39	14.783
419.74	14.761
420.09	14.748
420.44	14.716
420.79	14.710
421.14	14.703
421.49	14.699
421.84	14.677
422.19	14.649
422.54	14.641
422.89	14.621
423.24	14.596
423.59	14.576
423.94	14.567
424.29	14.550
424.64	14.532
424.99	14.494
425.34	14.454
425.68	14.420
426.03	14.402
426.38	14.363
426.73	14.359
427.08	14.340
427.43	14.333
427.78	14.315
428.13	14.314
428.48	14.319
428.83	14.306
429.18	14.320
429.53	14.389
429.87	14.419
430.22	14.436
430.57	14.452
430.92	14.478
431.27	14.513
431.62	14.528
431.97	14.544
432.32	14.559
432.67	14.594
433.01	14.611
433.36	14.594
433.71	14.617
434.06	14.599
434.41	14.582
434.76	14.582
435.11	14.579
435.45	14.590
435.80	14.606
436.15	14.606
436.50	14.589
436.85	14.605
437.20	14.614
437.54	14.611
437.89	14.630
438.24	14.650
438.59	14.632
438.94	14.605
439.29	14.567
439.63	14.538
439.98	14.505
440.33	14.489
440.68	14.436
441.03	14.387
441.37	14.314
441.72	14.261
442.07	14.209
442.42	14.165
442.76	14.146
443.11	14.126
443.46	14.092
443.81	14.055
444.16	14.011
444.50	13.984
444.85	13.939
445.20	13.903
445.55	13.838
445.89	13.757
446.24	13.698
446.59	13.621
446.94	13.530
447.28	13.419
447.63	13.314
447.98	13.230
448.32	13.125
448.67	13.053
449.02	12.980
449.37	12.921
449.71	12.890
450.06	12.838
450.41	12.800
450.75	12.798
451.10	12.793
451.45	12.794
451.79	12.778
452.14	12.779
452.49	12.771
452.84	12.776
453.18	12.802
453.53	12.799
453.88	12.837
454.22	12.857
454.57	12.875
454.92	12.931
455.26	12.954
455.61	13.021
455.95	13.071
456.30	13.163
456.65	13.215
456.99	13.253
457.34	13.312
457.69	13.378
458.03	13.423
458.38	13.453
458.73	13.480
459.07	13.530
459.42	13.525
459.76	13.545
460.11	13.536
460.46	13.559
460.80	13.615
461.15	13.651
461.49	13.669
461.84	13.741
462.19	13.804
462.53	13.882
462.88	13.971
463.22	14.068
463.57	14.174
463.91	14.250
464.26	14.348
464.61	14.393
464.95	14.460
465.30	14.533
465.64	14.584
465.99	14.634
466.33	14.674
466.68	14.713
467.02	14.777
467.37	14.837
467.71	14.904
468.06	14.929
468.41	14.972
468.75	15.032
469.10	15.039
469.44	15.067
469.79	15.125
470.13	15.127
470.48	15.115
470.82	15.121
471.17	15.101
471.51	15.076
471.86	15.049
472.20	15.049
472.55	15.020
472.89	15.026
473.23	14.974
473.58	14.918
473.92	14.937
474.27	14.929
474.61	14.887
474.96	14.850
475.30	14.814
475.65	14.792
475.99	14.754
476.34	14.721
476.68	14.668
477.02	14.641
477.37	14.599
477.71	14.547
478.06	14.553
478.40	14.577
478.75	14.637
479.09	14.782
479.43	14.947
479.78	15.161
480.12	15.395
480.47	15.672
480.81	15.974
481.15	16.256
481.50	16.542
481.84	16.872
482.19	17.252
482.53	17.583
482.87	17.796
483.22	17.848
483.56	17.729
483.90	17.518
484.25	17.213
484.59	16.839
484.94	16.583
485.28	16.374
485.62	16.081
485.97	15.726
486.31	15.424
486.65	15.226
487.00	15.181
487.34	15.282
487.68	15.450
488.03	15.693
488.37	15.966
488.71	16.120
489.06	16.177
489.40	16.239
489.74	16.313
490.09	16.385
490.43	16.438
490.77	16.509
491.11	16.577
491.46	16.650
491.80	16.728
492.14	16.845
492.49	16.959
492.83	17.102
493.17	17.273
493.51	17.465
493.86	17.679
494.20	17.910
494.54	18.144
494.88	18.392
495.23	18.655
495.57	18.911
495.91	19.156
496.25	19.415
496.60	19.691
496.94	19.969
497.28	20.276
497.62	20.581
497.97	20.897
498.31	21.240
498.65	21.614
498.99	22.010
499.33	22.424
499.68	22.861
500.02	23.300
500.36	23.748
500.70	24.226
501.04	24.685
501.39	25.168
501.73	25.655
502.07	26.164
502.41	26.673
502.75	27.159
503.09	27.683
503.44	28.234
503.78	28.786
504.12	29.357
504.46	29.929
504.80	30.516
505.14	31.103
505.49	31.708
505.83	32.279
506.17	32.855
506.51	33.459
506.85	34.069
507.19	34.617
507.53	35.211
507.87	35.775
508.22	36.331
508.56	36.858
508.90	37.411
509.24	37.946
509.58	38.505
509.92	39.064
510.26	39.606
510.60	40.160
510.94	40.741
511.28	41.274
511.63	41.824
511.97	42.355
512.31	42.957
512.65	43.535
512.99	44.147
513.33	44.820
513.67	45.447
514.01	46.082
514.35	46.702
514.69	47.282
515.03	47.867
515.37	48.468
515.71	49.014
516.05	49.497
516.39	49.954
516.73	50.343
517.07	50.720
517.41	51.074
517.75	51.446
518.09	51.749
518.43	52.073
518.77	52.390
519.11	52.626
519.45	52.938
519.79	53.271
520.13	53.616
520.47	54.023
520.81	54.411
521.15	54.823
521.49	55.229
521.83	55.645
522.17	56.039
522.51	56.441
522.85	56.922
523.19	57.433
523.53	57.948
523.87	58.522
524.21	59.068
524.55	59.584
524.89	60.046
525.23	60.451
525.57	60.827
525.91	61.190
526.25	61.517
526.58	61.796
526.92	62.026
527.26	62.220
527.60	62.355
527.94	62.467
528.28	62.539
528.62	62.605
528.96	62.701
529.30	62.775
529.64	62.824
529.97	62.849
530.31	62.895
530.65	62.975
530.99	63.054
531.33	63.141
531.67	63.247
532.01	63.381
532.35	63.475
532.68	63.535
533.02	63.574
533.36	63.651
533.70	63.703
534.04	63.763
534.38	63.752
534.71	63.798
535.05	63.825
535.39	63.881
535.73	63.922
536.07	64.014
536.41	64.129
536.74	64.317
537.08	64.486
537.42	64.686
537.76	64.852
538.10	65.070
538.43	65.253
538.77	65.449
539.11	65.593
539.45	65.744
539.79	65.868
540.12	65.987
540.46	66.039
540.80	66.044
541.14	66.058
541.47	66.053
541.81	66.041
542.15	65.988
542.49	65.965
542.82	65.935
543.16	65.891
543.50	65.827
543.84	65.756
544.17	65.728
544.51	65.700
544.85	65.690
545.18	65.694
545.52	65.689
545.86	65.698
546.20	65.671
546.53	65.650
546.87	65.615
547.21	65.660
547.54	65.654
547.88	65.653
548.22	65.694
548.55	65.740
548.89	65.739
549.23	65.737
549.56	65.806
549.90	65.820
550.24	65.843
550.57	65.871
550.91	65.891
551.25	65.914
551.58	65.917
551.92	65.943
552.26	65.962
552.59	65.975
552.93	66.033
553.27	66.044
553.60	66.072
553.94	66.065
554.27	66.044
554.61	66.012
554.95	65.991
555.28	66.031
555.62	66.062
555.95	66.035
556.29	66.034
556.63	66.019
556.96	66.028
557.30	66.057
557.63	66.091
557.97	66.081
558.31	66.093
558.64	66.155
558.98	66.143
559.31	66.138
559.65	66.140
559.98	66.149
560.32	66.168
560.65	66.180
560.99	66.149
561.33	66.144
561.66	66.195
562.00	66.251
562.33	66.243
562.67	66.336
563.00	66.372
563.34	66.390
563.67	66.434
564.01	66.430
564.34	66.422
564.68	66.469
565.01	66.478
565.35	66.482
565.68	66.443
566.02	66.441
566.35	66.401
566.69	66.350
567.02	66.384
567.36	66.373
567.69	66.348
568.03	66.339
568.36	66.254
568.69	66.256
569.03	66.258
569.36	66.243
569.70	66.244
570.03	66.197
570.37	66.229
570.70	66.183
571.04	66.182
571.37	66.193
571.70	66.154
572.04	66.189
572.37	66.170
572.71	66.125
573.04	66.132
573.37	66.075
573.71	66.021
574.04	65.982
574.38	65.973
574.71	65.945
575.04	65.895
575.38	65.948
575.71	65.915
576.05	65.883
576.38	65.905
576.71	65.839
577.05	65.793
577.38	65.785
577.71	65.703
578.05	65.593
578.38	65.512
578.71	65.422
579.05	65.345
579.38	65.308
579.71	65.192
580.05	65.137
580.38	65.136
580.71	65.111
581.05	65.059
581.38	65.062
581.71	65.064
582.05	65.008
582.38	65.055
582.71	65.018
583.04	64.959
583.38	64.922
583.71	64.809
584.04	64.706
584.38	64.602
584.71	64.569
585.04	64.431
585.37	64.372
585.71	64.373
586.04	64.259
586.37	64.177
586.70	64.143
587.04	64.129
587.37	64.075
587.70	64.086
588.03	64.093
588.37	64.054
588.70	64.050
589.03	63.977
589.36	63.898
589.69	63.856
590.03	63.778
590.36	63.652
590.69	63.597
591.02	63.507
591.35	63.414
591.69	63.346
592.02	63.283
592.35	63.236
592.68	63.187
593.01	63.144
593.35	63.125
593.68	63.091
594.01	63.075
594.34	62.985
594.67	62.982
595.00	62.912
595.34	62.851
595.67	62.717
596.00	62.629
596.33	62.568
596.66	62.471
596.99	62.390
597.32	62.324
597.65	62.254
597.99	62.194
598.32	62.095
598.65	61.950
598.98	61.789
599.31	61.737
599.64	61.676
599.97	61.551
600.30	61.497
600.63	61.428
600.96	61.276
601.30	61.161
601.63	61.116
601.96	61.059
602.29	61.040
602.62	61.028
602.95	61.031
603.28	60.965
603.61	60.937
603.94	60.817
604.27	60.696
604.60	60.650
604.93	60.601
605.26	60.486
605.59	60.333
605.92	60.194
606.25	60.091
606.58	59.917
606.91	59.781
607.24	59.631
607.57	59.581
607.90	59.484
608.23	59.381
608.56	59.280
608.89	59.222
609.22	59.200
609.55	59.174
609.88	59.055
610.21	58.986
610.54	58.923
610.87	58.860
611.20	58.726
611.53	58.639
611.86	58.583
612.19	58.495
612.52	58.338
612.85	58.218
613.18	58.112
613.51	58.004
613.84	57.925
614.17	57.860
614.49	57.805
614.82	57.726
615.15	57.650
615.48	57.538
615.81	57.417
616.14	57.361
616.47	57.296
616.80	57.119
617.13	57.118
617.46	56.995
617.78	56.828
618.11	56.779
618.44	56.642
618.77	56.518
619.10	56.407
619.43	56.340
619.76	56.196
620.09	56.035
620.41	55.970
620.74	55.918
621.07	55.790
621.40	55.720
621.73	55.549
622.06	55.543
622.38	55.504
622.71	55.470
623.04	55.381
623.37	55.329
623.70	55.290
624.02	55.288
624.35	55.081
624.68	55.019
625.01	54.956
625.34	54.883
625.66	54.809
625.99	54.680
626.32	54.546
626.65	54.489
626.98	54.401
627.30	54.285
627.63	54.152
627.96	54.074
628.29	53.982
628.61	53.825
628.94	53.725
629.27	53.544
629.60	53.438
629.92	53.358
630.25	53.206
630.58	53.136
630.91	53.087
631.23	52.913
631.56	52.829
631.89	52.705
632.21	52.692
632.54	52.594
632.87	52.565
633.19	52.485
633.52	52.416
633.85	52.305
634.18	52.184
634.50	52.095
634.83	52.032
635.16	52.048
635.48	51.988
635.81	51.878
636.14	51.783
636.46	51.652
636.79	51.520
637.11	51.421
637.44	51.418
637.77	51.338
638.09	51.217
638.42	51.124
638.75	50.959
639.07	50.834
639.40	50.689
639.73	50.633
640.05	50.561
640.38	50.503
640.70	50.382
641.03	50.227
641.36	50.138
641.68	50.016
642.01	49.911
642.33	49.736
642.66	49.714
642.98	49.671
643.31	49.597
643.64	49.462
643.96	49.384
644.29	49.341
644.61	49.276
644.94	49.201
645.26	49.183
645.59	49.103
645.91	49.093
646.24	48.931
646.56	48.845
646.89	48.719
647.22	48.699
647.54	48.586
647.87	48.412
648.19	48.317
648.52	48.129
648.84	48.057
649.17	47.989
649.49	47.860
649.82	47.857
650.14	47.774
650.47	47.680
650.79	47.542
651.11	47.508
651.44	47.511
651.76	47.445
652.09	47.488
652.41	47.380
652.74	47.338
653.06	47.268
653.39	47.092
653.71	46.947
654.04	46.890
654.36	46.788
654.68	46.685
655.01	46.446
655.33	46.366
655.66	46.220
655.98	46.108
656.30	45.970
656.63	45.884
656.95	45.830
657.28	45.767
657.60	45.692
657.92	45.615
658.25	45.526
658.57	45.526
658.90	45.417
659.22	45.339
659.54	45.253
659.87	45.122
660.19	45.024
660.51	44.921
660.84	44.754
661.16	44.579
661.48	44.449
661.81	44.279
662.13	44.167
662.45	43.971
662.78	43.754
663.10	43.602
663.42	43.569
663.75	43.416
664.07	43.322
664.39	43.302
664.72	43.199
665.04	43.117
665.36	43.100
665.69	42.976
666.01	42.937
666.33	42.953
666.65	42.862
666.98	42.720
667.30	42.702
667.62	42.612
667.94	42.504
668.27	42.456
668.59	42.380
668.91	42.218
669.23	42.110
669.56	42.010
669.88	41.886
670.20	41.786
670.52	41.753
670.85	41.716
671.17	41.629
671.49	41.532
671.81	41.458
672.13	41.366
672.46	41.274
672.78	41.255
673.10	41.127
673.42	40.993
673.74	40.943
674.07	40.831
674.39	40.643
674.71	40.553
675.03	40.445
675.35	40.294
675.67	40.226
676.00	40.161
676.32	40.107
676.64	40.027
676.96	40.042
677.28	39.892
677.60	39.843
677.92	39.846
678.25	39.701
678.57	39.649
678.89	39.584
679.21	39.461
679.53	39.352
679.85	39.245
680.17	39.140
680.49	39.032
680.81	38.977
681.13	38.893
681.46	38.732
681.78	38.741
682.10	38.571
682.42	38.430
682.74	38.371
683.06	38.364
683.38	38.239
683.70	38.233
684.02	38.133
684.34	38.084
684.66	37.987
684.98	37.952
685.30	37.879
685.62	37.944
685.94	37.941
686.26	37.840
686.58	37.729
686.90	37.673
687.22	37.609
687.54	37.434
687.86	37.316
688.18	37.237
688.50	37.071
688.82	36.851
689.14	36.636
689.46	36.507
689.78	36.474
690.10	36.375
690.42	36.224
690.74	36.106
691.06	36.050
691.38	35.963
691.70	35.871
692.02	35.702
692.34	35.661
692.66	35.620
692.98	35.476
693.30	35.295
693.62	35.205
693.94	35.145
694.26	35.134
694.57	35.107
694.89	35.023
695.21	34.989
695.53	35.080
695.85	35.100
696.17	35.109
696.49	35.189
696.81	35.155
697.13	35.171
697.44	35.099
697.76	35.022
698.08	34.954
698.40	34.860
698.72	34.703
699.04	34.536
699.36	34.305
699.67	34.043
699.99	33.685
700.31	33.378
700.63	33.001
700.95	32.710
701.27	32.314
701.58	31.976
701.90	31.651
702.22	31.407
702.54	31.143
702.86	30.927
703.17	30.798
703.49	30.688
703.81	30.495
704.13	30.351
704.45	30.222
704.76	30.165
705.08	30.106
705.40	30.099
705.72	29.966
706.03	29.945
706.35	29.858
706.67	29.686
706.99	29.545
707.30	29.578
707.62	29.402
707.94	29.356
708.26	29.287
708.57	29.211
708.89	29.158
709.21	29.031
709.53	28.907
709.84	28.875
710.16	28.767
710.48	28.783
710.79	28.670
711.11	28.787
711.43	28.787
711.74	28.860
712.06	28.890
712.38	28.883
712.69	29.066
713.01	29.278
713.33	29.345
713.64	29.495
713.96	29.542
714.28	29.859
714.59	30.005
714.91	30.103
715.23	30.097
715.54	30.352
715.86	30.479
716.17	30.401
716.49	30.188
716.81	30.126
717.12	30.042
717.44	29.987
717.76	29.674
718.07	29.414
718.39	29.164
718.70	28.958
719.02	28.408
719.33	28.011
719.65	27.774
719.97	27.547
720.28	27.522
720.60	27.460
720.91	27.317
721.23	27.185
721.54	27.132
721.86	27.235
722.17	27.122
722.49	27.155
722.81	27.165
723.12	27.140
723.44	27.280
723.75	27.123
724.07	27.043
724.38	26.963
724.70	26.900
725.01	26.776
725.33	26.612
725.64	26.701
725.96	26.611
726.27	26.660
726.59	26.720
726.90	26.614
727.22	26.535
727.53	26.451
727.84	26.406
728.16	26.411
728.47	26.361
728.79	26.301
729.10	26.060
729.42	25.985
729.73	25.649
730.05	25.361
730.36	25.098
730.67	24.834
730.99	24.564
731.30	24.414
731.62	24.002
731.93	23.657
732.24	23.328
732.56	22.855
732.87	22.357
733.19	22.070
733.50	21.715
733.81	21.316
734.13	21.051
734.44	20.531
734.76	20.017
735.07	19.751
735.38	19.369
735.70	19.070
736.01	18.898
736.32	18.903
736.64	18.773
736.95	18.749
737.26	18.497
737.58	18.167
737.89	18.100
738.20	17.781
738.52	17.529
738.83	17.198
739.14	16.766
739.45	16.328
739.77	15.856
740.08	15.153
740.39	14.377
740.71	14.002
741.02	13.514
741.33	13.073
741.64	12.757
741.96	12.165
742.27	11.751
742.58	11.186
742.90	10.948
743.21	10.364
743.52	10.147
743.83	10.078
744.14	9.760
744.46	9.561
744.77	9.207
745.08	8.940
745.39	9.087
745.71	8.974
746.02	9.148
746.33	9.247
746.64	9.138
746.95	9.086
747.27	9.094
747.58	9.366
747.89	9.373
748.20	9.461
748.51	9.453
748.82	9.066
749.14	9.001
749.45	8.636
749.76	8.048
750.07	8.247
750.38	8.024
750.69	7.788
751.01	7.301
751.32	7.240
751.63	7.076
751.94	7.149
752.25	7.165
752.56	7.093
752.87	7.176
753.18	7.465
753.49	7.160
753.81	7.372
754.12	7.485
754.43	7.705
754.74	8.082
755.05	8.906
755.36	9.692
755.67	10.737
755.98	11.882
756.29	12.927
756.60	14.153
756.91	15.659
757.22	17.041
757.53	18.454
757.84	19.930
758.15	21.371
758.46	22.475
758.77	23.392
759.09	24.296
759.40	25.112
759.71	25.694
760.02	26.149
760.33	26.353
760.64	26.365
760.95	26.234
761.26	26.057
761.57	25.669
761.88	25.415
762.18	25.088
762.49	24.677
762.80	24.141
763.11	23.590
763.42	22.873
763.73	21.900
764.04	21.154
764.35	20.361
764.66	19.368
764.97	18.186
765.28	16.688
765.59	14.946
765.90	13.019
766.21	10.941
766.52	9.181
766.83	7.650
767.14	6.269
767.44	4.787
767.75	3.165
768.06	1.957
768.37	1.046
768.68	-0.241
768.99	-1.148
769.30	-1.736
769.61	-2.320
769.91	-2.820
770.22	-3.472
770.53	-3.443
770.84	-4.318
771.15	-4.364
771.46	-5.231
771.77	-5.675
772.07	-5.498
772.38	-5.844
772.69	-5.920
773.00	-6.076
773.31	-6.322
773.61	-7.179
773.92	-7.957
774.23	-7.651
774.54	-8.690
774.85	-8.370
775.15	-8.875
775.46	-9.016
775.77	-8.644
776.08	-8.548
776.39	-8.245
776.69	-8.865
777.00	-8.389
777.31	-8.181
777.62	-8.030
777.92	-7.170
778.23	-7.454
778.54	-6.923
778.85	-7.093
779.15	-7.033
779.46	-7.598
779.77	-8.242
780.07	-8.094
780.38	-8.667
780.69	-8.937
781.00	-9.184
781.30	-9.685
781.61	-9.675
781.92	-10.369
782.22	-10.318
782.53	-10.735
782.84	-10.471
783.14	-9.486
783.45	-8.666
783.76	-7.171
784.06	-6.905
784.37	-6.263
784.68	-5.094
784.98	-4.114
785.29	-2.576
785.60	-1.582
785.90	-0.547
786.21	0.292
786.51	1.426
786.82	2.466
787.13	2.515
787.43	3.378
787.74	4.357
788.04	4.225
788.35	3.826
788.66	3.356
788.96	2.763
789.27	2.789
789.57	2.477
789.88	1.047
790.19	0.476
790.49	0.126
790.80	-0.328
791.10	-1.447
791.41	-1.232
791.71	-0.911
792.02	-0.404
792.32	0.006
792.63	0.384
792.93	1.096
793.24	1.952
793.54	2.319
793.85	2.986
794.15	3.939
794.46	4.230
794.76	4.108
795.07	4.336
795.37	3.808
795.68	4.485
795.98	4.281
796.29	4.528
796.59	4.413
796.90	4.278
797.20	4.264
797.51	3.906
797.81	3.868
798.12	3.981
798.42	4.386
798.72	4.993
799.03	4.506
799.33	4.529
799.64	4.279
799.94	4.246
800.25	3.765
800.55	3.712
800.85	3.430
801.16	3.437
801.46	3.589
801.77	3.375
802.07	2.856
802.37	3.301
802.68	2.696
802.98	2.218
803.28	2.336
803.59	2.301
803.89	2.414
804.20	2.760
804.50	2.664
804.80	2.244
805.11	1.738
805.41	2.475
805.71	2.661
806.02	3.843
806.32	3.725
806.62	3.951
806.93	3.830
807.23	3.647
807.53	3.618
807.83	3.732
808.14	3.609
808.44	4.332
808.74	3.588
809.05	3.226
809.35	2.841
809.65	3.035
809.95	3.742
810.26	4.503
810.56	5.004
810.86	5.372
811.16	5.970
811.47	7.435
811.77	8.095
812.07	9.456
812.37	10.106
812.68	10.533
812.98	11.075
813.28	11.346
813.58	12.054
813.88	12.743
814.19	13.288
814.49	13.955
814.79	14.287
815.09	14.978
815.39	14.950
815.70	14.882
816.00	15.346
816.30	16.355
816.60	16.693
816.90	16.930
817.20	17.454
817.50	18.604
817.81	19.638
818.11	20.733
818.41	21.465
818.71	22.129
819.01	22.939
819.31	23.429
819.61	23.754
819.92	24.202
820.22	24.538
820.52	24.751
820.82	24.987
821.12	25.170
821.42	25.252
821.72	25.304
822.02	25.376
822.32	25.424
822.62	25.477
822.92	25.340
823.22	25.180
823.52	25.183
823.83	25.191
824.13	24.983
824.43	24.844
824.73	24.718
825.03	24.539
825.33	24.379
825.63	24.021
825.93	23.819
826.23	23.898
826.53	23.857
826.83	23.574
827.13	23.287
827.43	23.162
827.73	22.678
828.03	22.258
828.33	21.925
828.63	21.614
828.93	21.420
829.23	20.925
829.53	20.553
829.83	19.992
830.13	19.788
830.42	19.453
830.72	19.292
831.02	19.606
831.32	20.067
831.62	20.333
831.92	20.652
832.22	20.777
832.52	20.849
832.82	20.836
833.12	21.150
833.42	21.260
833.72	21.381
834.01	21.102
834.31	21.143
834.61	20.405
834.91	20.066
835.21	19.866
835.51	19.362
835.81	18.146
836.11	17.483
836.40	15.661
836.70	14.247
837.00	12.875
837.30	11.781
837.60	9.997
837.90	9.757
838.19	9.082
838.49	7.783
838.79	7.831
839.09	8.681
839.39	7.211
839.68	7.097
839.98	6.403
840.28	5.136
840.58	4.242
840.88	2.612
841.17	1.917
841.47	0.403
841.77	-1.066
842.07	-5.189
842.36	-8.513
842.66	-10.643
842.96	-13.246
843.26	-15.744
843.55	-18.136
843.85	-19.172
844.15	-18.682
844.45	-17.982
844.74	-19.165
845.04	-21.110
845.34	-20.666
845.63	-20.495
845.93	-22.622
846.23	-22.409
846.53	-25.516
846.82	-25.919
847.12	-28.350
847.42	-26.541
847.71	-30.253
848.01	-30.806
848.31	-29.600
848.60	-26.153
848.90	-24.034
849.19	-19.928
849.49	-21.869
849.79	-21.410
850.08	-24.612
850.38	-26.087
850.68	-28.090
850.97	-28.595
851.27	-27.312
851.56	-29.666
851.86	-30.521
852.16	-33.871
852.45	-36.282
852.75	-34.479
853.04	-34.479
853.34	-29.037
853.64	-25.343
853.93	-23.715
854.23	-26.448
854.52	-25.449
854.82	-20.898
855.11	-20.706
855.41	-19.268
855.70	-14.738
856.00	-15.100
856.30	-17.602
856.59	-18.037
856.89	-18.723
857.18	-18.405
857.48	-16.648
857.77	-19.818
858.07	-21.353
858.36	-25.048
858.66	-26.329
858.95	-30.804
859.25	-30.687
859.54	-29.172
859.84	-30.148
860.13	-31.011
860.42	-34.133
860.72	-32.872
861.01	-31.148
861.31	-29.449
861.60	-26.586
861.90	-25.234
862.19	-24.755
862.49	-25.237
862.78	-20.192
863.07	-18.013
863.37	-14.935
863.66	-13.832
863.96	-12.539
864.25	-10.387
864.54	-12.443
864.84	-13.697
865.13	-12.805
865.43	-10.653
865.72	-4.130
866.01	-22.140
866.31	-37.763
866.60	-9.088
866.89	0.786
>>>>>End Spectral Data<<<<<
