OOIBase32 Version 2.0.0.6 Data File
++++++++++++++++++++++++++++++++++++
Date: 01-20-2012, 22:44:37
User: Valued Ocean Optics Customer
Spectrometer Serial Number: USB2E2917
Spectrometer Channel: Master
Integration Time (msec): 3
Spectra Averaged: 10
Boxcar Smoothing: 5
Correct for Electrical Dark: Enabled
Time Normalized: Disabled
Dual-beam Reference: Disabled
Reference Channel: Master
Temperature: Not acquired
Spectrometer Type: S2000
ADC Type: USB2000
Number of Pixels in File: 2048
Graph Title: 
>>>>>Begin Spectral Data<<<<<
180.30	0.000
180.67	0.000
181.03	-726.218
181.40	74.918
181.77	-25.911
182.14	82.164
182.51	2941.711
182.88	78.030
183.25	169.592
183.62	-5.751
183.99	230.709
184.36	69.223
184.73	83.064
185.10	146.944
185.46	-1.498
185.83	145.685
186.20	59.927
186.57	-352.912
186.94	-4499.924
187.31	35.304
187.68	5.578
188.05	120.651
188.42	76.163
188.78	302.176
189.15	60.096
189.52	50.197
189.89	25.905
190.26	16.673
190.63	7.940
191.00	-28.502
191.37	-93.337
191.73	-83.720
192.10	-100.571
192.47	-65.501
192.84	7.880
193.21	-2865.892
193.58	152.533
193.94	30.872
194.31	63.242
194.68	43.690
195.05	45.373
195.42	-180.728
195.79	-30.236
196.15	51.550
196.52	103.877
196.89	235.742
197.26	2569.227
197.63	-229.352
198.00	-114.845
198.36	-180.779
198.73	-119.855
199.10	-36.144
199.47	-106.716
199.84	-140.287
200.20	-67.428
200.57	-58.056
200.94	-31.786
201.31	-8.325
201.68	5.290
202.04	5.599
202.41	4.959
202.78	-38.850
203.15	-61.223
203.51	-70.920
203.88	-83.230
204.25	-92.934
204.62	-193.224
204.98	-122.815
205.35	-94.696
205.72	-96.946
206.09	-447.507
206.46	-228.192
206.82	-131.226
207.19	-84.982
207.56	-56.452
207.92	-41.165
208.29	-32.630
208.66	-13.636
209.03	-15.791
209.39	-36.578
209.76	-53.995
210.13	-19.927
210.50	-7.248
210.86	16.066
211.23	20.954
211.60	27.052
211.96	41.419
212.33	43.819
212.70	33.330
213.07	59.491
213.43	53.142
213.80	33.126
214.17	21.086
214.53	9.526
214.90	0.823
215.27	-27.481
215.63	-37.135
216.00	-43.457
216.37	-37.913
216.74	-37.709
217.10	-23.266
217.47	-15.975
217.84	5.153
218.20	6.390
218.57	7.510
218.94	10.602
219.30	22.743
219.67	26.153
220.04	32.103
220.40	31.384
220.77	29.996
221.13	34.226
221.50	35.134
221.87	27.449
222.23	25.328
222.60	27.079
222.97	15.992
223.33	10.912
223.70	11.827
224.07	11.433
224.43	10.521
224.80	8.494
225.16	6.191
225.53	3.829
225.90	4.140
226.26	4.405
226.63	5.125
226.99	6.958
227.36	7.740
227.73	7.965
228.09	7.932
228.46	7.378
228.82	7.996
229.19	7.467
229.56	7.386
229.92	6.572
230.29	6.300
230.65	5.880
231.02	5.284
231.38	4.859
231.75	3.754
232.12	2.522
232.48	3.133
232.85	3.318
233.21	4.024
233.58	4.651
233.94	5.661
234.31	6.880
234.68	7.191
235.04	7.087
235.41	6.845
235.77	6.662
236.14	7.885
236.50	7.378
236.87	8.220
237.23	7.772
237.60	8.182
237.96	7.757
238.33	6.327
238.69	5.894
239.06	4.932
239.42	5.038
239.79	5.134
240.15	4.431
240.52	4.693
240.88	4.614
241.25	4.767
241.61	4.225
241.98	4.117
242.34	4.295
242.71	4.065
243.07	4.568
243.44	4.722
243.80	4.748
244.17	4.656
244.53	4.496
244.90	4.233
245.26	4.092
245.63	4.287
245.99	4.651
246.36	4.650
246.72	4.704
247.09	4.523
247.45	4.442
247.81	4.722
248.18	4.879
248.54	5.082
248.91	5.397
249.27	5.661
249.64	5.336
250.00	5.315
250.36	5.266
250.73	5.506
251.09	6.039
251.46	6.204
251.82	5.931
252.19	6.090
252.55	6.063
252.91	5.591
253.28	5.382
253.64	5.546
254.01	5.288
254.37	5.627
254.73	5.243
255.10	4.551
255.46	4.489
255.83	4.657
256.19	4.510
256.55	4.492
256.92	4.436
257.28	4.533
257.65	4.827
258.01	4.848
258.37	4.696
258.74	4.661
259.10	4.699
259.46	4.806
259.83	4.694
260.19	4.715
260.55	4.667
260.92	4.665
261.28	4.651
261.64	4.452
262.01	4.429
262.37	4.435
262.73	4.400
263.10	4.279
263.46	3.914
263.82	4.135
264.19	4.272
264.55	4.241
264.91	4.561
265.28	4.528
265.64	4.484
266.00	4.456
266.37	4.659
266.73	4.818
267.09	5.170
267.46	5.249
267.82	4.817
268.18	4.669
268.54	4.692
268.91	4.704
269.27	4.689
269.63	4.818
270.00	4.625
270.36	4.402
270.72	4.530
271.08	4.402
271.45	4.324
271.81	4.171
272.17	4.235
272.53	4.243
272.90	4.221
273.26	4.160
273.62	4.053
273.98	3.890
274.35	3.696
274.71	3.503
275.07	3.428
275.43	3.519
275.80	3.955
276.16	3.969
276.52	3.885
276.88	3.704
277.25	3.617
277.61	3.832
277.97	4.252
278.33	4.449
278.69	4.297
279.06	4.237
279.42	4.237
279.78	3.992
280.14	3.944
280.50	4.111
280.87	4.006
281.23	4.148
281.59	4.092
281.95	4.020
282.31	3.877
282.68	3.839
283.04	3.975
283.40	3.907
283.76	4.077
284.12	4.130
284.48	4.091
284.85	4.120
285.21	3.943
285.57	3.867
285.93	3.875
286.29	4.070
286.65	4.341
287.02	4.266
287.38	4.430
287.74	4.412
288.10	4.504
288.46	4.548
288.82	4.633
289.18	4.851
289.54	4.946
289.91	4.947
290.27	5.086
290.63	4.811
290.99	4.920
291.35	4.814
291.71	4.869
292.07	5.001
292.43	4.866
292.79	4.821
293.16	4.705
293.52	4.816
293.88	4.921
294.24	4.867
294.60	4.892
294.96	4.836
295.32	4.938
295.68	4.969
296.04	4.676
296.40	4.649
296.76	4.676
297.12	4.717
297.49	4.624
297.85	4.472
298.21	4.494
298.57	4.741
298.93	4.921
299.29	4.993
299.65	5.070
300.01	5.129
300.37	5.180
300.73	5.350
301.09	5.329
301.45	5.326
301.81	5.611
302.17	5.608
302.53	5.475
302.89	5.531
303.25	5.602
303.61	5.641
303.97	5.949
304.33	6.020
304.69	6.006
305.05	6.180
305.41	6.319
305.77	6.075
306.13	6.210
306.49	6.184
306.85	6.084
307.21	6.068
307.57	6.103
307.93	5.955
308.29	5.984
308.65	5.959
309.01	5.912
309.37	5.876
309.73	5.975
310.09	5.964
310.45	6.151
310.81	6.080
311.17	6.037
311.53	5.944
311.89	5.997
312.25	6.086
312.61	6.118
312.96	6.091
313.32	6.052
313.68	6.082
314.04	6.077
314.40	5.957
314.76	6.018
315.12	6.024
315.48	6.168
315.84	6.135
316.20	6.147
316.56	6.252
316.92	6.316
317.27	6.363
317.63	6.341
317.99	6.295
318.35	6.359
318.71	6.412
319.07	6.598
319.43	6.541
319.79	6.673
320.15	6.666
320.50	6.711
320.86	6.778
321.22	6.907
321.58	7.083
321.94	7.198
322.30	7.325
322.66	7.437
323.01	7.424
323.37	7.466
323.73	7.446
324.09	7.544
324.45	7.513
324.81	7.552
325.17	7.568
325.52	7.600
325.88	7.657
326.24	7.571
326.60	7.673
326.96	7.613
327.31	7.693
327.67	7.760
328.03	7.752
328.39	7.816
328.75	7.787
329.11	7.825
329.46	7.844
329.82	7.849
330.18	7.939
330.54	7.821
330.90	7.933
331.25	7.986
331.61	8.069
331.97	8.143
332.33	8.301
332.68	8.404
333.04	8.384
333.40	8.460
333.76	8.353
334.11	8.342
334.47	8.414
334.83	8.353
335.19	8.340
335.54	8.305
335.90	8.312
336.26	8.363
336.62	8.416
336.97	8.472
337.33	8.405
337.69	8.577
338.05	8.625
338.40	8.680
338.76	8.801
339.12	8.760
339.48	8.755
339.83	8.763
340.19	8.605
340.55	8.612
340.90	8.646
341.26	8.707
341.62	8.657
341.97	8.680
342.33	8.650
342.69	8.532
343.04	8.626
343.40	8.667
343.76	8.710
344.12	8.632
344.47	8.588
344.83	8.613
345.19	8.559
345.54	8.578
345.90	8.567
346.26	8.667
346.61	8.703
346.97	8.621
347.32	8.595
347.68	8.593
348.04	8.705
348.39	8.677
348.75	8.611
349.11	8.552
349.46	8.467
349.82	8.420
350.18	8.246
350.53	8.152
350.89	8.216
351.24	8.293
351.60	8.312
351.96	8.276
352.31	8.321
352.67	8.323
353.02	8.346
353.38	8.421
353.74	8.501
354.09	8.614
354.45	8.689
354.80	8.738
355.16	8.683
355.52	8.660
355.87	8.666
356.23	8.608
356.58	8.581
356.94	8.617
357.29	8.634
357.65	8.579
358.00	8.598
358.36	8.606
358.72	8.511
359.07	8.527
359.43	8.464
359.78	8.485
360.14	8.493
360.49	8.510
360.85	8.515
361.20	8.554
361.56	8.564
361.91	8.522
362.27	8.497
362.62	8.572
362.98	8.588
363.33	8.647
363.69	8.686
364.04	8.715
364.40	8.765
364.75	8.777
365.11	8.775
365.46	8.869
365.82	8.895
366.17	9.001
366.53	8.972
366.88	8.967
367.24	9.005
367.59	8.959
367.95	8.900
368.30	8.877
368.66	8.907
369.01	8.897
369.37	8.807
369.72	8.791
370.08	8.766
370.43	8.797
370.78	8.840
371.14	8.865
371.49	8.966
371.85	9.144
372.20	9.202
372.56	9.259
372.91	9.273
373.26	9.362
373.62	9.433
373.97	9.487
374.33	9.541
374.68	9.575
375.03	9.540
375.39	9.496
375.74	9.453
376.10	9.482
376.45	9.517
376.80	9.617
377.16	9.650
377.51	9.696
377.87	9.757
378.22	9.773
378.57	9.812
378.93	9.928
379.28	10.040
379.63	10.164
379.99	10.224
380.34	10.258
380.70	10.268
381.05	10.339
381.40	10.427
381.76	10.490
382.11	10.555
382.46	10.653
382.82	10.739
383.17	10.831
383.52	10.940
383.88	11.005
384.23	11.089
384.58	11.155
384.94	11.183
385.29	11.233
385.64	11.260
385.99	11.382
386.35	11.401
386.70	11.419
387.05	11.447
387.41	11.467
387.76	11.517
388.11	11.593
388.47	11.679
388.82	11.776
389.17	11.870
389.52	11.980
389.88	12.025
390.23	12.127
390.58	12.198
390.93	12.319
391.29	12.384
391.64	12.505
391.99	12.584
392.34	12.664
392.70	12.737
393.05	12.775
393.40	12.810
393.75	12.864
394.11	12.905
394.46	12.966
394.81	12.959
395.16	12.969
395.52	12.980
395.87	13.018
396.22	13.030
396.57	13.064
396.92	13.116
397.28	13.190
397.63	13.232
397.98	13.274
398.33	13.317
398.68	13.354
399.04	13.412
399.39	13.465
399.74	13.508
400.09	13.573
400.44	13.580
400.80	13.632
401.15	13.654
401.50	13.731
401.85	13.785
402.20	13.841
402.55	13.895
402.90	13.950
403.26	13.964
403.61	13.958
403.96	13.968
404.31	14.071
404.66	14.069
405.01	14.134
405.36	14.151
405.72	14.199
406.07	14.231
406.42	14.290
406.77	14.351
407.12	14.441
407.47	14.498
407.82	14.609
408.17	14.610
408.53	14.693
408.88	14.704
409.23	14.723
409.58	14.734
409.93	14.796
410.28	14.837
410.63	14.875
410.98	14.897
411.33	14.957
411.68	14.928
412.03	14.949
412.38	14.924
412.73	14.943
413.09	14.977
413.44	14.992
413.79	14.993
414.14	14.999
414.49	14.958
414.84	14.973
415.19	14.983
415.54	14.971
415.89	14.964
416.24	14.948
416.59	14.960
416.94	14.932
417.29	14.921
417.64	14.882
417.99	14.852
418.34	14.849
418.69	14.837
419.04	14.807
419.39	14.815
419.74	14.796
420.09	14.766
420.44	14.732
420.79	14.723
421.14	14.711
421.49	14.714
421.84	14.724
422.19	14.729
422.54	14.706
422.89	14.696
423.24	14.668
423.59	14.678
423.94	14.719
424.29	14.721
424.64	14.727
424.99	14.714
425.34	14.728
425.68	14.711
426.03	14.704
426.38	14.715
426.73	14.747
427.08	14.776
427.43	14.810
427.78	14.838
428.13	14.826
428.48	14.850
428.83	14.875
429.18	14.872
429.53	14.878
429.87	14.898
430.22	14.949
430.57	14.930
430.92	14.955
431.27	14.953
431.62	14.951
431.97	14.964
432.32	14.960
432.67	14.972
433.01	14.994
433.36	15.001
433.71	14.999
434.06	14.997
434.41	14.999
434.76	15.001
435.11	15.002
435.45	15.012
435.80	15.055
436.15	15.069
436.50	15.097
436.85	15.083
437.20	15.083
437.54	15.084
437.89	15.075
438.24	15.081
438.59	15.055
438.94	15.053
439.29	15.038
439.63	15.001
439.98	14.964
440.33	14.935
440.68	14.919
441.03	14.898
441.37	14.866
441.72	14.802
442.07	14.757
442.42	14.712
442.76	14.657
443.11	14.609
443.46	14.578
443.81	14.567
444.16	14.528
444.50	14.496
444.85	14.466
445.20	14.421
445.55	14.393
445.89	14.369
446.24	14.352
446.59	14.316
446.94	14.280
447.28	14.231
447.63	14.170
447.98	14.091
448.32	14.031
448.67	13.995
449.02	13.983
449.37	13.939
449.71	13.901
450.06	13.865
450.41	13.850
450.75	13.836
451.10	13.823
451.45	13.805
451.79	13.839
452.14	13.844
452.49	13.826
452.84	13.819
453.18	13.817
453.53	13.842
453.88	13.856
454.22	13.874
454.57	13.913
454.92	13.975
455.26	14.018
455.61	14.034
455.95	14.055
456.30	14.103
456.65	14.131
456.99	14.182
457.34	14.214
457.69	14.239
458.03	14.265
458.38	14.295
458.73	14.295
459.07	14.337
459.42	14.368
459.76	14.433
460.11	14.464
460.46	14.527
460.80	14.584
461.15	14.653
461.49	14.726
461.84	14.822
462.19	14.921
462.53	15.019
462.88	15.078
463.22	15.154
463.57	15.221
463.91	15.304
464.26	15.356
464.61	15.415
464.95	15.483
465.30	15.563
465.64	15.590
465.99	15.627
466.33	15.669
466.68	15.747
467.02	15.800
467.37	15.841
467.71	15.869
468.06	15.922
468.41	15.971
468.75	15.983
469.10	16.015
469.44	16.074
469.79	16.075
470.13	16.103
470.48	16.109
470.82	16.146
471.17	16.167
471.51	16.171
471.86	16.174
472.20	16.161
472.55	16.169
472.89	16.131
473.23	16.096
473.58	16.083
473.92	16.057
474.27	16.038
474.61	16.014
474.96	15.944
475.30	15.927
475.65	15.898
475.99	15.882
476.34	15.860
476.68	15.853
477.02	15.828
477.37	15.809
477.71	15.803
478.06	15.809
478.40	15.794
478.75	15.877
479.09	15.952
479.43	16.045
479.78	16.146
480.12	16.246
480.47	16.351
480.81	16.472
481.15	16.564
481.50	16.662
481.84	16.819
482.19	16.999
482.53	17.123
482.87	17.142
483.22	17.027
483.56	16.950
483.90	16.924
484.25	16.901
484.59	16.876
484.94	16.863
485.28	16.825
485.62	16.713
485.97	16.580
486.31	16.491
486.65	16.529
487.00	16.725
487.34	16.881
487.68	16.972
488.03	17.056
488.37	17.126
488.71	17.183
489.06	17.257
489.40	17.337
489.74	17.434
490.09	17.505
490.43	17.559
490.77	17.629
491.11	17.708
491.46	17.781
491.80	17.869
492.14	17.957
492.49	18.096
492.83	18.272
493.17	18.445
493.51	18.616
493.86	18.851
494.20	19.087
494.54	19.329
494.88	19.559
495.23	19.798
495.57	20.017
495.91	20.261
496.25	20.472
496.60	20.673
496.94	20.900
497.28	21.148
497.62	21.364
497.97	21.627
498.31	21.903
498.65	22.192
498.99	22.484
499.33	22.811
499.68	23.125
500.02	23.460
500.36	23.773
500.70	24.088
501.04	24.399
501.39	24.747
501.73	25.079
502.07	25.429
502.41	25.727
502.75	26.077
503.09	26.429
503.44	26.786
503.78	27.165
504.12	27.547
504.46	27.959
504.80	28.359
505.14	28.754
505.49	29.136
505.83	29.515
506.17	29.904
506.51	30.265
506.85	30.602
507.19	30.963
507.53	31.333
507.87	31.701
508.22	32.035
508.56	32.384
508.90	32.754
509.24	33.106
509.58	33.447
509.92	33.827
510.26	34.214
510.60	34.597
510.94	34.934
511.28	35.283
511.63	35.633
511.97	35.978
512.31	36.293
512.65	36.616
512.99	37.006
513.33	37.406
513.67	37.776
514.01	38.146
514.35	38.508
514.69	38.886
515.03	39.214
515.37	39.543
515.71	39.861
516.05	40.190
516.39	40.461
516.73	40.663
517.07	40.859
517.41	41.065
517.75	41.249
518.09	41.463
518.43	41.655
518.77	41.857
519.11	42.054
519.45	42.264
519.79	42.452
520.13	42.676
520.47	42.949
520.81	43.253
521.15	43.503
521.49	43.808
521.83	44.043
522.17	44.274
522.51	44.520
522.85	44.802
523.19	45.152
523.53	45.577
523.87	46.017
524.21	46.438
524.55	46.786
524.89	47.153
525.23	47.499
525.57	47.807
525.91	48.082
526.25	48.331
526.58	48.551
526.92	48.710
527.26	48.844
527.60	48.940
527.94	48.979
528.28	49.025
528.62	49.062
528.96	49.043
529.30	49.065
529.64	49.086
529.97	49.110
530.31	49.117
530.65	49.121
530.99	49.145
531.33	49.205
531.67	49.297
532.01	49.386
532.35	49.436
532.68	49.501
533.02	49.532
533.36	49.576
533.70	49.576
534.04	49.607
534.38	49.680
534.71	49.719
535.05	49.719
535.39	49.767
535.73	49.822
536.07	49.909
536.41	50.035
536.74	50.193
537.08	50.342
537.42	50.543
537.76	50.727
538.10	50.926
538.43	51.100
538.77	51.261
539.11	51.411
539.45	51.559
539.79	51.680
540.12	51.773
540.46	51.816
540.80	51.842
541.14	51.858
541.47	51.863
541.81	51.848
542.15	51.830
542.49	51.817
542.82	51.800
543.16	51.781
543.50	51.792
543.84	51.769
544.17	51.800
544.51	51.839
544.85	51.851
545.18	51.907
545.52	51.927
545.86	51.969
546.20	52.030
546.53	52.054
546.87	52.070
547.21	52.054
547.54	52.099
547.88	52.134
548.22	52.213
548.55	52.284
548.89	52.347
549.23	52.395
549.56	52.464
549.90	52.530
550.24	52.593
550.57	52.611
550.91	52.671
551.25	52.710
551.58	52.775
551.92	52.765
552.26	52.805
552.59	52.803
552.93	52.874
553.27	52.842
553.60	52.854
553.94	52.896
554.27	52.952
554.61	52.993
554.95	53.025
555.28	53.062
555.62	53.104
555.95	53.111
556.29	53.117
556.63	53.159
556.96	53.250
557.30	53.302
557.63	53.301
557.97	53.316
558.31	53.349
558.64	53.379
558.98	53.360
559.31	53.422
559.65	53.472
559.98	53.535
560.32	53.526
560.65	53.554
560.99	53.540
561.33	53.605
561.66	53.608
562.00	53.626
562.33	53.703
562.67	53.768
563.00	53.808
563.34	53.870
563.67	53.893
564.01	53.910
564.34	53.936
564.68	54.006
565.01	53.967
565.35	54.072
565.68	54.086
566.02	54.045
566.35	54.016
566.69	53.995
567.02	53.947
567.36	53.952
567.69	54.014
568.03	54.002
568.36	53.976
568.69	54.038
569.03	53.950
569.36	53.948
569.70	54.022
570.03	54.033
570.37	54.071
570.70	54.118
571.04	54.088
571.37	54.050
571.70	54.076
572.04	54.063
572.37	54.046
572.71	54.081
573.04	54.101
573.37	54.069
573.71	54.104
574.04	54.053
574.38	54.059
574.71	54.063
575.04	54.059
575.38	54.010
575.71	54.031
576.05	54.050
576.38	54.076
576.71	54.062
577.05	54.019
577.38	53.945
577.71	53.999
578.05	53.957
578.38	54.024
578.71	54.023
579.05	54.048
579.38	54.027
579.71	53.968
580.05	53.969
580.38	53.917
580.71	53.946
581.05	53.996
581.38	53.965
581.71	54.005
582.05	54.001
582.38	53.968
582.71	53.943
583.04	53.962
583.38	53.982
583.71	53.945
584.04	53.979
584.38	53.960
584.71	53.920
585.04	53.935
585.37	53.868
585.71	53.834
586.04	53.875
586.37	53.801
586.70	53.774
587.04	53.809
587.37	53.832
587.70	53.861
588.03	53.826
588.37	53.762
588.70	53.789
589.03	53.815
589.36	53.789
589.69	53.711
590.03	53.774
590.36	53.703
590.69	53.619
591.02	53.549
591.35	53.500
591.69	53.481
592.02	53.497
592.35	53.420
592.68	53.358
593.01	53.347
593.35	53.352
593.68	53.319
594.01	53.335
594.34	53.325
594.67	53.269
595.00	53.218
595.34	53.188
595.67	53.133
596.00	53.075
596.33	53.068
596.66	52.982
596.99	52.973
597.32	52.948
597.65	52.874
597.99	52.792
598.32	52.789
598.65	52.685
598.98	52.673
599.31	52.679
599.64	52.654
599.97	52.540
600.30	52.526
600.63	52.402
600.96	52.335
601.30	52.344
601.63	52.387
601.96	52.341
602.29	52.386
602.62	52.314
602.95	52.235
603.28	52.227
603.61	52.258
603.94	52.211
604.27	52.183
604.60	52.185
604.93	52.123
605.26	52.017
605.59	51.950
605.92	51.862
606.25	51.845
606.58	51.868
606.91	51.788
607.24	51.758
607.57	51.762
607.90	51.781
608.23	51.709
608.56	51.710
608.89	51.744
609.22	51.730
609.55	51.690
609.88	51.617
610.21	51.566
610.54	51.510
610.87	51.437
611.20	51.355
611.53	51.250
611.86	51.190
612.19	51.074
612.52	51.006
612.85	50.919
613.18	50.895
613.51	50.931
613.84	50.833
614.17	50.792
614.49	50.738
614.82	50.679
615.15	50.682
615.48	50.601
615.81	50.495
616.14	50.364
616.47	50.294
616.80	50.188
617.13	50.029
617.46	49.951
617.78	49.934
618.11	49.830
618.44	49.767
618.77	49.637
619.10	49.545
619.43	49.514
619.76	49.423
620.09	49.390
620.41	49.331
620.74	49.274
621.07	49.240
621.40	49.121
621.73	49.049
622.06	48.966
622.38	48.831
622.71	48.828
623.04	48.756
623.37	48.658
623.70	48.526
624.02	48.433
624.35	48.353
624.68	48.225
625.01	48.171
625.34	48.106
625.66	48.053
625.99	48.061
626.32	47.959
626.65	47.876
626.98	47.776
627.30	47.730
627.63	47.718
627.96	47.652
628.29	47.608
628.61	47.496
628.94	47.401
629.27	47.302
629.60	47.191
629.92	47.121
630.25	47.037
630.58	47.034
630.91	46.943
631.23	46.761
631.56	46.698
631.89	46.617
632.21	46.519
632.54	46.462
632.87	46.408
633.19	46.328
633.52	46.238
633.85	46.160
634.18	46.029
634.50	45.966
634.83	45.888
635.16	45.809
635.48	45.719
635.81	45.587
636.14	45.514
636.46	45.363
636.79	45.253
637.11	45.125
637.44	45.040
637.77	44.973
638.09	44.949
638.42	44.920
638.75	44.795
639.07	44.752
639.40	44.779
639.73	44.671
640.05	44.596
640.38	44.547
640.70	44.546
641.03	44.480
641.36	44.409
641.68	44.264
642.01	44.223
642.33	44.195
642.66	44.051
642.98	43.916
643.31	43.821
643.64	43.789
643.96	43.743
644.29	43.672
644.61	43.546
644.94	43.540
645.26	43.470
645.59	43.380
645.91	43.285
646.24	43.239
646.56	43.160
646.89	43.096
647.22	42.981
647.54	42.908
647.87	42.765
648.19	42.695
648.52	42.577
648.84	42.432
649.17	42.281
649.49	42.216
649.82	42.147
650.14	42.059
650.47	41.953
650.79	41.909
651.11	41.706
651.44	41.674
651.76	41.633
652.09	41.562
652.41	41.565
652.74	41.569
653.06	41.453
653.39	41.298
653.71	41.264
654.04	41.172
654.36	41.096
654.68	41.162
655.01	41.025
655.33	40.972
655.66	40.820
655.98	40.745
656.30	40.625
656.63	40.564
656.95	40.525
657.28	40.393
657.60	40.320
657.92	40.189
658.25	40.073
658.57	40.039
658.90	39.930
659.22	39.856
659.54	39.709
659.87	39.665
660.19	39.571
660.51	39.462
660.84	39.408
661.16	39.333
661.48	39.278
661.81	39.161
662.13	39.056
662.45	38.921
662.78	38.878
663.10	38.820
663.42	38.664
663.75	38.579
664.07	38.537
664.39	38.424
664.72	38.405
665.04	38.322
665.36	38.262
665.69	38.121
666.01	38.128
666.33	38.073
666.65	37.991
666.98	38.019
667.30	37.939
667.62	37.878
667.94	37.855
668.27	37.720
668.59	37.585
668.91	37.472
669.23	37.476
669.56	37.334
669.88	37.208
670.20	37.142
670.52	36.961
670.85	36.936
671.17	36.849
671.49	36.754
671.81	36.700
672.13	36.752
672.46	36.749
672.78	36.718
673.10	36.681
673.42	36.667
673.74	36.628
674.07	36.651
674.39	36.595
674.71	36.561
675.03	36.448
675.35	36.314
675.67	36.164
676.00	36.111
676.32	35.914
676.64	35.898
676.96	35.880
677.28	35.788
677.60	35.770
677.92	35.648
678.25	35.535
678.57	35.492
678.89	35.443
679.21	35.387
679.53	35.257
679.85	35.244
680.17	35.098
680.49	34.989
680.81	34.976
681.13	34.894
681.46	34.810
681.78	34.792
682.10	34.722
682.42	34.757
682.74	34.689
683.06	34.675
683.38	34.584
683.70	34.652
684.02	34.571
684.34	34.525
684.66	34.460
684.98	34.455
685.30	34.419
685.62	34.375
685.94	34.308
686.26	34.285
686.58	34.219
686.90	34.191
687.22	34.045
687.54	33.967
687.86	33.857
688.18	33.867
688.50	33.871
688.82	33.775
689.14	33.716
689.46	33.662
689.78	33.540
690.10	33.559
690.42	33.500
690.74	33.431
691.06	33.440
691.38	33.361
691.70	33.163
692.02	33.022
692.34	32.975
692.66	33.016
692.98	32.905
693.30	32.913
693.62	32.791
693.94	32.754
694.26	32.697
694.57	32.620
694.89	32.596
695.21	32.533
695.53	32.520
695.85	32.402
696.17	32.349
696.49	32.397
696.81	32.361
697.13	32.289
697.44	32.298
697.76	32.329
698.08	32.315
698.40	32.305
698.72	32.261
699.04	32.137
699.36	32.213
699.67	32.140
699.99	32.023
700.31	31.983
700.63	31.927
700.95	31.817
701.27	31.653
701.58	31.545
701.90	31.502
702.22	31.486
702.54	31.517
702.86	31.417
703.17	31.257
703.49	31.176
703.81	31.154
704.13	31.074
704.45	31.003
704.76	30.996
705.08	31.015
705.40	30.890
705.72	30.809
706.03	30.714
706.35	30.609
706.67	30.666
706.99	30.453
707.30	30.347
707.62	30.356
707.94	30.386
708.26	30.309
708.57	30.131
708.89	30.051
709.21	30.026
709.53	30.037
709.84	30.051
710.16	30.014
710.48	30.155
710.79	30.051
711.11	30.040
711.43	29.996
711.74	30.039
712.06	30.183
712.38	30.252
712.69	30.266
713.01	30.230
713.33	30.222
713.64	30.227
713.96	30.220
714.28	30.274
714.59	30.321
714.91	30.364
715.23	30.272
715.54	30.215
715.86	30.165
716.17	30.153
716.49	30.119
716.81	30.030
717.12	29.936
717.44	29.862
717.76	29.903
718.07	29.759
718.39	29.578
718.70	29.511
719.02	29.239
719.33	29.153
719.65	29.074
719.97	28.936
720.28	29.001
720.60	28.956
720.91	28.845
721.23	28.724
721.54	28.688
721.86	28.758
722.17	28.802
722.49	28.990
722.81	29.041
723.12	28.941
723.44	29.004
723.75	28.840
724.07	28.801
724.38	28.848
724.70	28.779
725.01	28.732
725.33	28.531
725.64	28.548
725.96	28.407
726.27	28.230
726.59	28.206
726.90	28.179
727.22	28.217
727.53	28.216
727.84	28.204
728.16	28.232
728.47	28.265
728.79	28.316
729.10	28.157
729.42	28.231
729.73	28.326
730.05	28.247
730.36	28.138
730.67	28.003
730.99	27.895
731.30	27.634
731.62	27.606
731.93	27.553
732.24	27.538
732.56	27.611
732.87	27.657
733.19	27.542
733.50	27.537
733.81	27.416
734.13	27.370
734.44	27.394
734.76	27.548
735.07	27.323
735.38	27.194
735.70	27.093
736.01	27.111
736.32	26.937
736.64	26.975
736.95	26.847
737.26	26.940
737.58	26.806
737.89	26.768
738.20	26.700
738.52	26.759
738.83	26.779
739.14	26.714
739.45	26.375
739.77	26.216
740.08	26.118
740.39	26.193
740.71	25.998
741.02	25.987
741.33	25.739
741.64	25.639
741.96	25.527
742.27	25.148
742.58	25.108
742.90	25.207
743.21	25.152
743.52	25.006
743.83	24.905
744.14	24.830
744.46	24.686
744.77	24.751
745.08	24.704
745.39	24.688
745.71	24.899
746.02	24.707
746.33	24.670
746.64	24.600
746.95	24.597
747.27	24.532
747.58	24.682
747.89	24.721
748.20	24.701
748.51	24.809
748.82	24.849
749.14	24.886
749.45	24.765
749.76	24.667
750.07	24.655
750.38	24.646
750.69	24.643
751.01	24.666
751.32	24.715
751.63	24.781
751.94	24.633
752.25	24.716
752.56	24.491
752.87	24.641
753.18	24.663
753.49	24.611
753.81	24.538
754.12	24.668
754.43	24.613
754.74	24.543
755.05	24.492
755.36	24.493
755.67	24.426
755.98	24.566
756.29	24.539
756.60	24.709
756.91	24.741
757.22	24.937
757.53	24.689
757.84	24.680
758.15	24.928
758.46	25.113
758.77	25.122
759.09	24.998
759.40	25.019
759.71	25.299
760.02	25.307
760.33	25.452
760.64	25.370
760.95	25.529
761.26	25.533
761.57	25.374
761.88	25.363
762.18	25.386
762.49	25.471
762.80	25.491
763.11	25.231
763.42	25.082
763.73	24.956
764.04	24.837
764.35	24.722
764.66	24.502
764.97	24.411
765.28	24.149
765.59	23.840
765.90	23.582
766.21	23.300
766.52	23.516
766.83	23.273
767.14	23.134
767.44	23.015
767.75	22.781
768.06	22.884
768.37	22.752
768.68	22.613
768.99	22.509
769.30	22.660
769.61	22.672
769.91	22.158
770.22	22.285
770.53	22.230
770.84	22.129
771.15	22.243
771.46	22.128
771.77	22.051
772.07	22.063
772.38	22.213
772.69	21.798
773.00	21.713
773.31	22.010
773.61	22.085
773.92	21.728
774.23	21.670
774.54	21.321
774.85	21.299
775.15	21.420
775.46	21.291
775.77	21.401
776.08	21.542
776.39	21.506
776.69	21.001
777.00	20.746
777.31	21.087
777.62	21.182
777.92	21.226
778.23	21.121
778.54	21.122
778.85	21.080
779.15	21.042
779.46	21.123
779.77	21.070
780.07	21.593
780.38	21.585
780.69	21.550
781.00	21.480
781.30	21.690
781.61	21.698
781.92	21.667
782.22	21.685
782.53	21.387
782.84	21.148
783.14	21.385
783.45	21.143
783.76	21.163
784.06	21.090
784.37	21.386
784.68	21.510
784.98	21.566
785.29	21.595
785.60	21.479
785.90	21.831
786.21	21.994
786.51	21.839
786.82	21.765
787.13	21.880
787.43	21.981
787.74	21.943
788.04	21.871
788.35	21.823
788.66	21.842
788.96	21.961
789.27	21.819
789.57	21.718
789.88	21.934
790.19	21.933
790.49	21.977
790.80	21.859
791.10	21.502
791.41	21.166
791.71	21.227
792.02	21.015
792.32	20.815
792.63	20.395
792.93	20.496
793.24	20.037
793.54	20.008
793.85	19.724
794.15	19.751
794.46	19.865
794.76	19.905
795.07	19.999
795.37	20.190
795.68	20.442
795.98	20.587
796.29	20.547
796.59	20.657
796.90	20.779
797.20	20.941
797.51	20.834
797.81	20.767
798.12	21.049
798.42	20.971
798.72	20.570
799.03	20.445
799.33	20.699
799.64	20.573
799.94	20.844
800.25	20.457
800.55	20.178
800.85	20.199
801.16	20.528
801.46	20.197
801.77	19.867
802.07	20.418
802.37	20.454
802.68	20.469
802.98	20.458
803.28	20.192
803.59	20.484
803.89	20.639
804.20	20.532
804.50	20.394
804.80	20.739
805.11	21.143
805.41	20.636
805.71	20.752
806.02	20.506
806.32	20.748
806.62	20.664
806.93	20.881
807.23	21.007
807.53	20.930
807.83	21.004
808.14	20.824
808.44	20.788
808.74	21.059
809.05	20.367
809.35	20.152
809.65	20.031
809.95	19.710
810.26	19.642
810.56	19.495
810.86	19.416
811.16	19.071
811.47	19.104
811.77	18.990
812.07	18.992
812.37	19.443
812.68	20.032
812.98	20.058
813.28	20.353
813.58	20.215
813.88	20.407
814.19	21.075
814.49	21.418
814.79	21.403
815.09	21.317
815.39	21.222
815.70	21.824
816.00	21.686
816.30	21.647
816.60	21.895
816.90	22.020
817.20	21.984
817.50	21.552
817.81	21.265
818.11	21.240
818.41	21.175
818.71	21.340
819.01	21.377
819.31	21.516
819.61	21.499
819.92	21.578
820.22	21.605
820.52	21.707
820.82	21.838
821.12	21.992
821.42	22.088
821.72	22.232
822.02	22.207
822.32	22.250
822.62	22.221
822.92	22.298
823.22	22.250
823.52	22.275
823.83	22.188
824.13	22.166
824.43	22.126
824.73	22.039
825.03	21.873
825.33	21.959
825.63	21.766
825.93	21.792
826.23	21.689
826.53	21.620
826.83	21.549
827.13	21.628
827.43	21.718
827.73	21.645
828.03	21.721
828.33	21.654
828.63	21.725
828.93	21.641
829.23	21.504
829.53	21.526
829.83	21.663
830.13	21.253
830.42	21.008
830.72	20.642
831.02	20.491
831.32	20.500
831.62	20.655
831.92	20.345
832.22	20.523
832.52	20.710
832.82	20.635
833.12	20.736
833.42	20.922
833.72	21.073
834.01	21.139
834.31	21.009
834.61	20.873
834.91	21.041
835.21	20.948
835.51	20.814
835.81	20.413
836.11	20.572
836.40	20.447
836.70	20.447
837.00	19.876
837.30	19.849
837.60	20.000
837.90	19.862
838.19	19.484
838.49	19.957
838.79	20.579
839.09	20.305
839.39	20.146
839.68	20.048
839.98	19.745
840.28	20.405
840.58	20.599
840.88	20.620
841.17	20.289
841.47	20.335
841.77	19.711
842.07	18.971
842.36	19.363
842.66	18.893
842.96	18.083
843.26	17.655
843.55	16.197
843.85	14.287
844.15	13.300
844.45	13.240
844.74	12.336
845.04	12.658
845.34	12.226
845.63	12.125
845.93	12.175
846.23	14.042
846.53	14.647
846.82	14.584
847.12	15.788
847.42	17.232
847.71	16.468
848.01	15.962
848.31	15.112
848.60	16.284
848.90	16.654
849.19	16.546
849.49	16.302
849.79	16.969
850.08	17.416
850.38	17.150
850.68	16.262
850.97	16.982
851.27	18.769
851.56	19.357
851.86	18.488
852.16	17.359
852.45	16.687
852.75	15.974
853.04	17.138
853.34	17.825
853.64	17.053
853.93	17.412
854.23	17.061
854.52	16.561
854.82	15.930
855.11	15.678
855.41	17.003
855.70	16.985
856.00	16.606
856.30	14.868
856.59	13.026
856.89	12.857
857.18	12.563
857.48	13.915
857.77	14.583
858.07	15.213
858.36	14.642
858.66	13.548
858.95	13.681
859.25	12.475
859.54	12.595
859.84	15.767
860.13	16.543
860.42	15.522
860.72	14.998
861.01	13.739
861.31	12.664
861.60	12.782
861.90	13.211
862.19	14.248
862.49	15.269
862.78	12.930
863.07	10.412
863.37	11.770
863.66	11.970
863.96	11.535
864.25	13.182
864.54	14.437
864.84	15.378
865.13	15.048
865.43	15.027
865.72	28.657
866.01	21.676
866.31	22.493
866.60	12.152
866.89	20.512
>>>>>End Spectral Data<<<<<
