OOIBase32 Version 2.0.0.6 Data File
++++++++++++++++++++++++++++++++++++
Date: 01-20-2012, 23:16:17
User: Valued Ocean Optics Customer
Spectrometer Serial Number: USB2E2917
Spectrometer Channel: Master
Integration Time (msec): 3
Spectra Averaged: 10
Boxcar Smoothing: 5
Correct for Electrical Dark: Enabled
Time Normalized: Disabled
Dual-beam Reference: Disabled
Reference Channel: Master
Temperature: Not acquired
Spectrometer Type: S2000
ADC Type: USB2000
Number of Pixels in File: 2048
Graph Title: 
>>>>>Begin Spectral Data<<<<<
180.30	0.000
180.67	0.000
181.03	-57.163
181.40	-50.793
181.77	98.241
182.14	-3952.076
182.51	5.872
182.88	-143.222
183.25	-200.885
183.62	1090.624
183.99	4.594
184.36	27.088
184.73	464.441
185.10	42.222
185.46	-310.999
185.83	-90.756
186.20	163.798
186.57	-1.743
186.94	100.459
187.31	24.260
187.68	11.092
188.05	157.836
188.42	108.699
188.78	62.268
189.15	41.967
189.52	40.876
189.89	45.258
190.26	49.867
190.63	36.051
191.00	24.204
191.37	21.990
191.73	0.657
192.10	14.342
192.47	10.967
192.84	-8.349
193.21	0.488
193.58	-17.370
193.94	-10.968
194.31	-29.160
194.68	-38.866
195.05	-28.486
195.42	-24.439
195.79	-13.307
196.15	-21.503
196.52	7.056
196.89	55.398
197.26	66.906
197.63	64.210
198.00	24.751
198.36	26.395
198.73	206.972
199.10	577.422
199.47	68.658
199.84	-55.582
200.20	-81.993
200.57	-219.271
200.94	-1911.016
201.31	-638.296
201.68	-255.074
202.04	-80.586
202.41	-59.789
202.78	-62.473
203.15	-47.145
203.51	-60.157
203.88	-98.559
204.25	-97.516
204.62	-70.073
204.98	-36.956
205.35	-47.719
205.72	-53.333
206.09	-23.561
206.46	-18.180
206.82	14.969
207.19	-5.119
207.56	8.861
207.92	36.275
208.29	32.725
208.66	19.814
209.03	14.363
209.39	19.254
209.76	9.385
210.13	-3.896
210.50	6.072
210.86	33.735
211.23	28.220
211.60	22.158
211.96	9.385
212.33	5.293
212.70	9.679
213.07	31.365
213.43	33.123
213.80	34.851
214.17	40.176
214.53	56.583
214.90	36.117
215.27	42.951
215.63	44.615
216.00	57.976
216.37	56.274
216.74	51.142
217.10	34.614
217.47	38.860
217.84	35.515
218.20	40.487
218.57	23.222
218.94	16.954
219.30	8.016
219.67	6.483
220.04	-0.334
220.40	5.577
220.77	2.882
221.13	4.040
221.50	0.570
221.87	2.720
222.23	-13.799
222.60	-7.890
222.97	-6.838
223.33	3.311
223.70	5.847
224.07	4.790
224.43	5.522
224.80	8.082
225.16	8.819
225.53	10.081
225.90	9.666
226.26	11.372
226.63	11.061
226.99	10.947
227.36	11.006
227.73	10.370
228.09	9.823
228.46	9.471
228.82	8.999
229.19	8.988
229.56	8.135
229.92	8.019
230.29	6.626
230.65	6.462
231.02	7.476
231.38	5.522
231.75	4.119
232.12	4.354
232.48	4.962
232.85	4.891
233.21	5.368
233.58	4.350
233.94	4.973
234.31	5.243
234.68	5.134
235.04	4.320
235.41	5.523
235.77	7.051
236.14	7.290
236.50	7.215
236.87	7.456
237.23	6.492
237.60	6.372
237.96	5.055
238.33	5.863
238.69	4.634
239.06	3.962
239.42	4.002
239.79	3.359
240.15	2.587
240.52	1.784
240.88	1.425
241.25	1.433
241.61	1.168
241.98	1.437
242.34	1.324
242.71	1.617
243.07	1.654
243.44	1.424
243.80	1.560
244.17	2.133
244.53	2.678
244.90	2.808
245.26	3.228
245.63	3.483
245.99	3.344
246.36	3.440
246.72	3.403
247.09	3.594
247.45	3.589
247.81	3.689
248.18	3.580
248.54	3.188
248.91	3.528
249.27	3.340
249.64	3.117
250.00	3.185
250.36	2.852
250.73	3.064
251.09	3.171
251.46	3.125
251.82	2.623
252.19	2.389
252.55	2.886
252.91	2.264
253.28	1.647
253.64	1.853
254.01	1.884
254.37	2.358
254.73	2.496
255.10	2.366
255.46	2.598
255.83	2.738
256.19	2.851
256.55	2.822
256.92	2.893
257.28	3.014
257.65	3.218
258.01	3.361
258.37	3.277
258.74	3.447
259.10	3.376
259.46	3.352
259.83	3.568
260.19	3.682
260.55	3.756
260.92	3.818
261.28	3.654
261.64	3.428
262.01	3.167
262.37	3.041
262.73	2.836
263.10	3.104
263.46	3.003
263.82	2.977
264.19	2.871
264.55	2.322
264.91	2.307
265.28	2.329
265.64	2.368
266.00	2.611
266.37	2.616
266.73	2.522
267.09	2.333
267.46	2.784
267.82	2.871
268.18	2.850
268.54	3.179
268.91	3.509
269.27	3.723
269.63	3.704
270.00	3.591
270.36	3.694
270.72	3.715
271.08	3.816
271.45	3.491
271.81	3.210
272.17	3.275
272.53	3.260
272.90	2.794
273.26	2.308
273.62	2.119
273.98	2.246
274.35	2.540
274.71	2.670
275.07	2.318
275.43	2.177
275.80	2.326
276.16	1.800
276.52	1.708
276.88	1.764
277.25	2.398
277.61	2.492
277.97	2.400
278.33	1.939
278.69	1.734
279.06	1.738
279.42	2.200
279.78	2.276
280.14	2.471
280.50	2.353
280.87	2.523
281.23	2.498
281.59	2.637
281.95	2.417
282.31	2.497
282.68	2.704
283.04	2.851
283.40	2.685
283.76	2.699
284.12	2.678
284.48	2.882
284.85	2.908
285.21	2.919
285.57	2.749
285.93	2.975
286.29	3.045
286.65	2.761
287.02	2.899
287.38	2.800
287.74	2.829
288.10	3.046
288.46	2.983
288.82	2.952
289.18	2.957
289.54	2.855
289.91	2.715
290.27	2.676
290.63	2.789
290.99	2.726
291.35	2.814
291.71	2.703
292.07	2.515
292.43	2.629
292.79	2.553
293.16	2.531
293.52	2.955
293.88	2.975
294.24	2.978
294.60	3.125
294.96	3.129
295.32	3.033
295.68	2.997
296.04	3.076
296.40	2.946
296.76	3.077
297.12	3.141
297.49	2.952
297.85	2.865
298.21	2.934
298.57	3.029
298.93	3.054
299.29	3.271
299.65	3.469
300.01	3.575
300.37	3.767
300.73	3.692
301.09	3.641
301.45	3.610
301.81	3.907
302.17	3.907
302.53	3.912
302.89	3.987
303.25	4.043
303.61	4.038
303.97	4.117
304.33	4.028
304.69	3.904
305.05	3.982
305.41	4.167
305.77	4.222
306.13	4.197
306.49	4.098
306.85	4.054
307.21	3.990
307.57	3.943
307.93	3.826
308.29	3.880
308.65	4.125
309.01	4.203
309.37	4.258
309.73	4.222
310.09	4.395
310.45	4.337
310.81	4.315
311.17	4.256
311.53	4.293
311.89	4.438
312.25	4.490
312.61	4.390
312.96	4.327
313.32	4.280
313.68	4.299
314.04	4.192
314.40	4.374
314.76	4.417
315.12	4.617
315.48	4.566
315.84	4.435
316.20	4.399
316.56	4.560
316.92	4.726
317.27	4.751
317.63	4.726
317.99	4.810
318.35	4.709
318.71	4.706
319.07	4.660
319.43	4.710
319.79	4.731
320.15	4.674
320.50	4.641
320.86	4.508
321.22	4.562
321.58	4.650
321.94	4.561
322.30	4.544
322.66	4.565
323.01	4.520
323.37	4.421
323.73	4.377
324.09	4.347
324.45	4.269
324.81	4.254
325.17	4.123
325.52	4.047
325.88	4.145
326.24	4.136
326.60	4.154
326.96	4.282
327.31	4.554
327.67	4.696
328.03	4.750
328.39	4.798
328.75	4.787
329.11	4.894
329.46	4.875
329.82	4.647
330.18	4.616
330.54	4.572
330.90	4.376
331.25	4.295
331.61	4.211
331.97	4.314
332.33	4.320
332.68	4.311
333.04	4.221
333.40	4.263
333.76	4.387
334.11	4.485
334.47	4.500
334.83	4.576
335.19	4.504
335.54	4.558
335.90	4.401
336.26	4.302
336.62	4.318
336.97	4.328
337.33	4.299
337.69	4.343
338.05	4.286
338.40	4.256
338.76	4.287
339.12	4.399
339.48	4.363
339.83	4.419
340.19	4.478
340.55	4.502
340.90	4.580
341.26	4.575
341.62	4.534
341.97	4.521
342.33	4.527
342.69	4.468
343.04	4.409
343.40	4.420
343.76	4.336
344.12	4.302
344.47	4.140
344.83	4.067
345.19	4.004
345.54	3.976
345.90	3.978
346.26	3.912
346.61	3.902
346.97	3.831
347.32	3.693
347.68	3.753
348.04	3.790
348.39	3.933
348.75	3.980
349.11	4.042
349.46	4.056
349.82	4.070
350.18	4.140
350.53	4.110
350.89	4.218
351.24	4.358
351.60	4.403
351.96	4.380
352.31	4.333
352.67	4.375
353.02	4.401
353.38	4.401
353.74	4.458
354.09	4.474
354.45	4.505
354.80	4.428
355.16	4.416
355.52	4.407
355.87	4.432
356.23	4.442
356.58	4.319
356.94	4.230
357.29	4.265
357.65	4.247
358.00	4.207
358.36	4.233
358.72	4.325
359.07	4.292
359.43	4.217
359.78	4.202
360.14	4.189
360.49	4.301
360.85	4.377
361.20	4.376
361.56	4.366
361.91	4.364
362.27	4.277
362.62	4.167
362.98	4.149
363.33	4.246
363.69	4.212
364.04	4.271
364.40	4.204
364.75	4.199
365.11	4.179
365.46	4.140
365.82	4.203
366.17	4.259
366.53	4.262
366.88	4.305
367.24	4.265
367.59	4.275
367.95	4.299
368.30	4.371
368.66	4.378
369.01	4.345
369.37	4.370
369.72	4.414
370.08	4.459
370.43	4.530
370.78	4.576
371.14	4.594
371.49	4.585
371.85	4.550
372.20	4.506
372.56	4.427
372.91	4.451
373.26	4.479
373.62	4.397
373.97	4.351
374.33	4.274
374.68	4.270
375.03	4.284
375.39	4.351
375.74	4.347
376.10	4.345
376.45	4.370
376.80	4.364
377.16	4.294
377.51	4.265
377.87	4.267
378.22	4.350
378.57	4.364
378.93	4.381
379.28	4.385
379.63	4.402
379.99	4.382
380.34	4.419
380.70	4.448
381.05	4.445
381.40	4.505
381.76	4.515
382.11	4.491
382.46	4.470
382.82	4.442
383.17	4.372
383.52	4.347
383.88	4.370
384.23	4.383
384.58	4.380
384.94	4.452
385.29	4.380
385.64	4.386
385.99	4.355
386.35	4.348
386.70	4.351
387.05	4.329
387.41	4.319
387.76	4.317
388.11	4.317
388.47	4.282
388.82	4.293
389.17	4.347
389.52	4.375
389.88	4.398
390.23	4.392
390.58	4.392
390.93	4.417
391.29	4.418
391.64	4.399
391.99	4.347
392.34	4.344
392.70	4.311
393.05	4.287
393.40	4.289
393.75	4.285
394.11	4.257
394.46	4.262
394.81	4.273
395.16	4.253
395.52	4.266
395.87	4.307
396.22	4.350
396.57	4.326
396.92	4.320
397.28	4.312
397.63	4.322
397.98	4.301
398.33	4.303
398.68	4.332
399.04	4.399
399.39	4.403
399.74	4.357
400.09	4.396
400.44	4.413
400.80	4.441
401.15	4.401
401.50	4.399
401.85	4.443
402.20	4.422
402.55	4.399
402.90	4.383
403.26	4.421
403.61	4.464
403.96	4.452
404.31	4.491
404.66	4.516
405.01	4.564
405.36	4.591
405.72	4.550
406.07	4.574
406.42	4.604
406.77	4.675
407.12	4.644
407.47	4.684
407.82	4.672
408.17	4.667
408.53	4.627
408.88	4.662
409.23	4.670
409.58	4.732
409.93	4.794
410.28	4.777
410.63	4.742
410.98	4.760
411.33	4.707
411.68	4.704
412.03	4.691
412.38	4.721
412.73	4.682
413.09	4.677
413.44	4.711
413.79	4.660
414.14	4.709
414.49	4.698
414.84	4.730
415.19	4.766
415.54	4.794
415.89	4.830
416.24	4.833
416.59	4.849
416.94	4.863
417.29	4.873
417.64	4.908
417.99	4.921
418.34	4.937
418.69	4.928
419.04	4.952
419.39	4.955
419.74	4.982
420.09	4.997
420.44	5.015
420.79	5.026
421.14	5.027
421.49	5.031
421.84	5.024
422.19	5.036
422.54	5.048
422.89	5.050
423.24	5.065
423.59	5.047
423.94	5.073
424.29	5.110
424.64	5.150
424.99	5.157
425.34	5.196
425.68	5.249
426.03	5.299
426.38	5.337
426.73	5.382
427.08	5.431
427.43	5.462
427.78	5.480
428.13	5.501
428.48	5.503
428.83	5.536
429.18	5.579
429.53	5.585
429.87	5.564
430.22	5.585
430.57	5.616
430.92	5.636
431.27	5.653
431.62	5.673
431.97	5.690
432.32	5.715
432.67	5.732
433.01	5.698
433.36	5.737
433.71	5.796
434.06	5.825
434.41	5.865
434.76	5.869
435.11	5.909
435.45	5.934
435.80	5.938
436.15	5.974
436.50	6.016
436.85	6.062
437.20	6.087
437.54	6.100
437.89	6.122
438.24	6.125
438.59	6.167
438.94	6.182
439.29	6.213
439.63	6.238
439.98	6.247
440.33	6.260
440.68	6.291
441.03	6.294
441.37	6.304
441.72	6.323
442.07	6.341
442.42	6.351
442.76	6.373
443.11	6.389
443.46	6.427
443.81	6.426
444.16	6.447
444.50	6.456
444.85	6.477
445.20	6.490
445.55	6.514
445.89	6.515
446.24	6.522
446.59	6.544
446.94	6.549
447.28	6.541
447.63	6.571
447.98	6.581
448.32	6.602
448.67	6.596
449.02	6.609
449.37	6.642
449.71	6.678
450.06	6.700
450.41	6.711
450.75	6.715
451.10	6.728
451.45	6.738
451.79	6.748
452.14	6.749
452.49	6.784
452.84	6.792
453.18	6.791
453.53	6.825
453.88	6.865
454.22	6.892
454.57	6.933
454.92	6.931
455.26	6.957
455.61	6.996
455.95	7.016
456.30	7.053
456.65	7.100
456.99	7.138
457.34	7.141
457.69	7.140
458.03	7.154
458.38	7.181
458.73	7.240
459.07	7.277
459.42	7.314
459.76	7.353
460.11	7.392
460.46	7.443
460.80	7.452
461.15	7.489
461.49	7.547
461.84	7.590
462.19	7.629
462.53	7.646
462.88	7.678
463.22	7.680
463.57	7.710
463.91	7.704
464.26	7.722
464.61	7.738
464.95	7.752
465.30	7.791
465.64	7.835
465.99	7.886
466.33	7.936
466.68	7.979
467.02	8.031
467.37	8.070
467.71	8.115
468.06	8.130
468.41	8.204
468.75	8.237
469.10	8.276
469.44	8.315
469.79	8.319
470.13	8.339
470.48	8.343
470.82	8.352
471.17	8.371
471.51	8.405
471.86	8.451
472.20	8.441
472.55	8.491
472.89	8.498
473.23	8.498
473.58	8.522
473.92	8.539
474.27	8.550
474.61	8.583
474.96	8.591
475.30	8.589
475.65	8.594
475.99	8.619
476.34	8.623
476.68	8.625
477.02	8.620
477.37	8.605
477.71	8.601
478.06	8.634
478.40	8.647
478.75	8.673
479.09	8.723
479.43	8.750
479.78	8.783
480.12	8.823
480.47	8.846
480.81	8.891
481.15	8.935
481.50	8.978
481.84	9.010
482.19	9.046
482.53	9.091
482.87	9.114
483.22	9.142
483.56	9.163
483.90	9.173
484.25	9.189
484.59	9.201
484.94	9.201
485.28	9.203
485.62	9.197
485.97	9.196
486.31	9.196
486.65	9.207
487.00	9.233
487.34	9.257
487.68	9.288
488.03	9.330
488.37	9.359
488.71	9.399
489.06	9.432
489.40	9.479
489.74	9.505
490.09	9.532
490.43	9.570
490.77	9.589
491.11	9.623
491.46	9.661
491.80	9.693
492.14	9.740
492.49	9.802
492.83	9.859
493.17	9.934
493.51	10.026
493.86	10.107
494.20	10.184
494.54	10.282
494.88	10.351
495.23	10.436
495.57	10.517
495.91	10.595
496.25	10.667
496.60	10.771
496.94	10.864
497.28	10.960
497.62	11.063
497.97	11.171
498.31	11.265
498.65	11.373
498.99	11.475
499.33	11.607
499.68	11.721
500.02	11.841
500.36	11.948
500.70	12.057
501.04	12.166
501.39	12.286
501.73	12.397
502.07	12.548
502.41	12.694
502.75	12.854
503.09	12.991
503.44	13.122
503.78	13.283
504.12	13.439
504.46	13.585
504.80	13.739
505.14	13.895
505.49	14.036
505.83	14.153
506.17	14.296
506.51	14.433
506.85	14.553
507.19	14.684
507.53	14.811
507.87	14.933
508.22	15.073
508.56	15.214
508.90	15.347
509.24	15.482
509.58	15.618
509.92	15.745
510.26	15.862
510.60	16.015
510.94	16.178
511.28	16.318
511.63	16.481
511.97	16.620
512.31	16.758
512.65	16.903
512.99	17.078
513.33	17.238
513.67	17.404
514.01	17.552
514.35	17.703
514.69	17.838
515.03	18.007
515.37	18.125
515.71	18.264
516.05	18.388
516.39	18.526
516.73	18.636
517.07	18.752
517.41	18.865
517.75	19.005
518.09	19.120
518.43	19.265
518.77	19.379
519.11	19.490
519.45	19.604
519.79	19.752
520.13	19.887
520.47	20.023
520.81	20.165
521.15	20.314
521.49	20.449
521.83	20.561
522.17	20.682
522.51	20.803
522.85	20.980
523.19	21.154
523.53	21.317
523.87	21.508
524.21	21.707
524.55	21.900
524.89	22.069
525.23	22.214
525.57	22.365
525.91	22.498
526.25	22.624
526.58	22.731
526.92	22.837
527.26	22.932
527.60	23.009
527.94	23.078
528.28	23.133
528.62	23.175
528.96	23.245
529.30	23.316
529.64	23.359
529.97	23.421
530.31	23.466
530.65	23.521
530.99	23.582
531.33	23.645
531.67	23.732
532.01	23.820
532.35	23.910
532.68	23.964
533.02	24.020
533.36	24.079
533.70	24.111
534.04	24.192
534.38	24.241
534.71	24.294
535.05	24.371
535.39	24.393
535.73	24.450
536.07	24.534
536.41	24.633
536.74	24.727
537.08	24.843
537.42	24.943
537.76	25.017
538.10	25.136
538.43	25.251
538.77	25.332
539.11	25.427
539.45	25.486
539.79	25.540
540.12	25.610
540.46	25.658
540.80	25.695
541.14	25.756
541.47	25.813
541.81	25.844
542.15	25.860
542.49	25.903
542.82	25.945
543.16	25.984
543.50	26.007
543.84	26.037
544.17	26.071
544.51	26.117
544.85	26.165
545.18	26.209
545.52	26.264
545.86	26.310
546.20	26.314
546.53	26.344
546.87	26.394
547.21	26.458
547.54	26.522
547.88	26.559
548.22	26.603
548.55	26.630
548.89	26.681
549.23	26.703
549.56	26.782
549.90	26.850
550.24	26.895
550.57	26.953
550.91	26.987
551.25	26.975
551.58	27.043
551.92	27.099
552.26	27.171
552.59	27.204
552.93	27.241
553.27	27.281
553.60	27.324
553.94	27.394
554.27	27.418
554.61	27.492
554.95	27.532
555.28	27.578
555.62	27.603
555.95	27.606
556.29	27.640
556.63	27.686
556.96	27.713
557.30	27.742
557.63	27.742
557.97	27.791
558.31	27.837
558.64	27.906
558.98	27.961
559.31	28.032
559.65	28.075
559.98	28.098
560.32	28.130
560.65	28.163
560.99	28.224
561.33	28.258
561.66	28.254
562.00	28.271
562.33	28.283
562.67	28.286
563.00	28.316
563.34	28.334
563.67	28.362
564.01	28.390
564.34	28.440
564.68	28.451
565.01	28.468
565.35	28.521
565.68	28.571
566.02	28.585
566.35	28.586
566.69	28.586
567.02	28.615
567.36	28.655
567.69	28.669
568.03	28.661
568.36	28.708
568.69	28.725
569.03	28.739
569.36	28.686
569.70	28.693
570.03	28.738
570.37	28.741
570.70	28.770
571.04	28.783
571.37	28.853
571.70	28.887
572.04	28.921
572.37	28.946
572.71	28.969
573.04	29.011
573.37	29.048
573.71	29.081
574.04	29.155
574.38	29.201
574.71	29.206
575.04	29.208
575.38	29.234
575.71	29.221
576.05	29.284
576.38	29.319
576.71	29.370
577.05	29.445
577.38	29.446
577.71	29.442
578.05	29.474
578.38	29.524
578.71	29.535
579.05	29.530
579.38	29.559
579.71	29.573
580.05	29.609
580.38	29.648
580.71	29.578
581.05	29.615
581.38	29.657
581.71	29.631
582.05	29.664
582.38	29.730
582.71	29.805
583.04	29.808
583.38	29.812
583.71	29.796
584.04	29.790
584.38	29.915
584.71	29.965
585.04	29.982
585.37	29.983
585.71	29.954
586.04	29.964
586.37	29.948
586.70	29.990
587.04	29.998
587.37	30.031
587.70	30.090
588.03	30.050
588.37	30.055
588.70	30.061
589.03	30.067
589.36	30.140
589.69	30.104
590.03	30.147
590.36	30.153
590.69	30.145
591.02	30.143
591.35	30.101
591.69	30.102
592.02	30.092
592.35	30.093
592.68	30.130
593.01	30.065
593.35	30.080
593.68	30.073
594.01	30.058
594.34	30.098
594.67	30.137
595.00	30.134
595.34	30.129
595.67	30.154
596.00	30.171
596.33	30.174
596.66	30.243
596.99	30.264
597.32	30.262
597.65	30.295
597.99	30.303
598.32	30.288
598.65	30.307
598.98	30.349
599.31	30.316
599.64	30.282
599.97	30.251
600.30	30.223
600.63	30.196
600.96	30.175
601.30	30.184
601.63	30.177
601.96	30.172
602.29	30.164
602.62	30.177
602.95	30.202
603.28	30.215
603.61	30.261
603.94	30.283
604.27	30.301
604.60	30.357
604.93	30.312
605.26	30.329
605.59	30.319
605.92	30.356
606.25	30.306
606.58	30.287
606.91	30.276
607.24	30.247
607.57	30.285
607.90	30.317
608.23	30.292
608.56	30.337
608.89	30.342
609.22	30.378
609.55	30.376
609.88	30.402
610.21	30.392
610.54	30.438
610.87	30.493
611.20	30.459
611.53	30.398
611.86	30.462
612.19	30.512
612.52	30.486
612.85	30.469
613.18	30.476
613.51	30.544
613.84	30.512
614.17	30.497
614.49	30.503
614.82	30.514
615.15	30.559
615.48	30.535
615.81	30.475
616.14	30.537
616.47	30.556
616.80	30.578
617.13	30.527
617.46	30.606
617.78	30.585
618.11	30.495
618.44	30.512
618.77	30.528
619.10	30.455
619.43	30.452
619.76	30.407
620.09	30.384
620.41	30.367
620.74	30.335
621.07	30.315
621.40	30.279
621.73	30.358
622.06	30.276
622.38	30.213
622.71	30.232
623.04	30.249
623.37	30.277
623.70	30.273
624.02	30.228
624.35	30.211
624.68	30.196
625.01	30.197
625.34	30.141
625.66	30.153
625.99	30.185
626.32	30.194
626.65	30.169
626.98	30.137
627.30	30.125
627.63	30.143
627.96	30.198
628.29	30.180
628.61	30.199
628.94	30.177
629.27	30.231
629.60	30.210
629.92	30.216
630.25	30.190
630.58	30.231
630.91	30.252
631.23	30.223
631.56	30.163
631.89	30.178
632.21	30.201
632.54	30.232
632.87	30.141
633.19	30.133
633.52	30.079
633.85	30.094
634.18	30.023
634.50	29.986
634.83	29.923
635.16	29.924
635.48	29.951
635.81	29.925
636.14	29.935
636.46	29.989
636.79	29.958
637.11	29.968
637.44	29.974
637.77	29.961
638.09	29.938
638.42	30.027
638.75	29.967
639.07	29.926
639.40	29.904
639.73	29.877
640.05	29.880
640.38	29.893
640.70	29.875
641.03	29.861
641.36	29.869
641.68	29.815
642.01	29.809
642.33	29.881
642.66	29.787
642.98	29.816
643.31	29.832
643.64	29.791
643.96	29.820
644.29	29.822
644.61	29.787
644.94	29.767
645.26	29.772
645.59	29.673
645.91	29.620
646.24	29.676
646.56	29.624
646.89	29.538
647.22	29.484
647.54	29.436
647.87	29.442
648.19	29.458
648.52	29.444
648.84	29.411
649.17	29.487
649.49	29.531
649.82	29.512
650.14	29.449
650.47	29.520
650.79	29.573
651.11	29.550
651.44	29.482
651.76	29.426
652.09	29.401
652.41	29.482
652.74	29.378
653.06	29.291
653.39	29.270
653.71	29.335
654.04	29.297
654.36	29.218
654.68	29.197
655.01	29.221
655.33	29.172
655.66	29.158
655.98	29.085
656.30	29.146
656.63	29.196
656.95	29.272
657.28	29.183
657.60	29.135
657.92	29.155
658.25	29.161
658.57	29.157
658.90	29.230
659.22	29.229
659.54	29.173
659.87	29.172
660.19	29.195
660.51	29.107
660.84	29.219
661.16	29.225
661.48	29.221
661.81	29.159
662.13	29.056
662.45	29.076
662.78	29.005
663.10	29.065
663.42	28.992
663.75	28.877
664.07	28.917
664.39	28.803
664.72	28.844
665.04	28.785
665.36	28.861
665.69	28.864
666.01	28.785
666.33	28.779
666.65	28.799
666.98	28.759
667.30	28.791
667.62	28.691
667.94	28.680
668.27	28.624
668.59	28.559
668.91	28.440
669.23	28.471
669.56	28.438
669.88	28.415
670.20	28.288
670.52	28.341
670.85	28.260
671.17	28.211
671.49	28.228
671.81	28.116
672.13	28.132
672.46	28.127
672.78	28.094
673.10	28.134
673.42	28.230
673.74	28.354
674.07	28.301
674.39	28.347
674.71	28.341
675.03	28.245
675.35	28.373
675.67	28.366
676.00	28.380
676.32	28.463
676.64	28.324
676.96	28.215
677.28	28.133
677.60	28.100
677.92	28.044
678.25	27.990
678.57	27.985
678.89	27.875
679.21	27.860
679.53	27.892
679.85	27.801
680.17	27.820
680.49	27.838
680.81	27.852
681.13	27.926
681.46	27.962
681.78	28.008
682.10	28.057
682.42	28.061
682.74	28.031
683.06	27.978
683.38	27.914
683.70	27.925
684.02	27.886
684.34	27.874
684.66	27.820
684.98	27.816
685.30	27.802
685.62	27.786
685.94	27.782
686.26	27.828
686.58	27.850
686.90	27.982
687.22	27.982
687.54	27.927
687.86	27.837
688.18	27.714
688.50	27.667
688.82	27.672
689.14	27.670
689.46	27.672
689.78	27.660
690.10	27.589
690.42	27.519
690.74	27.470
691.06	27.531
691.38	27.529
691.70	27.513
692.02	27.457
692.34	27.385
692.66	27.338
692.98	27.327
693.30	27.299
693.62	27.171
693.94	27.006
694.26	27.005
694.57	26.894
694.89	26.963
695.21	26.930
695.53	26.898
695.85	26.883
696.17	26.865
696.49	26.866
696.81	26.783
697.13	26.873
697.44	26.900
697.76	26.835
698.08	26.836
698.40	26.813
698.72	26.906
699.04	26.970
699.36	26.943
699.67	26.801
699.99	26.724
700.31	26.695
700.63	26.672
700.95	26.666
701.27	26.686
701.58	26.647
701.90	26.636
702.22	26.634
702.54	26.585
702.86	26.626
703.17	26.743
703.49	26.713
703.81	26.703
704.13	26.490
704.45	26.411
704.76	26.315
705.08	26.438
705.40	26.342
705.72	26.229
706.03	26.183
706.35	26.217
706.67	26.279
706.99	26.292
707.30	26.403
707.62	26.451
707.94	26.466
708.26	26.529
708.57	26.506
708.89	26.492
709.21	26.482
709.53	26.559
709.84	26.459
710.16	26.313
710.48	26.325
710.79	26.273
711.11	26.345
711.43	26.322
711.74	26.278
712.06	26.157
712.38	26.209
712.69	26.219
713.01	26.063
713.33	26.004
713.64	26.154
713.96	26.078
714.28	26.170
714.59	26.183
714.91	26.264
715.23	26.253
715.54	26.408
715.86	26.316
716.17	26.386
716.49	26.514
716.81	26.554
717.12	26.257
717.44	26.302
717.76	25.955
718.07	25.795
718.39	25.683
718.70	25.715
719.02	25.586
719.33	25.589
719.65	25.452
719.97	25.292
720.28	25.505
720.60	25.745
720.91	25.837
721.23	25.921
721.54	26.138
721.86	26.118
722.17	25.970
722.49	26.098
722.81	26.064
723.12	26.119
723.44	26.160
723.75	26.032
724.07	26.012
724.38	25.944
724.70	26.042
725.01	25.942
725.33	25.991
725.64	26.242
725.96	26.206
726.27	26.293
726.59	26.229
726.90	26.193
727.22	25.997
727.53	25.767
727.84	25.630
728.16	25.666
728.47	25.578
728.79	25.559
729.10	25.473
729.42	25.373
729.73	25.252
730.05	25.213
730.36	25.189
730.67	25.142
730.99	25.316
731.30	25.308
731.62	25.226
731.93	25.185
732.24	25.128
732.56	24.941
732.87	24.840
733.19	24.894
733.50	24.786
733.81	24.764
734.13	24.868
734.44	24.790
734.76	24.867
735.07	24.775
735.38	24.724
735.70	24.878
736.01	24.992
736.32	24.989
736.64	25.037
736.95	25.121
737.26	25.147
737.58	25.156
737.89	25.212
738.20	25.149
738.52	25.052
738.83	25.185
739.14	25.013
739.45	24.962
739.77	25.088
740.08	24.982
740.39	24.939
740.71	24.791
741.02	24.726
741.33	24.766
741.64	24.537
741.96	24.680
742.27	24.442
742.58	24.271
742.90	24.170
743.21	23.949
743.52	23.919
743.83	23.749
744.14	23.795
744.46	23.907
744.77	23.682
745.08	24.119
745.39	24.136
745.71	24.217
746.02	24.466
746.33	24.617
746.64	24.616
746.95	24.380
747.27	24.858
747.58	24.833
747.89	24.689
748.20	24.619
748.51	24.351
748.82	24.059
749.14	24.263
749.45	24.234
749.76	24.163
750.07	24.199
750.38	24.318
750.69	24.076
751.01	24.377
751.32	24.384
751.63	24.646
751.94	24.539
752.25	24.771
752.56	24.431
752.87	24.216
753.18	24.066
753.49	23.892
753.81	23.780
754.12	23.550
754.43	23.147
754.74	23.065
755.05	23.046
755.36	22.997
755.67	22.932
755.98	23.027
756.29	23.218
756.60	23.247
756.91	23.341
757.22	23.522
757.53	23.612
757.84	23.570
758.15	23.728
758.46	23.771
758.77	23.918
759.09	24.032
759.40	23.997
759.71	23.909
760.02	23.882
760.33	23.927
760.64	23.989
760.95	24.011
761.26	24.057
761.57	23.926
761.88	23.884
762.18	23.947
762.49	23.913
762.80	23.937
763.11	23.909
763.42	23.813
763.73	23.827
764.04	23.760
764.35	23.830
764.66	23.891
764.97	23.986
765.28	23.827
765.59	23.702
765.90	23.582
766.21	23.732
766.52	23.696
766.83	23.768
767.14	23.620
767.44	23.407
767.75	23.206
768.06	23.043
768.37	22.621
768.68	22.494
768.99	22.508
769.30	22.417
769.61	22.108
769.91	22.172
770.22	22.128
770.53	22.322
770.84	22.553
771.15	22.489
771.46	22.373
771.77	22.651
772.07	22.809
772.38	22.533
772.69	22.409
773.00	22.407
773.31	22.498
773.61	22.511
773.92	22.289
774.23	22.004
774.54	22.013
774.85	22.324
775.15	22.226
775.46	22.227
775.77	22.245
776.08	22.378
776.39	22.296
776.69	21.894
777.00	21.753
777.31	21.928
777.62	22.020
777.92	22.012
778.23	21.744
778.54	21.801
778.85	21.634
779.15	21.872
779.46	22.089
779.77	22.224
780.07	22.307
780.38	22.600
780.69	22.648
781.00	22.637
781.30	22.694
781.61	23.059
781.92	23.148
782.22	23.249
782.53	23.323
782.84	23.109
783.14	22.889
783.45	23.230
783.76	23.338
784.06	23.170
784.37	23.494
784.68	23.511
784.98	23.098
785.29	22.891
785.60	23.469
785.90	23.507
786.21	23.766
786.51	23.756
786.82	23.575
787.13	23.409
787.43	23.197
787.74	23.136
788.04	22.882
788.35	22.974
788.66	22.757
788.96	22.129
789.27	21.854
789.57	21.764
789.88	21.915
790.19	21.905
790.49	21.687
790.80	22.004
791.10	21.590
791.41	21.824
791.71	21.940
792.02	22.134
792.32	22.214
792.63	22.320
792.93	22.204
793.24	22.310
793.54	21.999
793.85	22.362
794.15	22.519
794.46	22.843
794.76	22.925
795.07	23.144
795.37	23.377
795.68	23.276
795.98	22.867
796.29	23.011
796.59	22.810
796.90	23.526
797.20	23.556
797.51	23.431
797.81	23.171
798.12	22.782
798.42	22.413
798.72	22.488
799.03	22.755
799.33	23.191
799.64	22.780
799.94	22.771
800.25	22.306
800.55	22.152
800.85	22.068
801.16	21.789
801.46	22.119
801.77	22.032
802.07	21.717
802.37	21.554
802.68	21.639
802.98	21.690
803.28	21.435
803.59	21.484
803.89	21.508
804.20	21.647
804.50	22.331
804.80	22.365
805.11	22.299
805.41	23.070
805.71	22.747
806.02	22.872
806.32	22.885
806.62	23.467
806.93	23.340
807.23	23.570
807.53	23.707
807.83	23.767
808.14	23.795
808.44	24.315
808.74	23.741
809.05	24.452
809.35	24.116
809.65	24.434
809.95	24.703
810.26	24.750
810.56	24.491
810.86	23.979
811.16	23.359
811.47	23.308
811.77	23.033
812.07	22.636
812.37	22.435
812.68	23.051
812.98	23.066
813.28	22.709
813.58	22.634
813.88	22.251
814.19	22.647
814.49	22.918
814.79	22.817
815.09	22.737
815.39	23.418
815.70	23.000
816.00	22.584
816.30	22.543
816.60	22.493
816.90	22.894
817.20	23.174
817.50	22.848
817.81	22.844
818.11	23.095
818.41	23.425
818.71	23.576
819.01	23.789
819.31	23.758
819.61	23.920
819.92	23.932
820.22	23.761
820.52	23.804
820.82	23.808
821.12	23.779
821.42	23.769
821.72	23.702
822.02	23.594
822.32	23.485
822.62	23.468
822.92	23.457
823.22	23.377
823.52	23.346
823.83	23.217
824.13	23.226
824.43	23.256
824.73	23.179
825.03	23.041
825.33	23.030
825.63	23.110
825.93	23.184
826.23	22.883
826.53	22.917
826.83	22.946
827.13	22.960
827.43	22.878
827.73	22.896
828.03	22.986
828.33	23.091
828.63	22.980
828.93	22.630
829.23	22.423
829.53	22.564
829.83	22.279
830.13	22.582
830.42	22.691
830.72	22.914
831.02	23.106
831.32	22.919
831.62	23.205
831.92	23.447
832.22	23.908
832.52	23.800
832.82	23.776
833.12	23.863
833.42	23.568
833.72	23.530
834.01	23.353
834.31	23.184
834.61	23.000
834.91	22.853
835.21	22.444
835.51	22.399
835.81	22.109
836.11	22.144
836.40	21.974
836.70	21.997
837.00	22.055
837.30	21.881
837.60	21.480
837.90	21.845
838.19	21.161
838.49	21.362
838.79	20.814
839.09	21.900
839.39	21.520
839.68	22.029
839.98	22.420
840.28	22.200
840.58	22.433
840.88	22.755
841.17	23.373
841.47	24.209
841.77	24.429
842.07	25.226
842.36	24.003
842.66	24.360
842.96	23.765
843.26	23.018
843.55	24.072
843.85	24.146
844.15	23.511
844.45	22.415
844.74	20.993
845.04	20.922
845.34	19.518
845.63	19.769
845.93	19.127
846.23	19.523
846.53	20.905
846.82	20.071
847.12	20.550
847.42	20.475
847.71	20.432
848.01	20.344
848.31	19.938
848.60	21.093
848.90	22.039
849.19	22.600
849.49	22.425
849.79	21.727
850.08	22.158
850.38	22.545
850.68	23.374
850.97	23.677
851.27	24.836
851.56	25.123
851.86	25.012
852.16	25.991
852.45	23.967
852.75	25.509
853.04	24.787
853.34	24.346
853.64	21.159
853.93	21.080
854.23	19.594
854.52	19.834
854.82	21.041
855.11	20.066
855.41	17.056
855.70	18.312
856.00	17.203
856.30	18.096
856.59	18.289
856.89	20.996
857.18	20.214
857.48	21.851
857.77	20.765
858.07	20.361
858.36	20.705
858.66	23.266
858.95	24.905
859.25	24.151
859.54	22.208
859.84	22.666
860.13	20.599
860.42	21.975
860.72	21.399
861.01	21.657
861.31	20.637
861.60	21.698
861.90	19.803
862.19	17.879
862.49	18.128
862.78	19.705
863.07	19.697
863.37	20.413
863.66	19.071
863.96	17.902
864.25	18.766
864.54	18.421
864.84	16.057
865.13	16.787
865.43	18.206
865.72	25.762
866.01	10.801
866.31	6.570
866.60	20.635
866.89	28.735
>>>>>End Spectral Data<<<<<
