OOIBase32 Version 2.0.0.6 Data File
++++++++++++++++++++++++++++++++++++
Date: 01-20-2012, 23:19:21
User: Valued Ocean Optics Customer
Spectrometer Serial Number: USB2E2917
Spectrometer Channel: Master
Integration Time (msec): 3
Spectra Averaged: 10
Boxcar Smoothing: 5
Correct for Electrical Dark: Enabled
Time Normalized: Disabled
Dual-beam Reference: Disabled
Reference Channel: Master
Temperature: Not acquired
Spectrometer Type: S2000
ADC Type: USB2000
Number of Pixels in File: 2048
Graph Title: 
>>>>>Begin Spectral Data<<<<<
180.30	0.000
180.67	0.000
181.03	75.422
181.40	-419.905
181.77	479.055
182.14	1452.288
182.51	111.356
182.88	25.239
183.25	-121.134
183.62	911.785
183.99	14.178
184.36	46.578
184.73	84.527
185.10	70.990
185.46	134.989
185.83	520.869
186.20	-216.115
186.57	163.015
186.94	-93.580
187.31	-112.876
187.68	140.297
188.05	44.576
188.42	46.913
188.78	63.613
189.15	55.708
189.52	41.668
189.89	38.596
190.26	42.619
190.63	38.136
191.00	40.826
191.37	32.531
191.73	27.206
192.10	34.928
192.47	48.102
192.84	37.893
193.21	36.266
193.58	35.235
193.94	36.597
194.31	26.207
194.68	18.020
195.05	13.226
195.42	21.523
195.79	29.687
196.15	20.645
196.52	12.206
196.89	16.156
197.26	-11.373
197.63	-36.373
198.00	-146.235
198.36	-322.979
198.73	3327.504
199.10	-8307.393
199.47	1066.539
199.84	-657.628
200.20	-243.140
200.57	-363.028
200.94	-1813.603
201.31	-618.397
201.68	-310.923
202.04	-79.428
202.41	-38.995
202.78	-21.607
203.15	-14.825
203.51	-20.135
203.88	-40.198
204.25	-52.470
204.62	-47.135
204.98	-27.484
205.35	-29.495
205.72	-10.725
206.09	-41.058
206.46	-45.985
206.82	-11.537
207.19	-52.507
207.56	-44.771
207.92	-19.294
208.29	-19.892
208.66	-25.030
209.03	-29.084
209.39	-1.380
209.76	4.103
210.13	21.605
210.50	30.605
210.86	26.080
211.23	24.043
211.60	24.139
211.96	22.323
212.33	16.091
212.70	31.809
213.07	37.457
213.43	29.436
213.80	15.449
214.17	9.005
214.53	8.288
214.90	8.110
215.27	18.880
215.63	22.146
216.00	30.042
216.37	23.909
216.74	18.237
217.10	20.109
217.47	23.343
217.84	34.882
218.20	45.090
218.57	38.273
218.94	35.749
219.30	37.770
219.67	35.825
220.04	31.017
220.40	35.622
220.77	26.828
221.13	25.141
221.50	17.949
221.87	4.490
222.23	-9.649
222.60	-8.983
222.97	-12.327
223.33	-2.879
223.70	-2.601
224.07	-8.491
224.43	-5.024
224.80	0.273
225.16	-0.320
225.53	-0.069
225.90	1.213
226.26	1.759
226.63	3.578
226.99	4.484
227.36	2.822
227.73	2.844
228.09	3.771
228.46	2.248
228.82	2.079
229.19	2.380
229.56	1.423
229.92	3.527
230.29	4.632
230.65	4.442
231.02	4.498
231.38	4.136
231.75	3.641
232.12	4.153
232.48	4.927
232.85	5.331
233.21	5.149
233.58	6.291
233.94	5.293
234.31	4.256
234.68	2.503
235.04	0.665
235.41	1.391
235.77	1.662
236.14	2.389
236.50	4.050
236.87	3.861
237.23	3.395
237.60	1.783
237.96	0.574
238.33	0.972
238.69	0.905
239.06	1.568
239.42	2.379
239.79	1.421
240.15	0.667
240.52	-0.104
240.88	-0.570
241.25	-0.063
241.61	-0.367
241.98	0.055
242.34	0.679
242.71	0.954
243.07	0.961
243.44	0.906
243.80	1.473
244.17	1.893
244.53	2.257
244.90	2.648
245.26	2.787
245.63	3.260
245.99	3.295
246.36	3.059
246.72	2.871
247.09	2.898
247.45	2.873
247.81	2.940
248.18	3.059
248.54	2.729
248.91	2.683
249.27	2.181
249.64	1.807
250.00	1.622
250.36	1.925
250.73	2.321
251.09	2.689
251.46	2.298
251.82	1.986
252.19	1.675
252.55	2.128
252.91	1.906
253.28	2.349
253.64	2.971
254.01	3.176
254.37	3.206
254.73	2.653
255.10	2.382
255.46	2.155
255.83	1.882
256.19	2.123
256.55	2.049
256.92	1.773
257.28	1.621
257.65	1.706
258.01	1.684
258.37	1.521
258.74	1.639
259.10	1.543
259.46	1.570
259.83	1.841
260.19	1.810
260.55	1.874
260.92	2.008
261.28	1.958
261.64	1.623
262.01	1.484
262.37	1.400
262.73	1.473
263.10	1.621
263.46	1.616
263.82	1.710
264.19	1.616
264.55	1.360
264.91	1.747
265.28	1.746
265.64	1.937
266.00	2.356
266.37	2.628
266.73	2.675
267.09	2.564
267.46	2.686
267.82	2.686
268.18	2.710
268.54	2.927
268.91	2.786
269.27	2.774
269.63	2.563
270.00	2.043
270.36	1.716
270.72	1.566
271.08	1.669
271.45	1.695
271.81	1.504
272.17	1.613
272.53	1.640
272.90	1.505
273.26	1.319
273.62	1.266
273.98	1.447
274.35	1.844
274.71	1.848
275.07	1.336
275.43	1.196
275.80	1.165
276.16	0.702
276.52	0.473
276.88	0.450
277.25	1.030
277.61	1.419
277.97	1.691
278.33	1.493
278.69	1.380
279.06	1.499
279.42	1.727
279.78	1.785
280.14	2.009
280.50	2.013
280.87	2.075
281.23	2.002
281.59	1.997
281.95	1.638
282.31	1.600
282.68	1.789
283.04	2.074
283.40	2.033
283.76	2.150
284.12	2.020
284.48	2.197
284.85	2.378
285.21	2.590
285.57	2.241
285.93	2.432
286.29	2.442
286.65	2.353
287.02	2.374
287.38	2.529
287.74	2.515
288.10	2.897
288.46	2.970
288.82	2.809
289.18	2.586
289.54	2.739
289.91	2.722
290.27	2.928
290.63	3.020
290.99	3.146
291.35	2.907
291.71	2.972
292.07	2.921
292.43	3.010
292.79	3.221
293.16	3.134
293.52	3.380
293.88	3.543
294.24	3.538
294.60	3.658
294.96	3.802
295.32	4.015
295.68	4.190
296.04	4.135
296.40	3.891
296.76	3.752
297.12	4.009
297.49	4.162
297.85	3.977
298.21	4.148
298.57	4.177
298.93	4.221
299.29	4.284
299.65	4.396
300.01	4.639
300.37	5.002
300.73	5.131
301.09	5.133
301.45	5.066
301.81	5.378
302.17	5.585
302.53	5.947
302.89	6.065
303.25	6.184
303.61	6.305
303.97	6.303
304.33	6.298
304.69	6.397
305.05	6.558
305.41	6.826
305.77	7.146
306.13	6.953
306.49	6.731
306.85	6.613
307.21	6.659
307.57	6.677
307.93	6.695
308.29	6.815
308.65	6.921
309.01	7.089
309.37	7.175
309.73	7.015
310.09	7.104
310.45	7.200
310.81	7.393
311.17	7.365
311.53	7.352
311.89	7.424
312.25	7.357
312.61	7.352
312.96	7.152
313.32	7.049
313.68	7.314
314.04	7.375
314.40	7.404
314.76	7.275
315.12	7.261
315.48	7.256
315.84	7.146
316.20	7.230
316.56	7.146
316.92	7.341
317.27	7.419
317.63	7.264
317.99	7.244
318.35	7.282
318.71	7.248
319.07	7.305
319.43	7.270
319.79	7.375
320.15	7.549
320.50	7.834
320.86	7.696
321.22	7.633
321.58	7.559
321.94	7.508
322.30	7.532
322.66	7.632
323.01	7.577
323.37	7.591
323.73	7.551
324.09	7.298
324.45	7.238
324.81	7.224
325.17	7.168
325.52	7.298
325.88	7.245
326.24	7.105
326.60	7.106
326.96	7.285
327.31	7.299
327.67	7.343
328.03	7.448
328.39	7.472
328.75	7.423
329.11	7.490
329.46	7.261
329.82	7.231
330.18	7.372
330.54	7.410
330.90	7.273
331.25	7.267
331.61	7.245
331.97	7.309
332.33	7.190
332.68	7.346
333.04	7.310
333.40	7.399
333.76	7.559
334.11	7.579
334.47	7.586
334.83	7.714
335.19	7.623
335.54	7.621
335.90	7.501
336.26	7.542
336.62	7.387
336.97	7.354
337.33	7.419
337.69	7.377
338.05	7.345
338.40	7.262
338.76	7.154
339.12	7.321
339.48	7.366
339.83	7.370
340.19	7.268
340.55	7.322
340.90	7.366
341.26	7.346
341.62	7.263
341.97	7.147
342.33	7.003
342.69	6.978
343.04	6.899
343.40	6.872
343.76	6.825
344.12	6.931
344.47	6.877
344.83	6.800
345.19	6.784
345.54	6.720
345.90	6.736
346.26	6.786
346.61	6.742
346.97	6.636
347.32	6.499
347.68	6.541
348.04	6.441
348.39	6.505
348.75	6.483
349.11	6.523
349.46	6.659
349.82	6.653
350.18	6.568
350.53	6.515
350.89	6.530
351.24	6.629
351.60	6.596
351.96	6.541
352.31	6.412
352.67	6.522
353.02	6.397
353.38	6.264
353.74	6.277
354.09	6.338
354.45	6.448
354.80	6.502
355.16	6.416
355.52	6.349
355.87	6.415
356.23	6.428
356.58	6.315
356.94	6.252
357.29	6.263
357.65	6.298
358.00	6.274
358.36	6.169
358.72	6.181
359.07	6.240
359.43	6.281
359.78	6.245
360.14	6.265
360.49	6.302
360.85	6.394
361.20	6.370
361.56	6.335
361.91	6.275
362.27	6.256
362.62	6.244
362.98	6.187
363.33	6.180
363.69	6.149
364.04	6.149
364.40	6.059
364.75	5.982
365.11	5.994
365.46	5.920
365.82	5.980
366.17	6.002
366.53	5.930
366.88	5.898
367.24	5.818
367.59	5.857
367.95	5.830
368.30	5.927
368.66	5.869
369.01	5.893
369.37	5.902
369.72	5.906
370.08	5.908
370.43	5.902
370.78	5.924
371.14	6.006
371.49	5.977
371.85	5.969
372.20	5.916
372.56	5.936
372.91	5.896
373.26	5.899
373.62	5.902
373.97	5.857
374.33	5.812
374.68	5.785
375.03	5.722
375.39	5.739
375.74	5.713
376.10	5.684
376.45	5.700
376.80	5.657
377.16	5.607
377.51	5.567
377.87	5.514
378.22	5.543
378.57	5.511
378.93	5.505
379.28	5.454
379.63	5.461
379.99	5.453
380.34	5.449
380.70	5.438
381.05	5.456
381.40	5.448
381.76	5.518
382.11	5.537
382.46	5.600
382.82	5.589
383.17	5.556
383.52	5.538
383.88	5.457
384.23	5.442
384.58	5.447
384.94	5.449
385.29	5.431
385.64	5.393
385.99	5.331
386.35	5.280
386.70	5.260
387.05	5.252
387.41	5.200
387.76	5.256
388.11	5.240
388.47	5.189
388.82	5.245
389.17	5.237
389.52	5.224
389.88	5.193
390.23	5.236
390.58	5.228
390.93	5.208
391.29	5.220
391.64	5.168
391.99	5.138
392.34	5.166
392.70	5.049
393.05	5.033
393.40	5.052
393.75	5.072
394.11	5.006
394.46	5.039
394.81	5.069
395.16	5.065
395.52	5.044
395.87	5.068
396.22	5.026
396.57	5.021
396.92	4.985
397.28	4.935
397.63	4.901
397.98	4.861
398.33	4.803
398.68	4.778
399.04	4.780
399.39	4.797
399.74	4.704
400.09	4.772
400.44	4.782
400.80	4.796
401.15	4.797
401.50	4.814
401.85	4.813
402.20	4.815
402.55	4.744
402.90	4.720
403.26	4.714
403.61	4.769
403.96	4.710
404.31	4.693
404.66	4.667
405.01	4.671
405.36	4.633
405.72	4.607
406.07	4.575
406.42	4.615
406.77	4.606
407.12	4.604
407.47	4.576
407.82	4.577
408.17	4.560
408.53	4.563
408.88	4.548
409.23	4.552
409.58	4.532
409.93	4.540
410.28	4.524
410.63	4.537
410.98	4.492
411.33	4.508
411.68	4.467
412.03	4.473
412.38	4.454
412.73	4.453
413.09	4.422
413.44	4.437
413.79	4.393
414.14	4.377
414.49	4.331
414.84	4.352
415.19	4.333
415.54	4.329
415.89	4.298
416.24	4.297
416.59	4.286
416.94	4.304
417.29	4.299
417.64	4.332
417.99	4.347
418.34	4.344
418.69	4.336
419.04	4.340
419.39	4.347
419.74	4.342
420.09	4.332
420.44	4.315
420.79	4.313
421.14	4.300
421.49	4.272
421.84	4.248
422.19	4.248
422.54	4.240
422.89	4.224
423.24	4.205
423.59	4.191
423.94	4.183
424.29	4.198
424.64	4.191
424.99	4.196
425.34	4.191
425.68	4.194
426.03	4.195
426.38	4.192
426.73	4.212
427.08	4.219
427.43	4.241
427.78	4.240
428.13	4.243
428.48	4.243
428.83	4.238
429.18	4.250
429.53	4.256
429.87	4.226
430.22	4.218
430.57	4.183
430.92	4.198
431.27	4.163
431.62	4.170
431.97	4.126
432.32	4.104
432.67	4.084
433.01	4.055
433.36	4.056
433.71	4.070
434.06	4.064
434.41	4.081
434.76	4.047
435.11	4.073
435.45	4.037
435.80	4.081
436.15	4.077
436.50	4.088
436.85	4.093
437.20	4.091
437.54	4.087
437.89	4.092
438.24	4.062
438.59	4.051
438.94	4.030
439.29	4.054
439.63	4.006
439.98	3.985
440.33	3.960
440.68	3.946
441.03	3.894
441.37	3.862
441.72	3.853
442.07	3.855
442.42	3.879
442.76	3.899
443.11	3.895
443.46	3.919
443.81	3.920
444.16	3.930
444.50	3.942
444.85	3.966
445.20	3.962
445.55	3.961
445.89	3.947
446.24	3.929
446.59	3.907
446.94	3.877
447.28	3.852
447.63	3.857
447.98	3.848
448.32	3.826
448.67	3.804
449.02	3.808
449.37	3.787
449.71	3.792
450.06	3.799
450.41	3.805
450.75	3.794
451.10	3.767
451.45	3.746
451.79	3.742
452.14	3.727
452.49	3.731
452.84	3.717
453.18	3.713
453.53	3.719
453.88	3.722
454.22	3.707
454.57	3.728
454.92	3.715
455.26	3.731
455.61	3.733
455.95	3.738
456.30	3.715
456.65	3.720
456.99	3.714
457.34	3.709
457.69	3.684
458.03	3.688
458.38	3.686
458.73	3.682
459.07	3.686
459.42	3.684
459.76	3.672
460.11	3.682
460.46	3.681
460.80	3.668
461.15	3.620
461.49	3.619
461.84	3.602
462.19	3.589
462.53	3.615
462.88	3.598
463.22	3.575
463.57	3.576
463.91	3.559
464.26	3.567
464.61	3.576
464.95	3.603
465.30	3.613
465.64	3.626
465.99	3.645
466.33	3.655
466.68	3.663
467.02	3.676
467.37	3.692
467.71	3.680
468.06	3.644
468.41	3.634
468.75	3.614
469.10	3.588
469.44	3.568
469.79	3.532
470.13	3.511
470.48	3.477
470.82	3.452
471.17	3.439
471.51	3.437
471.86	3.454
472.20	3.447
472.55	3.472
472.89	3.492
473.23	3.500
473.58	3.486
473.92	3.468
474.27	3.460
474.61	3.470
474.96	3.469
475.30	3.462
475.65	3.473
475.99	3.467
476.34	3.450
476.68	3.432
477.02	3.417
477.37	3.416
477.71	3.423
478.06	3.429
478.40	3.423
478.75	3.432
479.09	3.464
479.43	3.471
479.78	3.484
480.12	3.501
480.47	3.521
480.81	3.551
481.15	3.573
481.50	3.578
481.84	3.594
482.19	3.610
482.53	3.616
482.87	3.615
483.22	3.616
483.56	3.617
483.90	3.603
484.25	3.584
484.59	3.564
484.94	3.542
485.28	3.535
485.62	3.515
485.97	3.491
486.31	3.480
486.65	3.473
487.00	3.463
487.34	3.452
487.68	3.455
488.03	3.451
488.37	3.442
488.71	3.437
489.06	3.423
489.40	3.412
489.74	3.403
490.09	3.377
490.43	3.351
490.77	3.336
491.11	3.323
491.46	3.300
491.80	3.294
492.14	3.275
492.49	3.260
492.83	3.240
493.17	3.214
493.51	3.197
493.86	3.170
494.20	3.159
494.54	3.159
494.88	3.143
495.23	3.143
495.57	3.142
495.91	3.160
496.25	3.147
496.60	3.147
496.94	3.138
497.28	3.144
497.62	3.139
497.97	3.153
498.31	3.131
498.65	3.140
498.99	3.134
499.33	3.119
499.68	3.081
500.02	3.075
500.36	3.070
500.70	3.087
501.04	3.058
501.39	3.087
501.73	3.050
502.07	3.060
502.41	3.050
502.75	3.054
503.09	3.053
503.44	3.046
503.78	3.058
504.12	3.047
504.46	3.026
504.80	3.043
505.14	3.002
505.49	2.997
505.83	2.977
506.17	2.982
506.51	2.969
506.85	2.961
507.19	2.968
507.53	2.963
507.87	2.959
508.22	2.971
508.56	2.954
508.90	2.969
509.24	2.970
509.58	2.978
509.92	2.967
510.26	2.978
510.60	2.995
510.94	2.986
511.28	2.986
511.63	2.986
511.97	2.962
512.31	2.974
512.65	2.961
512.99	2.983
513.33	2.971
513.67	2.954
514.01	2.935
514.35	2.915
514.69	2.908
515.03	2.916
515.37	2.926
515.71	2.955
516.05	2.933
516.39	2.949
516.73	2.938
517.07	2.925
517.41	2.930
517.75	2.922
518.09	2.900
518.43	2.907
518.77	2.897
519.11	2.873
519.45	2.847
519.79	2.838
520.13	2.827
520.47	2.814
520.81	2.822
521.15	2.835
521.49	2.857
521.83	2.891
522.17	2.890
522.51	2.886
522.85	2.913
523.19	2.923
523.53	2.947
523.87	2.972
524.21	2.984
524.55	2.998
524.89	2.993
525.23	2.993
525.57	2.998
525.91	3.012
526.25	3.015
526.58	3.010
526.92	3.014
527.26	3.021
527.60	3.006
527.94	3.009
528.28	2.999
528.62	3.003
528.96	2.999
529.30	2.994
529.64	2.986
529.97	2.988
530.31	2.982
530.65	2.974
530.99	2.958
531.33	2.952
531.67	2.936
532.01	2.954
532.35	2.946
532.68	2.931
533.02	2.908
533.36	2.880
533.70	2.860
534.04	2.854
534.38	2.833
534.71	2.815
535.05	2.805
535.39	2.801
535.73	2.750
536.07	2.729
536.41	2.738
536.74	2.743
537.08	2.769
537.42	2.763
537.76	2.762
538.10	2.779
538.43	2.779
538.77	2.793
539.11	2.798
539.45	2.810
539.79	2.825
540.12	2.839
540.46	2.840
540.80	2.821
541.14	2.817
541.47	2.816
541.81	2.806
542.15	2.804
542.49	2.792
542.82	2.777
543.16	2.745
543.50	2.708
543.84	2.675
544.17	2.664
544.51	2.671
544.85	2.678
545.18	2.665
545.52	2.662
545.86	2.652
546.20	2.623
546.53	2.615
546.87	2.655
547.21	2.654
547.54	2.651
547.88	2.628
548.22	2.621
548.55	2.634
548.89	2.642
549.23	2.631
549.56	2.629
549.90	2.637
550.24	2.635
550.57	2.612
550.91	2.634
551.25	2.614
551.58	2.603
551.92	2.596
552.26	2.565
552.59	2.569
552.93	2.548
553.27	2.551
553.60	2.558
553.94	2.574
554.27	2.571
554.61	2.543
554.95	2.564
555.28	2.593
555.62	2.605
555.95	2.619
556.29	2.622
556.63	2.647
556.96	2.656
557.30	2.629
557.63	2.610
557.97	2.596
558.31	2.616
558.64	2.592
558.98	2.602
559.31	2.573
559.65	2.567
559.98	2.551
560.32	2.536
560.65	2.511
560.99	2.536
561.33	2.535
561.66	2.532
562.00	2.540
562.33	2.574
562.67	2.579
563.00	2.596
563.34	2.601
563.67	2.604
564.01	2.627
564.34	2.643
564.68	2.644
565.01	2.660
565.35	2.666
565.68	2.660
566.02	2.642
566.35	2.630
566.69	2.619
567.02	2.601
567.36	2.625
567.69	2.627
568.03	2.639
568.36	2.657
568.69	2.644
569.03	2.666
569.36	2.642
569.70	2.650
570.03	2.658
570.37	2.668
570.70	2.694
571.04	2.695
571.37	2.689
571.70	2.688
572.04	2.686
572.37	2.692
572.71	2.669
573.04	2.675
573.37	2.650
573.71	2.620
574.04	2.620
574.38	2.621
574.71	2.576
575.04	2.568
575.38	2.539
575.71	2.515
576.05	2.500
576.38	2.515
576.71	2.509
577.05	2.542
577.38	2.566
577.71	2.579
578.05	2.563
578.38	2.581
578.71	2.592
579.05	2.614
579.38	2.629
579.71	2.646
580.05	2.620
580.38	2.643
580.71	2.598
581.05	2.568
581.38	2.536
581.71	2.543
582.05	2.526
582.38	2.497
582.71	2.517
583.04	2.477
583.38	2.457
583.71	2.504
584.04	2.501
584.38	2.534
584.71	2.594
585.04	2.639
585.37	2.611
585.71	2.628
586.04	2.645
586.37	2.612
586.70	2.642
587.04	2.667
587.37	2.636
587.70	2.657
588.03	2.643
588.37	2.607
588.70	2.567
589.03	2.597
589.36	2.599
589.69	2.617
590.03	2.617
590.36	2.617
590.69	2.574
591.02	2.599
591.35	2.562
591.69	2.568
592.02	2.566
592.35	2.584
592.68	2.589
593.01	2.566
593.35	2.534
593.68	2.542
594.01	2.544
594.34	2.576
594.67	2.562
595.00	2.570
595.34	2.556
595.67	2.559
596.00	2.550
596.33	2.526
596.66	2.525
596.99	2.548
597.32	2.547
597.65	2.540
597.99	2.529
598.32	2.532
598.65	2.500
598.98	2.537
599.31	2.528
599.64	2.497
599.97	2.498
600.30	2.516
600.63	2.482
600.96	2.477
601.30	2.475
601.63	2.476
601.96	2.483
602.29	2.542
602.62	2.519
602.95	2.536
603.28	2.563
603.61	2.563
603.94	2.542
604.27	2.573
604.60	2.580
604.93	2.600
605.26	2.613
605.59	2.621
605.92	2.607
606.25	2.618
606.58	2.622
606.91	2.597
607.24	2.588
607.57	2.641
607.90	2.640
608.23	2.653
608.56	2.674
608.89	2.676
609.22	2.660
609.55	2.641
609.88	2.624
610.21	2.606
610.54	2.623
610.87	2.645
611.20	2.613
611.53	2.601
611.86	2.575
612.19	2.528
612.52	2.457
612.85	2.456
613.18	2.494
613.51	2.517
613.84	2.500
614.17	2.514
614.49	2.503
614.82	2.489
615.15	2.485
615.48	2.527
615.81	2.479
616.14	2.530
616.47	2.546
616.80	2.503
617.13	2.510
617.46	2.508
617.78	2.496
618.11	2.487
618.44	2.499
618.77	2.515
619.10	2.431
619.43	2.464
619.76	2.460
620.09	2.453
620.41	2.427
620.74	2.399
621.07	2.415
621.40	2.418
621.73	2.428
622.06	2.406
622.38	2.383
622.71	2.410
623.04	2.397
623.37	2.397
623.70	2.369
624.02	2.427
624.35	2.460
624.68	2.480
625.01	2.485
625.34	2.486
625.66	2.504
625.99	2.510
626.32	2.533
626.65	2.588
626.98	2.602
627.30	2.621
627.63	2.596
627.96	2.579
628.29	2.521
628.61	2.547
628.94	2.529
629.27	2.537
629.60	2.519
629.92	2.503
630.25	2.485
630.58	2.503
630.91	2.498
631.23	2.498
631.56	2.489
631.89	2.535
632.21	2.501
632.54	2.492
632.87	2.416
633.19	2.399
633.52	2.383
633.85	2.387
634.18	2.369
634.50	2.389
634.83	2.361
635.16	2.350
635.48	2.300
635.81	2.307
636.14	2.343
636.46	2.411
636.79	2.395
637.11	2.413
637.44	2.394
637.77	2.396
638.09	2.364
638.42	2.389
638.75	2.345
639.07	2.418
639.40	2.463
639.73	2.504
640.05	2.479
640.38	2.574
640.70	2.580
641.03	2.582
641.36	2.566
641.68	2.564
642.01	2.575
642.33	2.637
642.66	2.563
642.98	2.516
643.31	2.418
643.64	2.447
643.96	2.364
644.29	2.368
644.61	2.342
644.94	2.318
645.26	2.314
645.59	2.271
645.91	2.288
646.24	2.326
646.56	2.347
646.89	2.399
647.22	2.401
647.54	2.464
647.87	2.478
648.19	2.517
648.52	2.537
648.84	2.545
649.17	2.550
649.49	2.578
649.82	2.623
650.14	2.529
650.47	2.485
650.79	2.481
651.11	2.417
651.44	2.380
651.76	2.336
652.09	2.310
652.41	2.346
652.74	2.373
653.06	2.290
653.39	2.287
653.71	2.378
654.04	2.447
654.36	2.450
654.68	2.503
655.01	2.499
655.33	2.516
655.66	2.552
655.98	2.523
656.30	2.462
656.63	2.478
656.95	2.459
657.28	2.412
657.60	2.361
657.92	2.388
658.25	2.386
658.57	2.390
658.90	2.373
659.22	2.361
659.54	2.345
659.87	2.433
660.19	2.461
660.51	2.422
660.84	2.448
661.16	2.472
661.48	2.435
661.81	2.442
662.13	2.406
662.45	2.408
662.78	2.400
663.10	2.400
663.42	2.352
663.75	2.325
664.07	2.335
664.39	2.337
664.72	2.365
665.04	2.359
665.36	2.372
665.69	2.342
666.01	2.336
666.33	2.321
666.65	2.337
666.98	2.317
667.30	2.310
667.62	2.349
667.94	2.253
668.27	2.207
668.59	2.209
668.91	2.119
669.23	2.189
669.56	2.193
669.88	2.187
670.20	2.145
670.52	2.130
670.85	2.125
671.17	2.077
671.49	2.101
671.81	2.081
672.13	2.061
672.46	2.062
672.78	2.034
673.10	2.098
673.42	2.126
673.74	2.167
674.07	2.160
674.39	2.151
674.71	2.063
675.03	2.144
675.35	2.203
675.67	2.198
676.00	2.201
676.32	2.199
676.64	2.143
676.96	2.153
677.28	2.168
677.60	2.218
677.92	2.185
678.25	2.274
678.57	2.265
678.89	2.232
679.21	2.220
679.53	2.268
679.85	2.289
680.17	2.274
680.49	2.331
680.81	2.365
681.13	2.410
681.46	2.455
681.78	2.478
682.10	2.468
682.42	2.400
682.74	2.394
683.06	2.429
683.38	2.490
683.70	2.560
684.02	2.484
684.34	2.424
684.66	2.441
684.98	2.521
685.30	2.520
685.62	2.565
685.94	2.611
686.26	2.726
686.58	2.734
686.90	2.756
687.22	2.801
687.54	2.778
687.86	2.743
688.18	2.677
688.50	2.705
688.82	2.662
689.14	2.676
689.46	2.789
689.78	2.718
690.10	2.696
690.42	2.662
690.74	2.591
691.06	2.620
691.38	2.637
691.70	2.591
692.02	2.509
692.34	2.531
692.66	2.493
692.98	2.422
693.30	2.415
693.62	2.323
693.94	2.302
694.26	2.320
694.57	2.407
694.89	2.431
695.21	2.504
695.53	2.461
695.85	2.493
696.17	2.546
696.49	2.571
696.81	2.615
697.13	2.682
697.44	2.649
697.76	2.592
698.08	2.530
698.40	2.550
698.72	2.547
699.04	2.592
699.36	2.506
699.67	2.401
699.99	2.316
700.31	2.318
700.63	2.269
700.95	2.274
701.27	2.263
701.58	2.184
701.90	2.170
702.22	2.220
702.54	2.225
702.86	2.243
703.17	2.254
703.49	2.376
703.81	2.290
704.13	2.242
704.45	2.232
704.76	2.369
705.08	2.505
705.40	2.475
705.72	2.442
706.03	2.552
706.35	2.613
706.67	2.559
706.99	2.493
707.30	2.552
707.62	2.559
707.94	2.515
708.26	2.424
708.57	2.386
708.89	2.431
709.21	2.385
709.53	2.238
709.84	2.241
710.16	2.325
710.48	2.363
710.79	2.247
711.11	2.315
711.43	2.420
711.74	2.439
712.06	2.358
712.38	2.335
712.69	2.304
713.01	2.338
713.33	2.332
713.64	2.374
713.96	2.298
714.28	2.470
714.59	2.465
714.91	2.455
715.23	2.444
715.54	2.539
715.86	2.540
716.17	2.735
716.49	2.738
716.81	2.751
717.12	2.626
717.44	2.749
717.76	2.583
718.07	2.529
718.39	2.621
718.70	2.568
719.02	2.584
719.33	2.464
719.65	2.198
719.97	2.165
720.28	2.219
720.60	2.420
720.91	2.350
721.23	2.483
721.54	2.662
721.86	2.605
722.17	2.605
722.49	2.617
722.81	2.802
723.12	3.016
723.44	2.951
723.75	3.043
724.07	3.008
724.38	3.145
724.70	2.991
725.01	2.893
725.33	2.884
725.64	3.081
725.96	3.096
726.27	3.150
726.59	3.102
726.90	3.246
727.22	3.184
727.53	3.179
727.84	3.031
728.16	3.012
728.47	2.997
728.79	3.046
729.10	2.944
729.42	2.970
729.73	2.850
730.05	2.841
730.36	2.708
730.67	2.679
730.99	2.563
731.30	2.624
731.62	2.676
731.93	2.646
732.24	2.606
732.56	2.585
732.87	2.607
733.19	2.570
733.50	2.353
733.81	2.518
734.13	2.501
734.44	2.680
734.76	2.754
735.07	2.768
735.38	2.656
735.70	2.632
736.01	2.603
736.32	2.651
736.64	2.610
736.95	2.749
737.26	2.696
737.58	2.629
737.89	2.482
738.20	2.404
738.52	2.301
738.83	2.412
739.14	2.268
739.45	2.327
739.77	1.962
740.08	2.121
740.39	2.007
740.71	1.953
741.02	1.958
741.33	2.047
741.64	1.830
741.96	1.892
742.27	1.938
742.58	2.001
742.90	1.898
743.21	2.071
743.52	1.903
743.83	2.023
744.14	2.019
744.46	2.111
744.77	1.950
745.08	2.200
745.39	2.214
745.71	1.976
746.02	2.113
746.33	2.124
746.64	2.067
746.95	1.925
747.27	2.005
747.58	1.857
747.89	1.612
748.20	1.693
748.51	1.562
748.82	1.634
749.14	1.741
749.45	1.604
749.76	1.813
750.07	1.880
750.38	1.894
750.69	1.868
751.01	2.036
751.32	2.172
751.63	2.303
751.94	2.069
752.25	1.895
752.56	1.860
752.87	1.746
753.18	1.651
753.49	1.554
753.81	1.731
754.12	1.697
754.43	1.364
754.74	1.234
755.05	1.020
755.36	1.031
755.67	1.096
755.98	1.264
756.29	1.423
756.60	1.298
756.91	1.447
757.22	1.452
757.53	1.368
757.84	1.614
758.15	1.875
758.46	1.906
758.77	2.266
759.09	2.528
759.40	2.551
759.71	2.497
760.02	2.388
760.33	2.298
760.64	2.377
760.95	2.388
761.26	2.462
761.57	2.361
761.88	2.392
762.18	2.315
762.49	2.275
762.80	2.159
763.11	2.236
763.42	2.409
763.73	2.414
764.04	2.345
764.35	2.428
764.66	2.301
764.97	2.369
765.28	2.366
765.59	2.464
765.90	2.260
766.21	2.359
766.52	2.170
766.83	1.945
767.14	1.964
767.44	2.002
767.75	1.924
768.06	2.001
768.37	1.714
768.68	1.588
768.99	1.521
769.30	1.501
769.61	1.559
769.91	1.723
770.22	1.693
770.53	1.869
770.84	1.883
771.15	2.023
771.46	2.162
771.77	2.285
772.07	2.097
772.38	1.841
772.69	1.791
773.00	1.738
773.31	1.596
773.61	1.387
773.92	1.049
774.23	1.009
774.54	1.007
774.85	0.980
775.15	1.232
775.46	1.488
775.77	1.626
776.08	1.896
776.39	1.966
776.69	2.048
777.00	2.227
777.31	2.195
777.62	1.973
777.92	1.645
778.23	1.443
778.54	1.286
778.85	1.324
779.15	1.266
779.46	1.115
779.77	0.909
780.07	0.651
780.38	0.694
780.69	0.860
781.00	1.095
781.30	1.189
781.61	1.303
781.92	1.238
782.22	1.262
782.53	1.388
782.84	1.503
783.14	1.592
783.45	2.019
783.76	2.354
784.06	2.164
784.37	2.380
784.68	2.653
784.98	2.591
785.29	2.588
785.60	2.644
785.90	2.334
786.21	2.426
786.51	2.623
786.82	2.448
787.13	2.350
787.43	2.231
787.74	2.008
788.04	2.046
788.35	2.067
788.66	1.846
788.96	1.917
789.27	1.866
789.57	1.909
789.88	1.608
790.19	1.692
790.49	1.239
790.80	1.466
791.10	1.559
791.41	1.443
791.71	1.376
792.02	1.649
792.32	1.517
792.63	1.868
792.93	1.802
793.24	1.911
793.54	1.688
793.85	1.977
794.15	1.955
794.46	2.037
794.76	2.077
795.07	1.986
795.37	2.178
795.68	1.982
795.98	1.661
796.29	1.524
796.59	1.503
796.90	1.677
797.20	1.917
797.51	2.006
797.81	1.761
798.12	1.595
798.42	1.637
798.72	1.453
799.03	1.919
799.33	2.320
799.64	2.377
799.94	2.632
800.25	2.599
800.55	2.540
800.85	2.476
801.16	2.427
801.46	2.533
801.77	2.651
802.07	2.414
802.37	2.070
802.68	2.048
802.98	1.930
803.28	0.921
803.59	0.799
803.89	0.814
804.20	0.891
804.50	0.840
804.80	0.670
805.11	0.579
805.41	1.108
805.71	0.603
806.02	0.663
806.32	0.717
806.62	1.683
806.93	1.737
807.23	1.869
807.53	1.677
807.83	1.990
808.14	1.610
808.44	1.863
808.74	1.380
809.05	2.437
809.35	2.226
809.65	2.329
809.95	2.145
810.26	2.069
810.56	1.758
810.86	2.253
811.16	2.615
811.47	3.178
811.77	2.709
812.07	2.559
812.37	2.079
812.68	2.530
812.98	2.450
813.28	2.475
813.58	2.412
813.88	2.726
814.19	2.991
814.49	2.758
814.79	2.130
815.09	3.104
815.39	3.333
815.70	3.498
816.00	3.381
816.30	3.563
816.60	3.505
816.90	4.184
817.20	4.132
817.50	3.850
817.81	3.569
818.11	4.055
818.41	3.641
818.71	3.814
819.01	3.728
819.31	3.704
819.61	3.783
819.92	3.773
820.22	3.621
820.52	3.480
820.82	3.425
821.12	3.414
821.42	3.398
821.72	3.416
822.02	3.346
822.32	3.369
822.62	3.372
822.92	3.285
823.22	3.263
823.52	3.208
823.83	3.303
824.13	3.328
824.43	3.381
824.73	3.335
825.03	3.272
825.33	3.226
825.63	3.275
825.93	3.256
826.23	3.194
826.53	3.221
826.83	3.341
827.13	3.268
827.43	3.173
827.73	3.203
828.03	3.347
828.33	3.570
828.63	3.609
828.93	3.203
829.23	3.089
829.53	3.150
829.83	2.860
830.13	2.757
830.42	2.614
830.72	3.009
831.02	3.033
831.32	2.856
831.62	2.746
831.92	2.846
832.22	3.080
832.52	3.214
832.82	2.788
833.12	3.005
833.42	2.912
833.72	3.014
834.01	2.836
834.31	2.461
834.61	2.156
834.91	1.944
835.21	1.798
835.51	2.060
835.81	1.418
836.11	1.945
836.40	2.030
836.70	2.354
837.00	2.429
837.30	2.203
837.60	2.362
837.90	2.115
838.19	1.894
838.49	2.203
838.79	1.335
839.09	2.567
839.39	2.909
839.68	2.685
839.98	3.057
840.28	2.485
840.58	2.162
840.88	3.161
841.17	4.150
841.47	5.036
841.77	5.153
842.07	6.555
842.36	5.093
842.66	4.546
842.96	4.718
843.26	2.939
843.55	4.676
843.85	5.398
844.15	3.972
844.45	3.421
844.74	2.802
845.04	2.658
845.34	1.266
845.63	2.754
845.93	2.350
846.23	2.277
846.53	3.890
846.82	2.324
847.12	1.955
847.42	1.968
847.71	2.463
848.01	2.134
848.31	1.745
848.60	1.482
848.90	-0.157
849.19	0.732
849.49	0.774
849.79	1.119
850.08	2.792
850.38	2.773
850.68	3.079
850.97	3.732
851.27	3.273
851.56	1.859
851.86	3.228
852.16	5.356
852.45	3.849
852.75	6.423
853.04	5.079
853.34	3.911
853.64	3.891
853.93	5.774
854.23	3.960
854.52	5.999
854.82	7.327
855.11	6.159
855.41	5.039
855.70	6.206
856.00	1.427
856.30	2.213
856.59	2.320
856.89	2.867
857.18	-0.087
857.48	0.370
857.77	0.413
858.07	-0.558
858.36	-1.038
858.66	0.043
858.95	0.940
859.25	1.410
859.54	0.514
859.84	0.840
860.13	-1.063
860.42	-0.223
860.72	-1.277
861.01	-2.322
861.31	-3.743
861.60	-2.010
861.90	-3.389
862.19	-3.518
862.49	-2.256
862.78	-2.551
863.07	-3.603
863.37	-1.529
863.66	-1.163
863.96	-0.866
864.25	-1.319
864.54	1.410
864.84	-1.476
865.13	-2.359
865.43	-3.941
865.72	0.359
866.01	4.585
866.31	-17.906
866.60	-11.001
866.89	-6.098
>>>>>End Spectral Data<<<<<
