OOIBase32 Version 2.0.0.6 Data File
++++++++++++++++++++++++++++++++++++
Date: 01-20-2012, 23:16:00
User: Valued Ocean Optics Customer
Spectrometer Serial Number: USB2E2917
Spectrometer Channel: Master
Integration Time (msec): 3
Spectra Averaged: 10
Boxcar Smoothing: 5
Correct for Electrical Dark: Enabled
Time Normalized: Disabled
Dual-beam Reference: Disabled
Reference Channel: Master
Temperature: Not acquired
Spectrometer Type: S2000
ADC Type: USB2000
Number of Pixels in File: 2048
Graph Title: 
>>>>>Begin Spectral Data<<<<<
180.30	0.000
180.67	0.000
181.03	6.894
181.40	261.980
181.77	1091.370
182.14	-3790.558
182.51	-48.557
182.88	-142.160
183.25	-239.151
183.62	896.072
183.99	22.554
184.36	68.221
184.73	388.263
185.10	146.907
185.46	-52.502
185.83	-211.757
186.20	-41.228
186.57	112.658
186.94	46.031
187.31	-28.708
187.68	125.162
188.05	120.566
188.42	145.190
188.78	91.601
189.15	78.392
189.52	67.636
189.89	63.906
190.26	49.318
190.63	47.069
191.00	49.767
191.37	46.087
191.73	31.199
192.10	36.429
192.47	25.608
192.84	25.895
193.21	35.383
193.58	21.793
193.94	25.523
194.31	27.187
194.68	24.718
195.05	21.501
195.42	25.140
195.79	27.336
196.15	11.949
196.52	21.379
196.89	24.643
197.26	0.264
197.63	9.798
198.00	-52.254
198.36	-95.601
198.73	1454.943
199.10	-2894.673
199.47	276.352
199.84	-12.578
200.20	12.406
200.57	-20.419
200.94	-417.618
201.31	-158.162
201.68	-3.161
202.04	38.775
202.41	23.820
202.78	27.562
203.15	24.472
203.51	19.750
203.88	2.925
204.25	28.415
204.62	31.668
204.98	41.718
205.35	65.806
205.72	43.159
206.09	29.948
206.46	30.396
206.82	14.817
207.19	-9.495
207.56	-10.652
207.92	-7.163
208.29	-15.472
208.66	0.123
209.03	-6.383
209.39	-2.657
209.76	12.577
210.13	10.233
210.50	25.000
210.86	45.633
211.23	56.846
211.60	60.606
211.96	67.238
212.33	56.178
212.70	57.320
213.07	71.406
213.43	80.161
213.80	69.381
214.17	59.653
214.53	57.667
214.90	46.590
215.27	35.537
215.63	29.207
216.00	38.841
216.37	50.513
216.74	43.341
217.10	31.358
217.47	22.681
217.84	28.559
218.20	32.166
218.57	28.691
218.94	30.502
219.30	32.976
219.67	29.029
220.04	26.127
220.40	27.591
220.77	26.024
221.13	35.114
221.50	32.166
221.87	27.445
222.23	20.788
222.60	19.014
222.97	16.487
223.33	21.076
223.70	21.334
224.07	13.790
224.43	13.338
224.80	14.108
225.16	9.423
225.53	5.498
225.90	3.312
226.26	6.512
226.63	6.994
226.99	6.975
227.36	4.778
227.73	4.408
228.09	4.949
228.46	2.578
228.82	0.947
229.19	1.694
229.56	2.717
229.92	4.636
230.29	3.865
230.65	4.011
231.02	2.471
231.38	2.399
231.75	1.261
232.12	1.887
232.48	3.088
232.85	2.979
233.21	2.318
233.58	2.153
233.94	1.694
234.31	0.538
234.68	-0.789
235.04	0.898
235.41	1.935
235.77	1.971
236.14	2.656
236.50	2.212
236.87	3.729
237.23	4.209
237.60	3.849
237.96	3.086
238.33	3.853
238.69	3.039
239.06	2.475
239.42	3.025
239.79	2.623
240.15	1.916
240.52	1.677
240.88	1.568
241.25	1.460
241.61	1.766
241.98	2.413
242.34	2.691
242.71	3.322
243.07	3.584
243.44	3.213
243.80	3.421
244.17	3.908
244.53	4.261
244.90	4.316
245.26	4.526
245.63	4.335
245.99	4.183
246.36	3.978
246.72	3.680
247.09	3.607
247.45	3.531
247.81	3.621
248.18	3.534
248.54	3.420
248.91	3.573
249.27	3.034
249.64	2.889
250.00	2.438
250.36	2.365
250.73	2.987
251.09	2.930
251.46	2.891
251.82	2.397
252.19	2.141
252.55	2.452
252.91	2.029
253.28	2.279
253.64	2.740
254.01	2.929
254.37	3.070
254.73	2.806
255.10	3.300
255.46	3.344
255.83	3.253
256.19	3.136
256.55	2.936
256.92	2.597
257.28	2.669
257.65	2.576
258.01	2.766
258.37	2.535
258.74	2.549
259.10	2.557
259.46	2.772
259.83	3.071
260.19	3.093
260.55	3.033
260.92	3.278
261.28	3.141
261.64	3.060
262.01	3.111
262.37	3.772
262.73	3.866
263.10	3.557
263.46	3.160
263.82	3.106
264.19	2.710
264.55	2.430
264.91	2.511
265.28	2.292
265.64	2.528
266.00	2.277
266.37	1.781
266.73	1.691
267.09	1.523
267.46	1.814
267.82	1.697
268.18	2.133
268.54	2.629
268.91	2.889
269.27	3.263
269.63	3.162
270.00	3.227
270.36	3.422
270.72	3.347
271.08	3.630
271.45	3.391
271.81	3.168
272.17	3.279
272.53	3.166
272.90	3.064
273.26	2.831
273.62	2.767
273.98	2.704
274.35	3.040
274.71	3.500
275.07	3.389
275.43	3.579
275.80	4.096
276.16	3.578
276.52	3.531
276.88	3.190
277.25	3.500
277.61	3.602
277.97	3.873
278.33	3.488
278.69	2.958
279.06	2.836
279.42	2.904
279.78	2.734
280.14	2.986
280.50	2.749
280.87	2.756
281.23	2.625
281.59	2.721
281.95	2.460
282.31	2.393
282.68	2.367
283.04	2.457
283.40	2.484
283.76	2.585
284.12	2.455
284.48	2.667
284.85	2.794
285.21	2.904
285.57	2.683
285.93	2.699
286.29	2.772
286.65	2.840
287.02	2.832
287.38	2.640
287.74	2.478
288.10	2.637
288.46	2.654
288.82	2.735
289.18	2.670
289.54	2.581
289.91	2.703
290.27	2.786
290.63	2.905
290.99	2.925
291.35	3.073
291.71	2.978
292.07	2.977
292.43	3.017
292.79	2.803
293.16	2.863
293.52	3.302
293.88	3.326
294.24	3.202
294.60	3.255
294.96	3.268
295.32	3.285
295.68	3.523
296.04	3.457
296.40	3.247
296.76	3.349
297.12	3.239
297.49	3.039
297.85	2.695
298.21	2.800
298.57	2.705
298.93	2.765
299.29	2.675
299.65	2.643
300.01	2.680
300.37	3.004
300.73	3.117
301.09	3.331
301.45	3.398
301.81	3.765
302.17	3.816
302.53	3.906
302.89	3.977
303.25	4.260
303.61	4.400
303.97	4.466
304.33	4.213
304.69	4.049
305.05	3.718
305.41	3.728
305.77	3.793
306.13	3.686
306.49	3.591
306.85	3.524
307.21	3.331
307.57	3.178
307.93	3.235
308.29	3.453
308.65	3.601
309.01	3.871
309.37	3.996
309.73	4.014
310.09	4.049
310.45	4.073
310.81	3.982
311.17	4.047
311.53	4.159
311.89	4.190
312.25	4.164
312.61	4.189
312.96	4.111
313.32	4.151
313.68	4.202
314.04	4.404
314.40	4.539
314.76	4.655
315.12	4.677
315.48	4.592
315.84	4.479
316.20	4.394
316.56	4.271
316.92	4.382
317.27	4.188
317.63	3.990
317.99	3.817
318.35	3.792
318.71	3.936
319.07	4.030
319.43	4.028
319.79	4.094
320.15	4.188
320.50	4.271
320.86	4.301
321.22	4.473
321.58	4.516
321.94	4.516
322.30	4.598
322.66	4.480
323.01	4.380
323.37	4.423
323.73	4.492
324.09	4.420
324.45	4.408
324.81	4.362
325.17	4.259
325.52	4.479
325.88	4.561
326.24	4.488
326.60	4.478
326.96	4.623
327.31	4.760
327.67	4.756
328.03	4.806
328.39	4.864
328.75	4.914
329.11	4.973
329.46	4.836
329.82	4.807
330.18	4.910
330.54	4.980
330.90	4.871
331.25	4.815
331.61	4.888
331.97	4.976
332.33	4.955
332.68	4.989
333.04	5.037
333.40	5.134
333.76	5.226
334.11	5.245
334.47	5.235
334.83	5.326
335.19	5.241
335.54	5.238
335.90	5.160
336.26	5.188
336.62	5.258
336.97	5.306
337.33	5.258
337.69	5.263
338.05	5.209
338.40	5.161
338.76	5.131
339.12	5.351
339.48	5.447
339.83	5.538
340.19	5.611
340.55	5.510
340.90	5.541
341.26	5.582
341.62	5.595
341.97	5.589
342.33	5.568
342.69	5.518
343.04	5.423
343.40	5.346
343.76	5.300
344.12	5.179
344.47	5.081
344.83	5.089
345.19	5.111
345.54	5.064
345.90	5.099
346.26	5.164
346.61	5.190
346.97	5.106
347.32	4.985
347.68	4.973
348.04	5.033
348.39	5.201
348.75	5.197
349.11	5.193
349.46	5.278
349.82	5.233
350.18	5.185
350.53	5.176
350.89	5.258
351.24	5.385
351.60	5.458
351.96	5.491
352.31	5.408
352.67	5.421
353.02	5.452
353.38	5.386
353.74	5.479
354.09	5.583
354.45	5.691
354.80	5.722
355.16	5.732
355.52	5.734
355.87	5.770
356.23	5.820
356.58	5.751
356.94	5.669
357.29	5.693
357.65	5.717
358.00	5.801
358.36	5.701
358.72	5.724
359.07	5.719
359.43	5.702
359.78	5.724
360.14	5.755
360.49	5.851
360.85	5.899
361.20	5.951
361.56	5.933
361.91	5.867
362.27	5.922
362.62	5.943
362.98	5.951
363.33	5.994
363.69	5.952
364.04	6.037
364.40	6.019
364.75	6.068
365.11	6.070
365.46	6.007
365.82	6.002
366.17	6.045
366.53	6.080
366.88	6.083
367.24	6.054
367.59	6.153
367.95	6.077
368.30	6.134
368.66	6.119
369.01	6.047
369.37	6.125
369.72	6.220
370.08	6.241
370.43	6.223
370.78	6.251
371.14	6.298
371.49	6.279
371.85	6.331
372.20	6.353
372.56	6.274
372.91	6.352
373.26	6.380
373.62	6.348
373.97	6.333
374.33	6.352
374.68	6.377
375.03	6.340
375.39	6.361
375.74	6.338
376.10	6.296
376.45	6.356
376.80	6.348
377.16	6.287
377.51	6.301
377.87	6.286
378.22	6.239
378.57	6.284
378.93	6.357
379.28	6.402
379.63	6.449
379.99	6.451
380.34	6.544
380.70	6.555
381.05	6.655
381.40	6.686
381.76	6.748
382.11	6.786
382.46	6.772
382.82	6.771
383.17	6.718
383.52	6.709
383.88	6.695
384.23	6.676
384.58	6.695
384.94	6.690
385.29	6.669
385.64	6.687
385.99	6.696
386.35	6.692
386.70	6.752
387.05	6.704
387.41	6.709
387.76	6.766
388.11	6.798
388.47	6.803
388.82	6.793
389.17	6.836
389.52	6.841
389.88	6.857
390.23	6.905
390.58	6.883
390.93	6.958
391.29	6.992
391.64	6.985
391.99	6.959
392.34	6.943
392.70	6.919
393.05	6.874
393.40	6.849
393.75	6.870
394.11	6.797
394.46	6.819
394.81	6.786
395.16	6.786
395.52	6.799
395.87	6.802
396.22	6.804
396.57	6.832
396.92	6.837
397.28	6.870
397.63	6.861
397.98	6.928
398.33	6.906
398.68	6.941
399.04	6.963
399.39	6.954
399.74	6.878
400.09	6.938
400.44	6.934
400.80	6.949
401.15	6.931
401.50	6.949
401.85	6.925
402.20	6.920
402.55	6.935
402.90	6.860
403.26	6.854
403.61	6.930
403.96	6.905
404.31	6.919
404.66	6.918
405.01	6.928
405.36	6.916
405.72	6.887
406.07	6.890
406.42	6.905
406.77	6.957
407.12	6.936
407.47	6.917
407.82	6.907
408.17	6.892
408.53	6.879
408.88	6.863
409.23	6.885
409.58	6.912
409.93	6.908
410.28	6.848
410.63	6.867
410.98	6.858
411.33	6.857
411.68	6.838
412.03	6.852
412.38	6.841
412.73	6.860
413.09	6.818
413.44	6.819
413.79	6.791
414.14	6.808
414.49	6.775
414.84	6.797
415.19	6.790
415.54	6.797
415.89	6.756
416.24	6.752
416.59	6.736
416.94	6.719
417.29	6.713
417.64	6.724
417.99	6.711
418.34	6.692
418.69	6.677
419.04	6.668
419.39	6.641
419.74	6.643
420.09	6.633
420.44	6.624
420.79	6.620
421.14	6.608
421.49	6.584
421.84	6.574
422.19	6.562
422.54	6.562
422.89	6.537
423.24	6.546
423.59	6.521
423.94	6.528
424.29	6.537
424.64	6.532
424.99	6.523
425.34	6.543
425.68	6.576
426.03	6.629
426.38	6.630
426.73	6.682
427.08	6.699
427.43	6.756
427.78	6.785
428.13	6.802
428.48	6.857
428.83	6.900
429.18	6.918
429.53	6.895
429.87	6.861
430.22	6.875
430.57	6.886
430.92	6.904
431.27	6.910
431.62	6.909
431.97	6.910
432.32	6.886
432.67	6.873
433.01	6.865
433.36	6.897
433.71	6.928
434.06	6.946
434.41	6.972
434.76	6.981
435.11	6.999
435.45	6.989
435.80	7.007
436.15	7.042
436.50	7.049
436.85	7.060
437.20	7.062
437.54	7.078
437.89	7.095
438.24	7.079
438.59	7.083
438.94	7.075
439.29	7.111
439.63	7.093
439.98	7.069
440.33	7.059
440.68	7.053
441.03	7.024
441.37	7.010
441.72	6.975
442.07	6.975
442.42	6.972
442.76	6.973
443.11	6.950
443.46	6.953
443.81	6.942
444.16	6.936
444.50	6.938
444.85	6.937
445.20	6.923
445.55	6.913
445.89	6.904
446.24	6.892
446.59	6.871
446.94	6.844
447.28	6.837
447.63	6.846
447.98	6.849
448.32	6.812
448.67	6.805
449.02	6.794
449.37	6.798
449.71	6.771
450.06	6.760
450.41	6.769
450.75	6.757
451.10	6.726
451.45	6.712
451.79	6.710
452.14	6.718
452.49	6.737
452.84	6.736
453.18	6.741
453.53	6.764
453.88	6.777
454.22	6.774
454.57	6.809
454.92	6.824
455.26	6.835
455.61	6.843
455.95	6.847
456.30	6.857
456.65	6.890
456.99	6.914
457.34	6.929
457.69	6.929
458.03	6.947
458.38	6.967
458.73	6.985
459.07	6.991
459.42	7.014
459.76	7.058
460.11	7.074
460.46	7.096
460.80	7.098
461.15	7.092
461.49	7.120
461.84	7.141
462.19	7.155
462.53	7.205
462.88	7.262
463.22	7.270
463.57	7.272
463.91	7.297
464.26	7.336
464.61	7.365
464.95	7.413
465.30	7.445
465.64	7.492
465.99	7.515
466.33	7.522
466.68	7.522
467.02	7.573
467.37	7.614
467.71	7.635
468.06	7.625
468.41	7.665
468.75	7.673
469.10	7.703
469.44	7.707
469.79	7.733
470.13	7.736
470.48	7.766
470.82	7.755
471.17	7.754
471.51	7.775
471.86	7.790
472.20	7.781
472.55	7.787
472.89	7.785
473.23	7.767
473.58	7.750
473.92	7.763
474.27	7.734
474.61	7.738
474.96	7.740
475.30	7.714
475.65	7.697
475.99	7.692
476.34	7.700
476.68	7.685
477.02	7.684
477.37	7.676
477.71	7.649
478.06	7.656
478.40	7.628
478.75	7.639
479.09	7.667
479.43	7.695
479.78	7.705
480.12	7.726
480.47	7.750
480.81	7.778
481.15	7.789
481.50	7.816
481.84	7.840
482.19	7.889
482.53	7.912
482.87	7.923
483.22	7.936
483.56	7.952
483.90	7.954
484.25	7.951
484.59	7.952
484.94	7.967
485.28	7.972
485.62	7.963
485.97	7.952
486.31	7.953
486.65	7.966
487.00	7.978
487.34	7.986
487.68	8.023
488.03	8.055
488.37	8.081
488.71	8.106
489.06	8.132
489.40	8.162
489.74	8.190
490.09	8.215
490.43	8.244
490.77	8.272
491.11	8.310
491.46	8.331
491.80	8.385
492.14	8.424
492.49	8.487
492.83	8.559
493.17	8.652
493.51	8.717
493.86	8.796
494.20	8.870
494.54	8.979
494.88	9.084
495.23	9.180
495.57	9.252
495.91	9.363
496.25	9.450
496.60	9.540
496.94	9.629
497.28	9.759
497.62	9.884
497.97	10.041
498.31	10.145
498.65	10.291
498.99	10.410
499.33	10.548
499.68	10.685
500.02	10.841
500.36	11.017
500.70	11.190
501.04	11.357
501.39	11.517
501.73	11.666
502.07	11.830
502.41	11.990
502.75	12.178
503.09	12.381
503.44	12.590
503.78	12.791
504.12	12.978
504.46	13.167
504.80	13.386
505.14	13.609
505.49	13.801
505.83	14.005
506.17	14.223
506.51	14.457
506.85	14.641
507.19	14.805
507.53	15.019
507.87	15.237
508.22	15.465
508.56	15.655
508.90	15.834
509.24	16.065
509.58	16.294
509.92	16.518
510.26	16.750
510.60	16.990
510.94	17.274
511.28	17.467
511.63	17.689
511.97	17.917
512.31	18.149
512.65	18.413
512.99	18.642
513.33	18.882
513.67	19.094
514.01	19.322
514.35	19.552
514.69	19.730
515.03	19.956
515.37	20.145
515.71	20.337
516.05	20.488
516.39	20.642
516.73	20.794
517.07	20.948
517.41	21.103
517.75	21.246
518.09	21.394
518.43	21.543
518.77	21.690
519.11	21.847
519.45	21.986
519.79	22.190
520.13	22.369
520.47	22.572
520.81	22.761
521.15	22.951
521.49	23.115
521.83	23.257
522.17	23.418
522.51	23.556
522.85	23.718
523.19	23.892
523.53	24.073
523.87	24.278
524.21	24.445
524.55	24.637
524.89	24.794
525.23	24.957
525.57	25.107
525.91	25.241
526.25	25.376
526.58	25.476
526.92	25.576
527.26	25.640
527.60	25.707
527.94	25.753
528.28	25.786
528.62	25.829
528.96	25.877
529.30	25.931
529.64	25.980
529.97	26.023
530.31	26.075
530.65	26.104
530.99	26.175
531.33	26.224
531.67	26.338
532.01	26.415
532.35	26.484
532.68	26.544
533.02	26.587
533.36	26.627
533.70	26.679
534.04	26.748
534.38	26.818
534.71	26.877
535.05	26.938
535.39	26.972
535.73	27.044
536.07	27.104
536.41	27.166
536.74	27.274
537.08	27.387
537.42	27.472
537.76	27.561
538.10	27.666
538.43	27.742
538.77	27.832
539.11	27.912
539.45	27.965
539.79	28.021
540.12	28.098
540.46	28.107
540.80	28.112
541.14	28.135
541.47	28.172
541.81	28.202
542.15	28.230
542.49	28.259
542.82	28.278
543.16	28.332
543.50	28.383
543.84	28.400
544.17	28.454
544.51	28.527
544.85	28.600
545.18	28.625
545.52	28.639
545.86	28.694
546.20	28.713
546.53	28.752
546.87	28.807
547.21	28.837
547.54	28.863
547.88	28.907
548.22	28.942
548.55	28.958
548.89	28.998
549.23	29.062
549.56	29.086
549.90	29.099
550.24	29.141
550.57	29.118
550.91	29.153
551.25	29.180
551.58	29.223
551.92	29.240
552.26	29.304
552.59	29.305
552.93	29.313
553.27	29.352
553.60	29.412
553.94	29.441
554.27	29.483
554.61	29.535
554.95	29.583
555.28	29.628
555.62	29.654
555.95	29.659
556.29	29.703
556.63	29.758
556.96	29.790
557.30	29.841
557.63	29.844
557.97	29.885
558.31	29.924
558.64	29.914
558.98	29.932
559.31	29.980
559.65	30.017
559.98	30.026
560.32	30.005
560.65	30.002
560.99	29.994
561.33	30.030
561.66	30.010
562.00	29.985
562.33	29.963
562.67	29.929
563.00	29.933
563.34	29.912
563.67	29.925
564.01	29.963
564.34	29.991
564.68	30.029
565.01	30.008
565.35	30.017
565.68	30.071
566.02	30.131
566.35	30.200
566.69	30.215
567.02	30.242
567.36	30.272
567.69	30.303
568.03	30.308
568.36	30.320
568.69	30.334
569.03	30.373
569.36	30.303
569.70	30.284
570.03	30.293
570.37	30.322
570.70	30.353
571.04	30.337
571.37	30.338
571.70	30.363
572.04	30.341
572.37	30.356
572.71	30.357
573.04	30.381
573.37	30.440
573.71	30.423
574.04	30.403
574.38	30.411
574.71	30.470
575.04	30.496
575.38	30.508
575.71	30.539
576.05	30.586
576.38	30.632
576.71	30.639
577.05	30.635
577.38	30.638
577.71	30.664
578.05	30.658
578.38	30.627
578.71	30.624
579.05	30.587
579.38	30.567
579.71	30.544
580.05	30.523
580.38	30.562
580.71	30.554
581.05	30.536
581.38	30.520
581.71	30.524
582.05	30.517
582.38	30.495
582.71	30.544
583.04	30.577
583.38	30.513
583.71	30.475
584.04	30.522
584.38	30.487
584.71	30.493
585.04	30.511
585.37	30.438
585.71	30.391
586.04	30.382
586.37	30.356
586.70	30.347
587.04	30.381
587.37	30.396
587.70	30.316
588.03	30.304
588.37	30.309
588.70	30.261
589.03	30.240
589.36	30.301
589.69	30.283
590.03	30.306
590.36	30.280
590.69	30.267
591.02	30.191
591.35	30.117
591.69	30.113
592.02	30.094
592.35	30.059
592.68	30.107
593.01	30.059
593.35	30.002
593.68	29.940
594.01	29.926
594.34	29.918
594.67	29.910
595.00	29.941
595.34	29.888
595.67	29.893
596.00	29.911
596.33	29.883
596.66	29.866
596.99	29.931
597.32	29.898
597.65	29.849
597.99	29.785
598.32	29.781
598.65	29.765
598.98	29.771
599.31	29.665
599.64	29.587
599.97	29.478
600.30	29.405
600.63	29.332
600.96	29.303
601.30	29.304
601.63	29.324
601.96	29.292
602.29	29.259
602.62	29.238
602.95	29.269
603.28	29.241
603.61	29.235
603.94	29.247
604.27	29.238
604.60	29.246
604.93	29.227
605.26	29.193
605.59	29.223
605.92	29.210
606.25	29.200
606.58	29.173
606.91	29.183
607.24	29.191
607.57	29.187
607.90	29.147
608.23	29.076
608.56	29.057
608.89	29.045
609.22	28.982
609.55	28.981
609.88	28.984
610.21	28.966
610.54	28.988
610.87	29.024
611.20	29.006
611.53	29.009
611.86	29.042
612.19	29.024
612.52	28.981
612.85	29.011
613.18	28.976
613.51	28.946
613.84	28.887
614.17	28.861
614.49	28.785
614.82	28.771
615.15	28.739
615.48	28.726
615.81	28.661
616.14	28.672
616.47	28.602
616.80	28.583
617.13	28.530
617.46	28.539
617.78	28.498
618.11	28.513
618.44	28.422
618.77	28.423
619.10	28.396
619.43	28.434
619.76	28.332
620.09	28.345
620.41	28.350
620.74	28.321
621.07	28.239
621.40	28.101
621.73	28.040
622.06	27.942
622.38	27.843
622.71	27.822
623.04	27.806
623.37	27.815
623.70	27.738
624.02	27.634
624.35	27.583
624.68	27.585
625.01	27.613
625.34	27.578
625.66	27.638
625.99	27.610
626.32	27.555
626.65	27.464
626.98	27.440
627.30	27.470
627.63	27.462
627.96	27.440
628.29	27.356
628.61	27.372
628.94	27.335
629.27	27.230
629.60	27.204
629.92	27.204
630.25	27.174
630.58	27.164
630.91	27.107
631.23	27.073
631.56	27.055
631.89	27.038
632.21	26.986
632.54	26.926
632.87	26.923
633.19	26.885
633.52	26.833
633.85	26.791
634.18	26.760
634.50	26.717
634.83	26.682
635.16	26.662
635.48	26.707
635.81	26.680
636.14	26.707
636.46	26.747
636.79	26.740
637.11	26.724
637.44	26.687
637.77	26.700
638.09	26.647
638.42	26.658
638.75	26.548
639.07	26.530
639.40	26.488
639.73	26.537
640.05	26.544
640.38	26.540
640.70	26.500
641.03	26.471
641.36	26.373
641.68	26.380
642.01	26.353
642.33	26.356
642.66	26.254
642.98	26.266
643.31	26.134
643.64	26.061
643.96	26.026
644.29	25.988
644.61	25.975
644.94	25.981
645.26	25.919
645.59	25.891
645.91	25.895
646.24	25.879
646.56	25.846
646.89	25.828
647.22	25.700
647.54	25.680
647.87	25.694
648.19	25.724
648.52	25.654
648.84	25.605
649.17	25.556
649.49	25.538
649.82	25.568
650.14	25.436
650.47	25.405
650.79	25.469
651.11	25.400
651.44	25.328
651.76	25.253
652.09	25.246
652.41	25.302
652.74	25.239
653.06	25.193
653.39	25.070
653.71	25.164
654.04	25.150
654.36	25.099
654.68	25.040
655.01	24.964
655.33	24.947
655.66	24.908
655.98	24.790
656.30	24.777
656.63	24.801
656.95	24.862
657.28	24.740
657.60	24.679
657.92	24.690
658.25	24.708
658.57	24.728
658.90	24.712
659.22	24.679
659.54	24.689
659.87	24.755
660.19	24.767
660.51	24.704
660.84	24.744
661.16	24.784
661.48	24.683
661.81	24.615
662.13	24.591
662.45	24.515
662.78	24.563
663.10	24.568
663.42	24.473
663.75	24.376
664.07	24.383
664.39	24.360
664.72	24.342
665.04	24.315
665.36	24.388
665.69	24.330
666.01	24.343
666.33	24.232
666.65	24.206
666.98	24.159
667.30	24.173
667.62	24.136
667.94	24.112
668.27	24.059
668.59	24.035
668.91	23.900
669.23	23.864
669.56	23.934
669.88	23.942
670.20	23.854
670.52	23.823
670.85	23.693
671.17	23.660
671.49	23.566
671.81	23.486
672.13	23.554
672.46	23.544
672.78	23.559
673.10	23.435
673.42	23.457
673.74	23.422
674.07	23.405
674.39	23.451
674.71	23.363
675.03	23.425
675.35	23.341
675.67	23.239
676.00	23.226
676.32	23.224
676.64	23.241
676.96	23.261
677.28	23.351
677.60	23.248
677.92	23.235
678.25	23.250
678.57	23.227
678.89	23.323
679.21	23.296
679.53	23.285
679.85	23.230
680.17	23.221
680.49	23.201
680.81	23.058
681.13	23.166
681.46	23.194
681.78	23.122
682.10	23.062
682.42	23.061
682.74	23.092
683.06	23.194
683.38	23.296
683.70	23.304
684.02	23.238
684.34	23.308
684.66	23.295
684.98	23.275
685.30	23.327
685.62	23.311
685.94	23.261
686.26	23.313
686.58	23.235
686.90	23.262
687.22	23.181
687.54	23.086
687.86	23.029
688.18	22.927
688.50	22.885
688.82	22.796
689.14	22.837
689.46	22.784
689.78	22.690
690.10	22.668
690.42	22.537
690.74	22.575
691.06	22.594
691.38	22.575
691.70	22.621
692.02	22.517
692.34	22.567
692.66	22.500
692.98	22.547
693.30	22.537
693.62	22.437
693.94	22.422
694.26	22.371
694.57	22.378
694.89	22.302
695.21	22.281
695.53	22.345
695.85	22.294
696.17	22.334
696.49	22.350
696.81	22.282
697.13	22.316
697.44	22.331
697.76	22.285
698.08	22.342
698.40	22.478
698.72	22.483
699.04	22.436
699.36	22.444
699.67	22.264
699.99	22.194
700.31	22.159
700.63	22.161
700.95	22.073
701.27	22.110
701.58	21.988
701.90	21.937
702.22	21.917
702.54	21.927
702.86	21.861
703.17	21.919
703.49	22.022
703.81	21.979
704.13	21.872
704.45	21.852
704.76	21.812
705.08	21.794
705.40	21.746
705.72	21.801
706.03	21.841
706.35	22.047
706.67	22.155
706.99	22.019
707.30	22.168
707.62	22.199
707.94	22.107
708.26	22.103
708.57	22.194
708.89	22.172
709.21	22.174
709.53	22.186
709.84	22.060
710.16	21.975
710.48	22.015
710.79	22.005
711.11	21.948
711.43	22.138
711.74	22.018
712.06	21.902
712.38	21.866
712.69	21.799
713.01	21.725
713.33	21.701
713.64	21.798
713.96	21.679
714.28	21.718
714.59	21.834
714.91	21.748
715.23	21.791
715.54	21.720
715.86	21.720
716.17	21.814
716.49	21.854
716.81	21.866
717.12	21.590
717.44	21.758
717.76	21.602
718.07	21.410
718.39	21.368
718.70	21.322
719.02	21.455
719.33	21.555
719.65	21.499
719.97	21.447
720.28	21.404
720.60	21.563
720.91	21.432
721.23	21.553
721.54	21.695
721.86	21.631
722.17	21.600
722.49	21.535
722.81	21.519
723.12	21.593
723.44	21.470
723.75	21.433
724.07	21.499
724.38	21.649
724.70	21.538
725.01	21.520
725.33	21.685
725.64	21.774
725.96	21.751
726.27	21.603
726.59	21.403
726.90	21.488
727.22	21.449
727.53	21.300
727.84	21.119
728.16	21.158
728.47	21.060
728.79	21.064
729.10	21.062
729.42	21.007
729.73	21.142
730.05	21.128
730.36	21.080
730.67	21.099
730.99	21.210
731.30	21.195
731.62	21.148
731.93	21.271
732.24	20.919
732.56	20.834
732.87	20.918
733.19	20.803
733.50	20.669
733.81	20.730
734.13	20.710
734.44	20.699
734.76	20.741
735.07	20.617
735.38	20.438
735.70	20.691
736.01	20.572
736.32	20.507
736.64	20.418
736.95	20.609
737.26	20.655
737.58	20.692
737.89	20.576
738.20	20.575
738.52	20.541
738.83	20.662
739.14	20.643
739.45	20.929
739.77	21.098
740.08	21.186
740.39	21.038
740.71	20.862
741.02	20.887
741.33	21.031
741.64	20.972
741.96	20.918
742.27	20.862
742.58	20.802
742.90	20.555
743.21	20.247
743.52	20.177
743.83	20.122
744.14	20.050
744.46	20.194
744.77	20.134
745.08	20.307
745.39	20.568
745.71	20.355
746.02	20.429
746.33	20.544
746.64	20.634
746.95	20.514
747.27	20.608
747.58	20.571
747.89	20.119
748.20	19.929
748.51	19.739
748.82	19.632
749.14	19.633
749.45	19.667
749.76	19.713
750.07	19.698
750.38	19.623
750.69	19.610
751.01	19.721
751.32	19.921
751.63	20.019
751.94	19.861
752.25	19.815
752.56	20.056
752.87	19.815
753.18	19.756
753.49	19.900
753.81	20.019
754.12	20.088
754.43	19.927
754.74	19.816
755.05	20.022
755.36	20.146
755.67	20.037
755.98	19.813
756.29	19.885
756.60	19.636
756.91	19.492
757.22	19.708
757.53	19.651
757.84	19.706
758.15	19.964
758.46	19.766
758.77	19.821
759.09	19.943
759.40	20.188
759.71	20.297
760.02	20.346
760.33	20.391
760.64	20.319
760.95	20.339
761.26	20.346
761.57	20.185
761.88	20.365
762.18	20.378
762.49	20.596
762.80	20.455
763.11	20.455
763.42	20.556
763.73	20.394
764.04	20.421
764.35	20.497
764.66	20.445
764.97	20.460
765.28	20.388
765.59	20.436
765.90	20.039
766.21	20.071
766.52	19.828
766.83	19.824
767.14	19.769
767.44	19.551
767.75	19.070
768.06	19.219
768.37	19.179
768.68	18.925
768.99	18.732
769.30	18.820
769.61	18.892
769.91	19.060
770.22	18.863
770.53	19.090
770.84	19.025
771.15	19.379
771.46	19.244
771.77	19.225
772.07	19.015
772.38	18.949
772.69	18.838
773.00	18.655
773.31	18.747
773.61	18.786
773.92	18.683
774.23	18.864
774.54	18.959
774.85	18.973
775.15	18.712
775.46	18.672
775.77	18.391
776.08	18.692
776.39	18.821
776.69	18.465
777.00	18.071
777.31	17.875
777.62	17.839
777.92	17.365
778.23	17.455
778.54	17.722
778.85	17.995
779.15	17.997
779.46	17.861
779.77	17.781
780.07	17.635
780.38	18.369
780.69	18.636
781.00	18.201
781.30	18.358
781.61	18.298
781.92	18.380
782.22	18.515
782.53	18.589
782.84	18.583
783.14	18.694
783.45	18.988
783.76	18.952
784.06	18.833
784.37	19.405
784.68	19.694
784.98	19.686
785.29	19.524
785.60	19.469
785.90	20.030
786.21	20.078
786.51	19.839
786.82	19.605
787.13	19.300
787.43	19.300
787.74	19.010
788.04	18.773
788.35	18.537
788.66	18.392
788.96	18.015
789.27	17.491
789.57	17.220
789.88	17.259
790.19	17.677
790.49	17.769
790.80	17.721
791.10	17.747
791.41	17.765
791.71	17.792
792.02	18.100
792.32	18.556
792.63	18.798
792.93	18.991
793.24	19.283
793.54	18.943
793.85	18.754
794.15	19.026
794.46	18.960
794.76	19.299
795.07	19.661
795.37	19.809
795.68	19.618
795.98	19.525
796.29	19.453
796.59	18.965
796.90	18.897
797.20	19.346
797.51	18.965
797.81	18.954
798.12	18.762
798.42	18.658
798.72	18.342
799.03	18.393
799.33	18.469
799.64	18.149
799.94	18.862
800.25	19.017
800.55	19.047
800.85	19.456
801.16	19.455
801.46	18.910
801.77	18.781
802.07	18.794
802.37	18.579
802.68	18.582
802.98	19.045
803.28	18.325
803.59	18.499
803.89	18.061
804.20	18.275
804.50	18.675
804.80	19.241
805.11	18.961
805.41	19.473
805.71	19.513
806.02	19.705
806.32	19.460
806.62	20.152
806.93	20.327
807.23	20.802
807.53	20.521
807.83	20.447
808.14	20.747
808.44	21.200
808.74	20.499
809.05	20.914
809.35	20.493
809.65	20.791
809.95	20.477
810.26	19.760
810.56	19.138
810.86	19.069
811.16	19.370
811.47	18.679
811.77	18.429
812.07	18.377
812.37	18.497
812.68	18.773
812.98	18.360
813.28	18.095
813.58	18.231
813.88	18.517
814.19	18.804
814.49	18.253
814.79	18.649
815.09	19.127
815.39	19.635
815.70	19.201
816.00	19.445
816.30	19.540
816.60	19.586
816.90	19.889
817.20	20.026
817.50	19.907
817.81	19.998
818.11	20.094
818.41	20.068
818.71	20.226
819.01	20.123
819.31	19.916
819.61	20.009
819.92	20.082
820.22	20.076
820.52	19.951
820.82	19.938
821.12	19.893
821.42	19.831
821.72	19.754
822.02	19.584
822.32	19.610
822.62	19.697
822.92	19.724
823.22	19.571
823.52	19.452
823.83	19.468
824.13	19.397
824.43	19.393
824.73	19.374
825.03	19.458
825.33	19.568
825.63	19.604
825.93	19.485
826.23	19.280
826.53	19.409
826.83	19.444
827.13	19.515
827.43	19.475
827.73	19.514
828.03	19.609
828.33	19.366
828.63	19.358
828.93	19.161
829.23	19.227
829.53	19.246
829.83	18.913
830.13	19.325
830.42	19.117
830.72	19.329
831.02	19.707
831.32	19.489
831.62	19.481
831.92	19.122
832.22	19.292
832.52	19.109
832.82	18.951
833.12	19.032
833.42	18.820
833.72	18.807
834.01	18.681
834.31	18.199
834.61	18.022
834.91	18.139
835.21	18.250
835.51	18.355
835.81	18.279
836.11	18.504
836.40	18.324
836.70	18.362
837.00	18.634
837.30	18.891
837.60	18.999
837.90	19.461
838.19	19.567
838.49	20.280
838.79	19.600
839.09	20.159
839.39	20.480
839.68	21.317
839.98	21.052
840.28	19.745
840.58	19.200
840.88	18.932
841.17	18.952
841.47	18.855
841.77	18.401
842.07	19.862
842.36	18.992
842.66	18.333
842.96	18.591
843.26	17.849
843.55	19.331
843.85	18.856
844.15	19.943
844.45	19.419
844.74	18.371
845.04	18.321
845.34	16.170
845.63	16.531
845.93	16.763
846.23	15.207
846.53	15.657
846.82	15.737
847.12	16.840
847.42	15.380
847.71	16.086
848.01	16.479
848.31	17.799
848.60	19.375
848.90	19.573
849.19	18.705
849.49	19.225
849.79	19.751
850.08	19.040
850.38	18.983
850.68	18.354
850.97	17.397
851.27	17.725
851.56	14.321
851.86	14.754
852.16	15.472
852.45	16.330
852.75	17.784
853.04	16.330
853.34	16.804
853.64	13.689
853.93	14.964
854.23	14.859
854.52	14.984
854.82	16.875
855.11	13.980
855.41	13.159
855.70	12.827
856.00	11.803
856.30	14.037
856.59	15.620
856.89	19.449
857.18	19.705
857.48	21.226
857.77	20.170
858.07	19.877
858.36	20.003
858.66	19.361
858.95	20.175
859.25	18.460
859.54	17.190
859.84	15.107
860.13	12.641
860.42	12.402
860.72	11.110
861.01	12.583
861.31	10.867
861.60	12.793
861.90	13.288
862.19	12.959
862.49	14.651
862.78	13.855
863.07	14.077
863.37	15.729
863.66	15.582
863.96	16.364
864.25	16.370
864.54	17.968
864.84	16.454
865.13	17.315
865.43	17.440
865.72	20.015
866.01	17.723
866.31	7.420
866.60	26.519
866.89	18.541
>>>>>End Spectral Data<<<<<
