OOIBase32 Version 2.0.0.6 Data File
++++++++++++++++++++++++++++++++++++
Date: 01-18-2012, 22:56:29
User: Valued Ocean Optics Customer
Spectrometer Serial Number: USB2E2917
Spectrometer Channel: Master
Integration Time (msec): 5
Spectra Averaged: 10
Boxcar Smoothing: 5
Correct for Electrical Dark: Enabled
Time Normalized: Disabled
Dual-beam Reference: Disabled
Reference Channel: Master
Temperature: Not acquired
Spectrometer Type: S2000
ADC Type: USB2000
Number of Pixels in File: 2048
Graph Title: 
>>>>>Begin Spectral Data<<<<<
180.30	0.000
180.67	0.000
181.03	-3466.962
181.40	-217.324
181.77	87.908
182.14	343.482
182.51	24.241
182.88	-122.006
183.25	213.083
183.62	-166.155
183.99	9.741
184.36	-287.874
184.73	37.076
185.10	111.070
185.46	50.314
185.83	9.564
186.20	178.550
186.57	178.504
186.94	-99.755
187.31	-170.928
187.68	223.127
188.05	24.836
188.42	36.040
188.78	20.843
189.15	32.613
189.52	7.980
189.89	15.769
190.26	19.239
190.63	26.838
191.00	25.103
191.37	42.594
191.73	40.675
192.10	31.208
192.47	38.147
192.84	58.364
193.21	59.553
193.58	66.395
193.94	75.962
194.31	52.217
194.68	42.585
195.05	49.572
195.42	30.979
195.79	21.566
196.15	8.615
196.52	8.764
196.89	-6.170
197.26	-21.984
197.63	-21.951
198.00	-19.796
198.36	-6.293
198.73	-1.045
199.10	-10.637
199.47	-4.662
199.84	-2.210
200.20	3.639
200.57	-7.338
200.94	11.704
201.31	20.016
201.68	25.853
202.04	20.127
202.41	26.299
202.78	22.146
203.15	15.803
203.51	17.988
203.88	34.257
204.25	42.101
204.62	54.268
204.98	39.388
205.35	37.127
205.72	28.539
206.09	37.858
206.46	16.063
206.82	24.602
207.19	22.814
207.56	19.884
207.92	10.215
208.29	23.025
208.66	4.620
209.03	10.714
209.39	8.671
209.76	11.035
210.13	0.433
210.50	15.598
210.86	15.866
211.23	40.932
211.60	45.140
211.96	40.898
212.33	26.184
212.70	41.940
213.07	43.131
213.43	51.608
213.80	53.687
214.17	62.258
214.53	71.278
214.90	62.885
215.27	48.452
215.63	42.427
216.00	35.389
216.37	31.257
216.74	23.253
217.10	14.421
217.47	-6.682
217.84	-5.923
218.20	-12.285
218.57	-30.749
218.94	-13.532
219.30	-3.837
219.67	0.233
220.04	7.015
220.40	7.499
220.77	8.545
221.13	10.391
221.50	10.481
221.87	7.085
222.23	8.082
222.60	17.289
222.97	8.149
223.33	8.464
223.70	12.513
224.07	9.762
224.43	13.375
224.80	14.689
225.16	14.747
225.53	13.855
225.90	13.608
226.26	10.164
226.63	8.351
226.99	7.741
227.36	6.738
227.73	5.482
228.09	5.806
228.46	5.022
228.82	5.554
229.19	4.217
229.56	5.300
229.92	6.222
230.29	7.335
230.65	5.416
231.02	6.879
231.38	5.332
231.75	3.800
232.12	2.450
232.48	2.150
232.85	0.664
233.21	2.288
233.58	1.462
233.94	1.361
234.31	2.253
234.68	4.991
235.04	3.855
235.41	3.421
235.77	5.093
236.14	6.433
236.50	7.316
236.87	5.982
237.23	5.062
237.60	4.948
237.96	3.147
238.33	2.832
238.69	3.383
239.06	4.077
239.42	5.010
239.79	4.138
240.15	4.404
240.52	4.460
240.88	5.133
241.25	6.116
241.61	6.236
241.98	6.610
242.34	6.438
242.71	5.669
243.07	4.988
243.44	5.149
243.80	5.659
244.17	5.159
244.53	4.919
244.90	4.794
245.26	4.116
245.63	4.126
245.99	4.252
246.36	4.376
246.72	4.890
247.09	5.293
247.45	4.680
247.81	4.281
248.18	4.499
248.54	4.581
248.91	4.658
249.27	5.196
249.64	4.560
250.00	3.839
250.36	3.837
250.73	2.924
251.09	1.797
251.46	3.061
251.82	3.047
252.19	3.126
252.55	2.829
252.91	2.522
253.28	2.006
253.64	2.677
254.01	3.292
254.37	4.267
254.73	4.344
255.10	5.190
255.46	4.649
255.83	4.840
256.19	4.674
256.55	4.601
256.92	4.463
257.28	4.540
257.65	4.640
258.01	4.525
258.37	3.929
258.74	4.160
259.10	4.053
259.46	4.088
259.83	3.796
260.19	3.881
260.55	3.997
260.92	4.216
261.28	4.204
261.64	4.070
262.01	4.214
262.37	4.377
262.73	4.400
263.10	5.003
263.46	4.842
263.82	4.852
264.19	4.783
264.55	4.494
264.91	4.180
265.28	4.007
265.64	4.030
266.00	3.731
266.37	3.472
266.73	3.411
267.09	3.008
267.46	2.575
267.82	2.647
268.18	2.379
268.54	2.533
268.91	2.587
269.27	2.566
269.63	2.369
270.00	2.311
270.36	2.392
270.72	2.468
271.08	2.519
271.45	2.698
271.81	2.970
272.17	3.032
272.53	3.031
272.90	3.120
273.26	3.083
273.62	2.882
273.98	3.324
274.35	3.471
274.71	3.207
275.07	2.733
275.43	2.455
275.80	2.395
276.16	2.725
276.52	2.805
276.88	2.902
277.25	3.160
277.61	3.382
277.97	3.324
278.33	3.285
278.69	3.205
279.06	3.852
279.42	3.990
279.78	4.126
280.14	4.005
280.50	3.927
280.87	3.567
281.23	3.389
281.59	3.411
281.95	3.158
282.31	3.120
282.68	3.432
283.04	3.098
283.40	3.116
283.76	2.791
284.12	2.510
284.48	2.315
284.85	2.350
285.21	2.392
285.57	2.433
285.93	2.558
286.29	2.677
286.65	2.231
287.02	2.444
287.38	2.757
287.74	3.082
288.10	3.354
288.46	3.504
288.82	3.625
289.18	3.580
289.54	3.551
289.91	3.540
290.27	3.337
290.63	3.537
290.99	3.311
291.35	3.305
291.71	3.195
292.07	3.275
292.43	3.063
292.79	3.157
293.16	2.816
293.52	2.919
293.88	2.743
294.24	3.000
294.60	3.450
294.96	3.703
295.32	3.575
295.68	3.542
296.04	3.572
296.40	3.957
296.76	3.950
297.12	4.216
297.49	4.290
297.85	4.600
298.21	4.544
298.57	4.545
298.93	4.434
299.29	4.574
299.65	4.692
300.01	4.820
300.37	4.668
300.73	4.675
301.09	4.919
301.45	5.078
301.81	5.022
302.17	5.188
302.53	5.092
302.89	5.140
303.25	5.051
303.61	5.072
303.97	4.993
304.33	4.949
304.69	5.027
305.05	5.056
305.41	5.014
305.77	4.983
306.13	4.878
306.49	5.026
306.85	5.078
307.21	5.411
307.57	5.348
307.93	5.352
308.29	5.607
308.65	5.554
309.01	5.587
309.37	5.560
309.73	5.680
310.09	5.860
310.45	5.642
310.81	5.691
311.17	5.490
311.53	5.589
311.89	5.559
312.25	5.427
312.61	5.508
312.96	5.505
313.32	5.558
313.68	5.555
314.04	5.236
314.40	5.352
314.76	5.379
315.12	5.582
315.48	5.704
315.84	5.795
316.20	5.733
316.56	5.869
316.92	5.800
317.27	5.719
317.63	5.755
317.99	6.170
318.35	6.334
318.71	6.370
319.07	6.272
319.43	6.369
319.79	6.358
320.15	6.495
320.50	6.341
320.86	6.557
321.22	6.668
321.58	6.612
321.94	6.469
322.30	6.323
322.66	6.384
323.01	6.371
323.37	6.379
323.73	6.587
324.09	6.777
324.45	7.098
324.81	7.182
325.17	7.370
325.52	7.555
325.88	7.666
326.24	7.797
326.60	8.007
326.96	8.310
327.31	8.445
327.67	8.421
328.03	8.526
328.39	8.649
328.75	8.713
329.11	8.808
329.46	8.966
329.82	9.145
330.18	9.390
330.54	9.453
330.90	9.497
331.25	9.526
331.61	9.603
331.97	9.494
332.33	9.472
332.68	9.483
333.04	9.540
333.40	9.733
333.76	9.737
334.11	9.680
334.47	9.611
334.83	9.523
335.19	9.576
335.54	9.664
335.90	9.833
336.26	9.873
336.62	9.994
336.97	9.981
337.33	9.880
337.69	10.010
338.05	10.212
338.40	10.295
338.76	10.335
339.12	10.421
339.48	10.436
339.83	10.567
340.19	10.580
340.55	10.599
340.90	10.579
341.26	10.584
341.62	10.448
341.97	10.329
342.33	10.360
342.69	10.280
343.04	10.225
343.40	10.238
343.76	10.233
344.12	10.315
344.47	10.433
344.83	10.518
345.19	10.584
345.54	10.620
345.90	10.627
346.26	10.601
346.61	10.854
346.97	10.833
347.32	10.831
347.68	10.771
348.04	10.722
348.39	10.582
348.75	10.588
349.11	10.598
349.46	10.653
349.82	10.622
350.18	10.623
350.53	10.534
350.89	10.606
351.24	10.644
351.60	10.741
351.96	10.767
352.31	10.900
352.67	10.862
353.02	10.956
353.38	11.094
353.74	11.198
354.09	11.260
354.45	11.311
354.80	11.316
355.16	11.387
355.52	11.251
355.87	11.365
356.23	11.242
356.58	11.300
356.94	11.311
357.29	11.255
357.65	11.226
358.00	11.367
358.36	11.374
358.72	11.373
359.07	11.330
359.43	11.451
359.78	11.287
360.14	11.370
360.49	11.440
360.85	11.467
361.20	11.519
361.56	11.575
361.91	11.518
362.27	11.593
362.62	11.672
362.98	11.755
363.33	11.793
363.69	11.943
364.04	11.975
364.40	12.000
364.75	12.027
365.11	12.028
365.46	12.060
365.82	12.115
366.17	12.085
366.53	12.116
366.88	12.170
367.24	12.232
367.59	12.231
367.95	12.324
368.30	12.383
368.66	12.406
369.01	12.525
369.37	12.582
369.72	12.627
370.08	12.744
370.43	12.821
370.78	12.921
371.14	12.932
371.49	13.079
371.85	13.081
372.20	13.108
372.56	13.068
372.91	13.107
373.26	13.189
373.62	13.225
373.97	13.215
374.33	13.207
374.68	13.178
375.03	13.263
375.39	13.261
375.74	13.351
376.10	13.421
376.45	13.550
376.80	13.593
377.16	13.620
377.51	13.714
377.87	13.844
378.22	13.990
378.57	14.105
378.93	14.210
379.28	14.361
379.63	14.502
379.99	14.596
380.34	14.707
380.70	14.846
381.05	14.949
381.40	15.100
381.76	15.227
382.11	15.339
382.46	15.432
382.82	15.492
383.17	15.574
383.52	15.710
383.88	15.855
384.23	15.992
384.58	16.081
384.94	16.209
385.29	16.264
385.64	16.340
385.99	16.411
386.35	16.541
386.70	16.680
387.05	16.747
387.41	16.792
387.76	16.892
388.11	16.981
388.47	17.048
388.82	17.150
389.17	17.275
389.52	17.390
389.88	17.489
390.23	17.584
390.58	17.688
390.93	17.782
391.29	17.908
391.64	17.969
391.99	18.015
392.34	18.132
392.70	18.218
393.05	18.263
393.40	18.307
393.75	18.372
394.11	18.414
394.46	18.490
394.81	18.571
395.16	18.570
395.52	18.614
395.87	18.636
396.22	18.676
396.57	18.735
396.92	18.775
397.28	18.797
397.63	18.833
397.98	18.933
398.33	18.978
398.68	19.082
399.04	19.142
399.39	19.231
399.74	19.307
400.09	19.343
400.44	19.355
400.80	19.431
401.15	19.495
401.50	19.575
401.85	19.550
402.20	19.604
402.55	19.557
402.90	19.601
403.26	19.625
403.61	19.653
403.96	19.707
404.31	19.756
404.66	19.814
405.01	19.880
405.36	19.986
405.72	20.040
406.07	20.051
406.42	20.106
406.77	20.130
407.12	20.164
407.47	20.239
407.82	20.304
408.17	20.356
408.53	20.353
408.88	20.355
409.23	20.324
409.58	20.403
409.93	20.451
410.28	20.515
410.63	20.624
410.98	20.701
411.33	20.746
411.68	20.780
412.03	20.855
412.38	20.932
412.73	21.025
413.09	21.072
413.44	21.095
413.79	21.140
414.14	21.161
414.49	21.157
414.84	21.168
415.19	21.198
415.54	21.226
415.89	21.240
416.24	21.266
416.59	21.314
416.94	21.306
417.29	21.345
417.64	21.369
417.99	21.417
418.34	21.448
418.69	21.502
419.04	21.530
419.39	21.563
419.74	21.616
420.09	21.651
420.44	21.678
420.79	21.759
421.14	21.789
421.49	21.822
421.84	21.851
422.19	21.892
422.54	21.907
422.89	21.965
423.24	21.985
423.59	22.020
423.94	22.067
424.29	22.079
424.64	22.080
424.99	22.114
425.34	22.175
425.68	22.255
426.03	22.322
426.38	22.408
426.73	22.462
427.08	22.542
427.43	22.642
427.78	22.684
428.13	22.773
428.48	22.897
428.83	22.966
429.18	23.043
429.53	23.076
429.87	23.129
430.22	23.159
430.57	23.214
430.92	23.278
431.27	23.320
431.62	23.397
431.97	23.461
432.32	23.495
432.67	23.525
433.01	23.544
433.36	23.607
433.71	23.652
434.06	23.743
434.41	23.813
434.76	23.860
435.11	23.893
435.45	23.945
435.80	23.974
436.15	24.059
436.50	24.163
436.85	24.208
437.20	24.258
437.54	24.320
437.89	24.311
438.24	24.344
438.59	24.381
438.94	24.452
439.29	24.482
439.63	24.497
439.98	24.511
440.33	24.537
440.68	24.591
441.03	24.624
441.37	24.646
441.72	24.707
442.07	24.721
442.42	24.773
442.76	24.763
443.11	24.812
443.46	24.854
443.81	24.858
444.16	24.840
444.50	24.864
444.85	24.879
445.20	24.918
445.55	24.955
445.89	25.007
446.24	25.019
446.59	25.064
446.94	25.053
447.28	25.107
447.63	25.147
447.98	25.207
448.32	25.257
448.67	25.296
449.02	25.303
449.37	25.331
449.71	25.324
450.06	25.339
450.41	25.340
450.75	25.395
451.10	25.425
451.45	25.506
451.79	25.537
452.14	25.569
452.49	25.604
452.84	25.668
453.18	25.676
453.53	25.738
453.88	25.761
454.22	25.834
454.57	25.854
454.92	25.924
455.26	25.931
455.61	26.024
455.95	26.075
456.30	26.125
456.65	26.137
456.99	26.196
457.34	26.275
457.69	26.341
458.03	26.358
458.38	26.405
458.73	26.404
459.07	26.481
459.42	26.505
459.76	26.520
460.11	26.561
460.46	26.619
460.80	26.650
461.15	26.653
461.49	26.696
461.84	26.745
462.19	26.834
462.53	26.898
462.88	26.901
463.22	26.908
463.57	26.959
463.91	26.981
464.26	27.009
464.61	27.069
464.95	27.133
465.30	27.183
465.64	27.223
465.99	27.224
466.33	27.261
466.68	27.301
467.02	27.333
467.37	27.382
467.71	27.414
468.06	27.453
468.41	27.455
468.75	27.463
469.10	27.476
469.44	27.508
469.79	27.548
470.13	27.584
470.48	27.620
470.82	27.685
471.17	27.699
471.51	27.751
471.86	27.801
472.20	27.838
472.55	27.843
472.89	27.896
473.23	27.962
473.58	27.972
473.92	27.997
474.27	28.015
474.61	28.033
474.96	28.062
475.30	28.075
475.65	28.058
475.99	28.097
476.34	28.119
476.68	28.126
477.02	28.125
477.37	28.153
477.71	28.180
478.06	28.206
478.40	28.288
478.75	28.437
479.09	28.607
479.43	28.790
479.78	29.001
480.12	29.210
480.47	29.391
480.81	29.544
481.15	29.705
481.50	29.842
481.84	29.991
482.19	30.142
482.53	30.229
482.87	30.287
483.22	30.332
483.56	30.343
483.90	30.341
484.25	30.311
484.59	30.296
484.94	30.261
485.28	30.226
485.62	30.165
485.97	30.076
486.31	30.021
486.65	30.007
487.00	30.010
487.34	29.992
487.68	29.986
488.03	30.025
488.37	30.031
488.71	30.032
489.06	30.034
489.40	30.064
489.74	30.103
490.09	30.138
490.43	30.139
490.77	30.140
491.11	30.161
491.46	30.172
491.80	30.179
492.14	30.223
492.49	30.231
492.83	30.275
493.17	30.287
493.51	30.310
493.86	30.333
494.20	30.380
494.54	30.444
494.88	30.524
495.23	30.591
495.57	30.636
495.91	30.679
496.25	30.814
496.60	30.883
496.94	30.953
497.28	31.038
497.62	31.087
497.97	31.161
498.31	31.230
498.65	31.310
498.99	31.394
499.33	31.490
499.68	31.603
500.02	31.665
500.36	31.737
500.70	31.804
501.04	31.854
501.39	31.963
501.73	32.068
502.07	32.152
502.41	32.221
502.75	32.288
503.09	32.333
503.44	32.371
503.78	32.451
504.12	32.536
504.46	32.624
504.80	32.697
505.14	32.760
505.49	32.827
505.83	32.910
506.17	33.011
506.51	33.117
506.85	33.240
507.19	33.319
507.53	33.383
507.87	33.484
508.22	33.581
508.56	33.676
508.90	33.747
509.24	33.821
509.58	33.872
509.92	33.938
510.26	34.020
510.60	34.067
510.94	34.134
511.28	34.201
511.63	34.237
511.97	34.308
512.31	34.359
512.65	34.489
512.99	34.534
513.33	34.624
513.67	34.649
514.01	34.728
514.35	34.796
514.69	34.911
515.03	35.003
515.37	35.119
515.71	35.208
516.05	35.296
516.39	35.371
516.73	35.458
517.07	35.541
517.41	35.626
517.75	35.691
518.09	35.773
518.43	35.825
518.77	35.866
519.11	35.875
519.45	35.922
519.79	35.985
520.13	35.993
520.47	36.091
520.81	36.141
521.15	36.222
521.49	36.290
521.83	36.370
522.17	36.450
522.51	36.558
522.85	36.688
523.19	36.799
523.53	36.965
523.87	37.148
524.21	37.357
524.55	37.562
524.89	37.779
525.23	37.931
525.57	38.089
525.91	38.239
526.25	38.363
526.58	38.521
526.92	38.638
527.26	38.733
527.60	38.810
527.94	38.814
528.28	38.823
528.62	38.804
528.96	38.813
529.30	38.805
529.64	38.791
529.97	38.781
530.31	38.748
530.65	38.716
530.99	38.688
531.33	38.667
531.67	38.705
532.01	38.759
532.35	38.805
532.68	38.844
533.02	38.871
533.36	38.888
533.70	38.915
534.04	38.892
534.38	38.916
534.71	38.934
535.05	38.964
535.39	38.968
535.73	38.965
536.07	38.979
536.41	39.044
536.74	39.132
537.08	39.232
537.42	39.376
537.76	39.491
538.10	39.588
538.43	39.707
538.77	39.847
539.11	39.961
539.45	40.061
539.79	40.173
540.12	40.257
540.46	40.318
540.80	40.351
541.14	40.359
541.47	40.396
541.81	40.440
542.15	40.427
542.49	40.453
542.82	40.465
543.16	40.484
543.50	40.449
543.84	40.428
544.17	40.485
544.51	40.531
544.85	40.577
545.18	40.597
545.52	40.606
545.86	40.650
546.20	40.648
546.53	40.666
546.87	40.660
547.21	40.730
547.54	40.746
547.88	40.743
548.22	40.754
548.55	40.739
548.89	40.822
549.23	40.895
549.56	40.939
549.90	40.927
550.24	40.974
550.57	41.015
550.91	41.071
551.25	41.100
551.58	41.139
551.92	41.206
552.26	41.249
552.59	41.246
552.93	41.309
553.27	41.386
553.60	41.456
553.94	41.516
554.27	41.594
554.61	41.618
554.95	41.725
555.28	41.770
555.62	41.781
555.95	41.845
556.29	41.917
556.63	41.940
556.96	41.981
557.30	42.072
557.63	42.094
557.97	42.152
558.31	42.208
558.64	42.272
558.98	42.316
559.31	42.400
559.65	42.484
559.98	42.568
560.32	42.601
560.65	42.666
560.99	42.704
561.33	42.825
561.66	42.899
562.00	42.956
562.33	43.010
562.67	43.032
563.00	43.094
563.34	43.152
563.67	43.196
564.01	43.309
564.34	43.380
564.68	43.420
565.01	43.463
565.35	43.503
565.68	43.561
566.02	43.622
566.35	43.661
566.69	43.728
567.02	43.790
567.36	43.846
567.69	43.841
568.03	43.888
568.36	43.932
568.69	44.008
569.03	44.037
569.36	44.042
569.70	44.084
570.03	44.162
570.37	44.174
570.70	44.207
571.04	44.241
571.37	44.318
571.70	44.375
572.04	44.446
572.37	44.424
572.71	44.478
573.04	44.559
573.37	44.545
573.71	44.580
574.04	44.647
574.38	44.710
574.71	44.747
575.04	44.741
575.38	44.770
575.71	44.811
576.05	44.850
576.38	44.946
576.71	44.970
577.05	45.053
577.38	45.070
577.71	45.106
578.05	45.108
578.38	45.124
578.71	45.201
579.05	45.186
579.38	45.241
579.71	45.311
580.05	45.301
580.38	45.374
580.71	45.413
581.05	45.495
581.38	45.532
581.71	45.578
582.05	45.647
582.38	45.668
582.71	45.788
583.04	45.774
583.38	45.804
583.71	45.874
584.04	45.943
584.38	46.000
584.71	46.057
585.04	46.148
585.37	46.198
585.71	46.265
586.04	46.339
586.37	46.367
586.70	46.503
587.04	46.545
587.37	46.548
587.70	46.590
588.03	46.627
588.37	46.712
588.70	46.756
589.03	46.757
589.36	46.775
589.69	46.848
590.03	46.857
590.36	46.852
590.69	46.898
591.02	46.943
591.35	47.023
591.69	47.076
592.02	47.065
592.35	47.050
592.68	47.156
593.01	47.223
593.35	47.273
593.68	47.353
594.01	47.435
594.34	47.501
594.67	47.574
595.00	47.586
595.34	47.663
595.67	47.682
596.00	47.747
596.33	47.783
596.66	47.839
596.99	47.869
597.32	47.889
597.65	47.942
597.99	47.998
598.32	48.046
598.65	48.086
598.98	48.104
599.31	48.206
599.64	48.270
599.97	48.328
600.30	48.360
600.63	48.489
600.96	48.533
601.30	48.634
601.63	48.658
601.96	48.690
602.29	48.730
602.62	48.750
602.95	48.784
603.28	48.799
603.61	48.894
603.94	48.956
604.27	48.907
604.60	48.949
604.93	48.905
605.26	48.928
605.59	48.972
605.92	49.021
606.25	49.100
606.58	49.211
606.91	49.271
607.24	49.330
607.57	49.322
607.90	49.358
608.23	49.454
608.56	49.540
608.89	49.650
609.22	49.720
609.55	49.787
609.88	49.830
610.21	49.850
610.54	49.975
610.87	49.988
611.20	50.033
611.53	50.148
611.86	50.174
612.19	50.197
612.52	50.208
612.85	50.251
613.18	50.279
613.51	50.342
613.84	50.402
614.17	50.424
614.49	50.476
614.82	50.583
615.15	50.634
615.48	50.679
615.81	50.702
616.14	50.769
616.47	50.829
616.80	50.919
617.13	50.981
617.46	51.006
617.78	51.074
618.11	51.069
618.44	51.184
618.77	51.238
619.10	51.307
619.43	51.433
619.76	51.553
620.09	51.573
620.41	51.600
620.74	51.664
621.07	51.743
621.40	51.809
621.73	51.894
622.06	51.912
622.38	51.989
622.71	52.072
623.04	52.125
623.37	52.146
623.70	52.213
624.02	52.241
624.35	52.250
624.68	52.295
625.01	52.288
625.34	52.311
625.66	52.374
625.99	52.367
626.32	52.403
626.65	52.435
626.98	52.451
627.30	52.493
627.63	52.512
627.96	52.614
628.29	52.661
628.61	52.701
628.94	52.785
629.27	52.723
629.60	52.782
629.92	52.831
630.25	52.834
630.58	52.947
630.91	53.092
631.23	53.163
631.56	53.211
631.89	53.255
632.21	53.360
632.54	53.416
632.87	53.566
633.19	53.605
633.52	53.599
633.85	53.739
634.18	53.727
634.50	53.662
634.83	53.727
635.16	53.684
635.48	53.693
635.81	53.661
636.14	53.686
636.46	53.771
636.79	53.837
637.11	53.962
637.44	53.930
637.77	53.933
638.09	54.013
638.42	54.094
638.75	54.260
639.07	54.306
639.40	54.416
639.73	54.474
640.05	54.491
640.38	54.526
640.70	54.544
641.03	54.598
641.36	54.705
641.68	54.727
642.01	54.693
642.33	54.687
642.66	54.775
642.98	54.832
643.31	54.865
643.64	54.854
643.96	54.927
644.29	54.927
644.61	54.957
644.94	54.955
645.26	54.989
645.59	55.053
645.91	55.067
646.24	55.107
646.56	55.085
646.89	55.160
647.22	55.170
647.54	55.293
647.87	55.298
648.19	55.281
648.52	55.347
648.84	55.444
649.17	55.462
649.49	55.473
649.82	55.518
650.14	55.600
650.47	55.571
650.79	55.651
651.11	55.655
651.44	55.702
651.76	55.815
652.09	55.901
652.41	55.876
652.74	55.931
653.06	56.020
653.39	56.014
653.71	56.020
654.04	56.040
654.36	56.044
654.68	55.976
655.01	56.091
655.33	56.105
655.66	56.026
655.98	56.044
656.30	56.103
656.63	56.076
656.95	56.075
657.28	56.117
657.60	56.180
657.92	56.225
658.25	56.264
658.57	56.223
658.90	56.253
659.22	56.263
659.54	56.317
659.87	56.247
660.19	56.350
660.51	56.438
660.84	56.396
661.16	56.415
661.48	56.381
661.81	56.348
662.13	56.386
662.45	56.344
662.78	56.427
663.10	56.408
663.42	56.499
663.75	56.438
664.07	56.403
664.39	56.367
664.72	56.336
665.04	56.276
665.36	56.349
665.69	56.240
666.01	56.276
666.33	56.172
666.65	56.139
666.98	56.120
667.30	56.094
667.62	56.099
667.94	56.139
668.27	56.077
668.59	56.189
668.91	56.100
669.23	56.268
669.56	56.282
669.88	56.359
670.20	56.356
670.52	56.441
670.85	56.439
671.17	56.384
671.49	56.389
671.81	56.435
672.13	56.365
672.46	56.436
672.78	56.420
673.10	56.470
673.42	56.488
673.74	56.543
674.07	56.412
674.39	56.453
674.71	56.483
675.03	56.565
675.35	56.602
675.67	56.668
676.00	56.719
676.32	56.792
676.64	56.748
676.96	56.763
677.28	56.778
677.60	56.835
677.92	56.871
678.25	56.978
678.57	56.964
678.89	57.067
679.21	57.133
679.53	57.041
679.85	56.922
680.17	56.949
680.49	56.965
680.81	57.001
681.13	57.007
681.46	57.011
681.78	57.040
682.10	56.978
682.42	56.801
682.74	56.783
683.06	56.802
683.38	56.845
683.70	56.864
684.02	56.870
684.34	56.746
684.66	56.866
684.98	56.963
685.30	56.885
685.62	56.901
685.94	56.954
686.26	56.951
686.58	57.014
686.90	57.013
687.22	56.978
687.54	57.068
687.86	57.159
688.18	57.102
688.50	56.995
688.82	56.937
689.14	57.016
689.46	56.997
689.78	56.859
690.10	56.822
690.42	56.789
690.74	56.845
691.06	56.630
691.38	56.613
691.70	56.634
692.02	56.702
692.34	56.717
692.66	56.688
692.98	56.732
693.30	56.846
693.62	56.949
693.94	57.045
694.26	56.886
694.57	57.015
694.89	56.922
695.21	56.925
695.53	56.868
695.85	56.914
696.17	56.991
696.49	57.060
696.81	57.126
697.13	57.101
697.44	57.040
697.76	57.119
698.08	57.086
698.40	57.115
698.72	57.071
699.04	57.027
699.36	57.019
699.67	56.902
699.99	56.831
700.31	56.696
700.63	56.602
700.95	56.511
701.27	56.329
701.58	56.138
701.90	56.140
702.22	55.990
702.54	55.828
702.86	55.813
703.17	55.773
703.49	55.667
703.81	55.712
704.13	55.662
704.45	55.697
704.76	55.746
705.08	55.817
705.40	55.852
705.72	55.894
706.03	55.976
706.35	55.908
706.67	55.861
706.99	55.833
707.30	55.715
707.62	55.802
707.94	55.679
708.26	55.751
708.57	55.755
708.89	55.636
709.21	55.550
709.53	55.478
709.84	55.433
710.16	55.479
710.48	55.485
710.79	55.432
711.11	55.276
711.43	55.410
711.74	55.411
712.06	55.375
712.38	55.363
712.69	55.422
713.01	55.554
713.33	55.606
713.64	55.481
713.96	55.610
714.28	55.734
714.59	55.880
714.91	55.871
715.23	55.974
715.54	56.064
715.86	56.225
716.17	56.302
716.49	56.239
716.81	56.220
717.12	56.483
717.44	56.433
717.76	56.404
718.07	56.300
718.39	56.210
718.70	55.964
719.02	55.938
719.33	55.718
719.65	55.533
719.97	55.440
720.28	55.511
720.60	55.305
720.91	55.150
721.23	55.065
721.54	55.105
721.86	55.098
722.17	55.120
722.49	55.041
722.81	55.158
723.12	55.387
723.44	55.414
723.75	55.285
724.07	55.375
724.38	55.296
724.70	55.370
725.01	55.243
725.33	55.260
725.64	55.239
725.96	55.383
726.27	55.405
726.59	55.165
726.90	55.229
727.22	55.257
727.53	55.053
727.84	54.873
728.16	54.833
728.47	54.827
728.79	54.565
729.10	54.425
729.42	54.334
729.73	54.244
730.05	54.101
730.36	53.961
730.67	53.784
730.99	53.738
731.30	53.948
731.62	53.760
731.93	53.539
732.24	53.798
732.56	53.665
732.87	53.432
733.19	53.299
733.50	53.358
733.81	53.112
734.13	52.919
734.44	52.871
734.76	52.645
735.07	52.517
735.38	52.539
735.70	52.379
736.01	52.548
736.32	52.644
736.64	52.560
736.95	52.352
737.26	52.430
737.58	52.475
737.89	52.363
738.20	52.265
738.52	52.383
738.83	52.352
739.14	52.064
739.45	51.810
739.77	51.559
740.08	51.429
740.39	51.365
740.71	51.190
741.02	50.910
741.33	50.838
741.64	50.764
741.96	50.617
742.27	50.439
742.58	50.242
742.90	50.181
743.21	50.020
743.52	50.000
743.83	49.765
744.14	50.097
744.46	50.221
744.77	50.177
745.08	50.153
745.39	49.925
745.71	49.809
746.02	50.094
746.33	50.266
746.64	50.281
746.95	50.363
747.27	50.633
747.58	50.420
747.89	50.500
748.20	50.479
748.51	50.400
748.82	50.422
749.14	50.649
749.45	50.530
749.76	50.439
750.07	50.504
750.38	50.304
750.69	50.255
751.01	50.131
751.32	49.974
751.63	49.671
751.94	49.645
752.25	49.557
752.56	49.372
752.87	49.108
753.18	48.992
753.49	48.874
753.81	48.915
754.12	48.769
754.43	48.586
754.74	48.586
755.05	48.815
755.36	49.117
755.67	49.550
755.98	49.785
756.29	50.211
756.60	50.558
756.91	50.811
757.22	51.052
757.53	51.288
757.84	51.673
758.15	52.213
758.46	52.586
758.77	52.803
759.09	52.755
759.40	52.978
759.71	53.218
760.02	53.143
760.33	53.286
760.64	53.494
760.95	53.639
761.26	53.591
761.57	53.281
761.88	53.132
762.18	52.914
762.49	53.008
762.80	52.799
763.11	52.472
763.42	52.421
763.73	52.288
764.04	51.837
764.35	51.561
764.66	51.324
764.97	51.067
765.28	50.605
765.59	50.274
765.90	49.737
766.21	49.313
766.52	48.793
766.83	48.201
767.14	47.592
767.44	47.272
767.75	46.782
768.06	46.479
768.37	46.301
768.68	46.541
768.99	46.404
769.30	46.011
769.61	45.774
769.91	45.723
770.22	45.735
770.53	45.568
770.84	45.250
771.15	45.083
771.46	45.084
771.77	44.845
772.07	44.613
772.38	44.497
772.69	44.458
773.00	44.509
773.31	44.734
773.61	44.753
773.92	44.748
774.23	44.751
774.54	44.864
774.85	44.647
775.15	44.492
775.46	43.901
775.77	43.786
776.08	43.859
776.39	43.618
776.69	43.135
777.00	42.753
777.31	42.544
777.62	42.546
777.92	42.224
778.23	42.195
778.54	42.321
778.85	42.368
779.15	42.359
779.46	42.054
779.77	41.864
780.07	42.238
780.38	41.988
780.69	42.116
781.00	42.215
781.30	42.066
781.61	41.982
781.92	42.225
782.22	42.350
782.53	42.620
782.84	42.512
783.14	42.711
783.45	41.953
783.76	42.242
784.06	42.014
784.37	42.243
784.68	42.060
784.98	41.803
785.29	41.257
785.60	41.700
785.90	41.338
786.21	41.740
786.51	41.788
786.82	42.375
787.13	42.541
787.43	42.854
787.74	42.638
788.04	43.077
788.35	43.545
788.66	43.965
788.96	43.639
789.27	43.734
789.57	43.875
789.88	44.001
790.19	44.067
790.49	43.912
790.80	43.775
791.10	43.750
791.41	43.917
791.71	43.666
792.02	43.353
792.32	43.584
792.63	43.534
792.93	43.328
793.24	43.258
793.54	42.728
793.85	43.244
794.15	42.968
794.46	42.890
794.76	42.798
795.07	42.746
795.37	43.256
795.68	42.959
795.98	42.790
796.29	43.195
796.59	42.861
796.90	43.166
797.20	42.708
797.51	42.878
797.81	43.066
798.12	42.980
798.42	43.538
798.72	43.133
799.03	43.121
799.33	43.573
799.64	42.850
799.94	42.922
800.25	43.171
800.55	43.024
800.85	43.256
801.16	42.858
801.46	42.129
801.77	41.283
802.07	40.818
802.37	40.988
802.68	40.566
802.98	40.788
803.28	41.047
803.59	40.853
803.89	40.822
804.20	40.550
804.50	40.719
804.80	41.329
805.11	41.985
805.41	42.038
805.71	42.059
806.02	42.091
806.32	41.563
806.62	41.748
806.93	41.773
807.23	41.975
807.53	41.813
807.83	41.966
808.14	42.034
808.44	41.778
808.74	42.284
809.05	42.177
809.35	41.874
809.65	42.100
809.95	42.202
810.26	41.892
810.56	41.452
810.86	41.112
811.16	41.068
811.47	41.309
811.77	41.287
812.07	41.179
812.37	41.608
812.68	42.113
812.98	42.736
813.28	42.201
813.58	42.356
813.88	42.192
814.19	42.907
814.49	42.883
814.79	42.478
815.09	42.448
815.39	42.490
815.70	41.984
816.00	42.122
816.30	42.027
816.60	42.166
816.90	42.256
817.20	42.896
817.50	43.135
817.81	43.446
818.11	43.720
818.41	44.039
818.71	44.277
819.01	44.551
819.31	44.518
819.61	44.561
819.92	44.712
820.22	44.940
820.52	45.107
820.82	45.172
821.12	45.279
821.42	45.411
821.72	45.435
822.02	45.568
822.32	45.598
822.62	45.825
822.92	45.828
823.22	45.777
823.52	45.739
823.83	45.669
824.13	45.575
824.43	45.480
824.73	45.411
825.03	45.365
825.33	44.935
825.63	44.874
825.93	44.587
826.23	44.489
826.53	44.610
826.83	44.287
827.13	44.068
827.43	44.191
827.73	44.139
828.03	43.884
828.33	43.613
828.63	43.985
828.93	43.873
829.23	43.660
829.53	43.744
829.83	43.383
830.13	43.869
830.42	43.590
830.72	43.263
831.02	42.938
831.32	42.601
831.62	43.005
831.92	42.651
832.22	42.619
832.52	42.726
832.82	42.429
833.12	42.310
833.42	42.127
833.72	42.001
834.01	41.626
834.31	41.258
834.61	41.594
834.91	41.440
835.21	41.496
835.51	40.968
835.81	40.588
836.11	40.687
836.40	40.517
836.70	39.815
837.00	40.053
837.30	40.751
837.60	41.124
837.90	41.018
838.19	39.867
838.49	39.553
838.79	39.592
839.09	38.627
839.39	38.849
839.68	39.055
839.98	38.394
840.28	37.625
840.58	36.424
840.88	36.025
841.17	35.765
841.47	36.274
841.77	35.610
842.07	35.182
842.36	35.816
842.66	35.000
842.96	33.523
843.26	34.630
843.55	34.704
843.85	35.101
844.15	36.344
844.45	36.500
844.74	35.601
845.04	36.209
845.34	36.552
845.63	36.225
845.93	36.255
846.23	34.106
846.53	34.239
846.82	35.764
847.12	34.691
847.42	32.120
847.71	32.312
848.01	31.499
848.31	32.490
848.60	31.102
848.90	30.868
849.19	31.262
849.49	34.022
849.79	34.123
850.08	32.106
850.38	34.787
850.68	37.123
850.97	37.342
851.27	38.029
851.56	36.409
851.86	39.118
852.16	38.877
852.45	36.084
852.75	35.097
853.04	35.315
853.34	34.567
853.64	32.785
853.93	31.721
854.23	29.816
854.52	29.376
854.82	28.329
855.11	26.695
855.41	27.377
855.70	28.915
856.00	31.048
856.30	28.972
856.59	29.242
856.89	29.278
857.18	30.030
857.48	27.157
857.77	27.951
858.07	28.551
858.36	30.188
858.66	30.233
858.95	30.314
859.25	30.651
859.54	31.851
859.84	32.028
860.13	32.718
860.42	29.139
860.72	29.181
861.01	29.501
861.31	29.843
861.60	27.390
861.90	29.026
862.19	28.877
862.49	28.854
862.78	28.109
863.07	29.877
863.37	28.630
863.66	31.508
863.96	32.241
864.25	32.364
864.54	33.410
864.84	33.465
865.13	30.760
865.43	32.173
865.72	39.962
866.01	39.934
866.31	29.382
866.60	23.744
866.89	43.394
>>>>>End Spectral Data<<<<<
