OOIBase32 Version 2.0.0.6 Data File
++++++++++++++++++++++++++++++++++++
Date: 01-18-2012, 22:56:39
User: Valued Ocean Optics Customer
Spectrometer Serial Number: USB2E2917
Spectrometer Channel: Master
Integration Time (msec): 5
Spectra Averaged: 10
Boxcar Smoothing: 5
Correct for Electrical Dark: Enabled
Time Normalized: Disabled
Dual-beam Reference: Disabled
Reference Channel: Master
Temperature: Not acquired
Spectrometer Type: S2000
ADC Type: USB2000
Number of Pixels in File: 2048
Graph Title: 
>>>>>Begin Spectral Data<<<<<
180.30	0.000
180.67	0.000
181.03	-459.921
181.40	220.888
181.77	126.526
182.14	-260.508
182.51	41.405
182.88	84.675
183.25	-13.192
183.62	41.445
183.99	-17.238
184.36	95.692
184.73	78.264
185.10	38.214
185.46	131.137
185.83	59.602
186.20	-193.581
186.57	-545.683
186.94	-41.755
187.31	-207.027
187.68	-11.670
188.05	39.586
188.42	29.322
188.78	52.946
189.15	52.763
189.52	31.098
189.89	34.678
190.26	42.447
190.63	25.846
191.00	29.540
191.37	48.398
191.73	49.197
192.10	51.696
192.47	54.311
192.84	56.518
193.21	72.997
193.58	60.710
193.94	35.147
194.31	12.502
194.68	25.809
195.05	30.034
195.42	22.893
195.79	36.625
196.15	27.603
196.52	24.618
196.89	21.927
197.26	0.158
197.63	7.612
198.00	18.836
198.36	15.332
198.73	16.617
199.10	13.573
199.47	12.781
199.84	7.778
200.20	5.200
200.57	1.526
200.94	0.125
201.31	18.756
201.68	16.016
202.04	11.664
202.41	12.777
202.78	16.901
203.15	5.872
203.51	13.674
203.88	15.124
204.25	34.101
204.62	35.947
204.98	41.225
205.35	37.422
205.72	36.938
206.09	36.847
206.46	25.368
206.82	23.647
207.19	40.217
207.56	32.658
207.92	33.329
208.29	37.673
208.66	49.578
209.03	46.685
209.39	61.027
209.76	69.808
210.13	70.798
210.50	88.691
210.86	107.807
211.23	98.103
211.60	99.012
211.96	91.713
212.33	80.386
212.70	71.946
213.07	69.813
213.43	56.168
213.80	54.033
214.17	55.569
214.53	52.115
214.90	39.078
215.27	30.120
215.63	21.395
216.00	27.946
216.37	28.451
216.74	20.974
217.10	17.020
217.47	17.360
217.84	13.540
218.20	16.317
218.57	9.739
218.94	14.409
219.30	13.545
219.67	15.623
220.04	16.432
220.40	8.694
220.77	3.946
221.13	4.050
221.50	-0.331
221.87	-0.333
222.23	-7.334
222.60	-6.221
222.97	-11.470
223.33	-14.296
223.70	-13.680
224.07	-17.378
224.43	-9.404
224.80	-4.313
225.16	-3.108
225.53	-0.507
225.90	0.709
226.26	1.978
226.63	2.277
226.99	4.461
227.36	4.945
227.73	5.976
228.09	5.695
228.46	5.139
228.82	5.587
229.19	7.121
229.56	5.484
229.92	6.576
230.29	6.983
230.65	5.631
231.02	5.044
231.38	5.300
231.75	0.496
232.12	0.784
232.48	0.711
232.85	-0.084
233.21	-0.585
233.58	1.023
233.94	-0.378
234.31	-0.982
234.68	2.576
235.04	3.137
235.41	3.369
235.77	7.260
236.14	7.384
236.50	8.150
236.87	6.019
237.23	5.338
237.60	4.840
237.96	3.577
238.33	4.164
238.69	4.445
239.06	3.851
239.42	4.070
239.79	3.985
240.15	4.308
240.52	4.706
240.88	6.135
241.25	6.340
241.61	6.423
241.98	7.039
242.34	7.188
242.71	6.262
243.07	6.092
243.44	5.799
243.80	5.890
244.17	5.485
244.53	5.503
244.90	5.102
245.26	4.869
245.63	4.722
245.99	4.623
246.36	4.491
246.72	4.830
247.09	5.339
247.45	5.164
247.81	4.958
248.18	5.311
248.54	5.240
248.91	5.339
249.27	5.473
249.64	5.732
250.00	5.802
250.36	6.047
250.73	5.173
251.09	4.250
251.46	4.534
251.82	4.628
252.19	4.132
252.55	3.766
252.91	3.637
253.28	3.571
253.64	3.542
254.01	3.415
254.37	3.756
254.73	4.734
255.10	4.889
255.46	4.770
255.83	4.310
256.19	4.262
256.55	4.338
256.92	4.120
257.28	3.996
257.65	4.001
258.01	4.121
258.37	4.059
258.74	4.047
259.10	4.153
259.46	4.187
259.83	4.227
260.19	4.425
260.55	4.540
260.92	4.708
261.28	4.997
261.64	5.106
262.01	4.980
262.37	4.906
262.73	4.602
263.10	5.164
263.46	4.965
263.82	5.038
264.19	5.056
264.55	4.673
264.91	5.147
265.28	4.888
265.64	4.839
266.00	4.874
266.37	4.465
266.73	4.425
267.09	3.881
267.46	3.920
267.82	3.923
268.18	3.760
268.54	3.966
268.91	3.593
269.27	3.354
269.63	3.207
270.00	2.955
270.36	2.892
270.72	2.964
271.08	2.864
271.45	2.931
271.81	2.994
272.17	3.155
272.53	2.893
272.90	2.593
273.26	2.760
273.62	2.556
273.98	2.958
274.35	3.276
274.71	3.163
275.07	3.204
275.43	2.589
275.80	2.729
276.16	2.894
276.52	3.223
276.88	3.457
277.25	3.641
277.61	3.940
277.97	3.743
278.33	3.410
278.69	3.676
279.06	4.197
279.42	4.598
279.78	4.473
280.14	4.197
280.50	4.111
280.87	3.994
281.23	3.926
281.59	3.962
281.95	4.050
282.31	4.247
282.68	4.152
283.04	3.867
283.40	3.878
283.76	3.985
284.12	3.825
284.48	3.551
284.85	3.418
285.21	3.210
285.57	3.056
285.93	3.035
286.29	3.085
286.65	3.085
287.02	2.985
287.38	3.116
287.74	3.135
288.10	3.230
288.46	3.377
288.82	3.547
289.18	3.659
289.54	3.857
289.91	4.123
290.27	4.042
290.63	3.914
290.99	4.068
291.35	4.206
291.71	4.382
292.07	4.373
292.43	4.351
292.79	4.349
293.16	4.107
293.52	3.887
293.88	3.612
294.24	3.577
294.60	3.825
294.96	3.876
295.32	3.767
295.68	3.547
296.04	3.639
296.40	3.754
296.76	3.917
297.12	4.081
297.49	4.094
297.85	4.049
298.21	4.280
298.57	4.338
298.93	4.226
299.29	4.230
299.65	4.248
300.01	4.361
300.37	4.320
300.73	4.193
301.09	4.465
301.45	4.671
301.81	4.921
302.17	4.937
302.53	4.867
302.89	4.822
303.25	4.778
303.61	4.819
303.97	4.670
304.33	4.728
304.69	4.655
305.05	4.544
305.41	4.529
305.77	4.253
306.13	4.229
306.49	4.202
306.85	4.359
307.21	4.500
307.57	4.456
307.93	4.543
308.29	4.673
308.65	4.807
309.01	4.887
309.37	4.870
309.73	5.000
310.09	5.005
310.45	4.924
310.81	4.828
311.17	4.831
311.53	4.872
311.89	4.914
312.25	4.811
312.61	4.886
312.96	4.891
313.32	4.971
313.68	4.934
314.04	4.956
314.40	4.990
314.76	5.052
315.12	5.107
315.48	5.310
315.84	5.436
316.20	5.315
316.56	5.208
316.92	5.193
317.27	5.122
317.63	5.241
317.99	5.190
318.35	5.280
318.71	5.136
319.07	5.095
319.43	4.968
319.79	4.803
320.15	4.986
320.50	4.921
320.86	4.815
321.22	4.875
321.58	4.835
321.94	4.906
322.30	5.007
322.66	5.295
323.01	5.337
323.37	5.492
323.73	5.593
324.09	5.459
324.45	5.694
324.81	5.928
325.17	5.985
325.52	6.083
325.88	5.952
326.24	5.944
326.60	5.931
326.96	6.012
327.31	6.035
327.67	6.002
328.03	6.180
328.39	6.149
328.75	6.022
329.11	6.155
329.46	6.061
329.82	6.216
330.18	6.331
330.54	6.441
330.90	6.517
331.25	6.524
331.61	6.571
331.97	6.421
332.33	6.306
332.68	6.251
333.04	6.103
333.40	6.268
333.76	6.229
334.11	6.183
334.47	6.187
334.83	6.109
335.19	6.022
335.54	6.082
335.90	6.219
336.26	6.329
336.62	6.464
336.97	6.438
337.33	6.385
337.69	6.386
338.05	6.436
338.40	6.269
338.76	6.196
339.12	6.248
339.48	6.170
339.83	6.257
340.19	6.363
340.55	6.417
340.90	6.569
341.26	6.609
341.62	6.631
341.97	6.642
342.33	6.702
342.69	6.677
343.04	6.605
343.40	6.660
343.76	6.711
344.12	6.716
344.47	6.758
344.83	6.646
345.19	6.573
345.54	6.572
345.90	6.470
346.26	6.349
346.61	6.489
346.97	6.507
347.32	6.551
347.68	6.404
348.04	6.262
348.39	6.234
348.75	6.296
349.11	6.317
349.46	6.257
349.82	6.296
350.18	6.397
350.53	6.386
350.89	6.411
351.24	6.429
351.60	6.593
351.96	6.729
352.31	6.825
352.67	6.825
353.02	6.894
353.38	7.052
353.74	7.080
354.09	7.140
354.45	7.144
354.80	7.142
355.16	7.086
355.52	7.031
355.87	6.978
356.23	6.844
356.58	6.869
356.94	6.812
357.29	6.680
357.65	6.589
358.00	6.629
358.36	6.539
358.72	6.649
359.07	6.602
359.43	6.577
359.78	6.538
360.14	6.563
360.49	6.578
360.85	6.562
361.20	6.656
361.56	6.711
361.91	6.660
362.27	6.661
362.62	6.632
362.98	6.767
363.33	6.838
363.69	6.839
364.04	6.813
364.40	6.796
364.75	6.855
365.11	6.895
365.46	6.897
365.82	6.889
366.17	6.927
366.53	6.899
366.88	6.812
367.24	6.803
367.59	6.804
367.95	6.824
368.30	6.861
368.66	6.850
369.01	6.784
369.37	6.835
369.72	6.842
370.08	6.881
370.43	6.908
370.78	6.919
371.14	6.952
371.49	7.018
371.85	7.063
372.20	6.956
372.56	7.002
372.91	7.037
373.26	7.004
373.62	6.980
373.97	6.910
374.33	6.883
374.68	6.910
375.03	6.785
375.39	6.736
375.74	6.720
376.10	6.826
376.45	6.813
376.80	6.818
377.16	6.880
377.51	6.927
377.87	6.961
378.22	7.012
378.57	7.005
378.93	7.096
379.28	7.180
379.63	7.218
379.99	7.245
380.34	7.242
380.70	7.278
381.05	7.285
381.40	7.334
381.76	7.447
382.11	7.491
382.46	7.571
382.82	7.584
383.17	7.619
383.52	7.700
383.88	7.744
384.23	7.803
384.58	7.833
384.94	7.841
385.29	7.843
385.64	7.837
385.99	7.800
386.35	7.860
386.70	7.953
387.05	7.966
387.41	7.912
387.76	7.881
388.11	7.926
388.47	7.875
388.82	7.900
389.17	7.985
389.52	7.997
389.88	8.070
390.23	8.049
390.58	8.072
390.93	8.004
391.29	8.029
391.64	8.068
391.99	8.039
392.34	8.109
392.70	8.167
393.05	8.132
393.40	8.165
393.75	8.160
394.11	8.185
394.46	8.140
394.81	8.250
395.16	8.270
395.52	8.245
395.87	8.248
396.22	8.280
396.57	8.257
396.92	8.287
397.28	8.271
397.63	8.231
397.98	8.261
398.33	8.302
398.68	8.293
399.04	8.314
399.39	8.377
399.74	8.355
400.09	8.391
400.44	8.393
400.80	8.361
401.15	8.382
401.50	8.440
401.85	8.397
402.20	8.398
402.55	8.388
402.90	8.390
403.26	8.395
403.61	8.442
403.96	8.426
404.31	8.447
404.66	8.479
405.01	8.515
405.36	8.518
405.72	8.590
406.07	8.611
406.42	8.629
406.77	8.637
407.12	8.632
407.47	8.653
407.82	8.674
408.17	8.698
408.53	8.740
408.88	8.722
409.23	8.770
409.58	8.776
409.93	8.768
410.28	8.741
410.63	8.846
410.98	8.915
411.33	8.955
411.68	8.981
412.03	9.030
412.38	9.059
412.73	9.113
413.09	9.108
413.44	9.107
413.79	9.163
414.14	9.224
414.49	9.194
414.84	9.190
415.19	9.218
415.54	9.233
415.89	9.227
416.24	9.271
416.59	9.288
416.94	9.319
417.29	9.332
417.64	9.335
417.99	9.368
418.34	9.389
418.69	9.410
419.04	9.419
419.39	9.446
419.74	9.457
420.09	9.454
420.44	9.456
420.79	9.482
421.14	9.505
421.49	9.504
421.84	9.486
422.19	9.503
422.54	9.518
422.89	9.515
423.24	9.505
423.59	9.524
423.94	9.540
424.29	9.544
424.64	9.523
424.99	9.497
425.34	9.528
425.68	9.587
426.03	9.594
426.38	9.594
426.73	9.620
427.08	9.657
427.43	9.680
427.78	9.656
428.13	9.702
428.48	9.773
428.83	9.860
429.18	9.885
429.53	9.892
429.87	9.915
430.22	9.940
430.57	9.971
430.92	10.006
431.27	10.029
431.62	10.043
431.97	10.050
432.32	10.027
432.67	9.998
433.01	10.001
433.36	10.005
433.71	9.992
434.06	10.010
434.41	10.037
434.76	10.023
435.11	10.060
435.45	10.117
435.80	10.142
436.15	10.159
436.50	10.200
436.85	10.201
437.20	10.210
437.54	10.256
437.89	10.271
438.24	10.264
438.59	10.273
438.94	10.250
439.29	10.235
439.63	10.221
439.98	10.240
440.33	10.249
440.68	10.288
441.03	10.290
441.37	10.285
441.72	10.313
442.07	10.336
442.42	10.371
442.76	10.391
443.11	10.415
443.46	10.436
443.81	10.435
444.16	10.429
444.50	10.425
444.85	10.453
445.20	10.462
445.55	10.433
445.89	10.439
446.24	10.426
446.59	10.412
446.94	10.411
447.28	10.400
447.63	10.391
447.98	10.400
448.32	10.386
448.67	10.371
449.02	10.357
449.37	10.362
449.71	10.347
450.06	10.331
450.41	10.337
450.75	10.336
451.10	10.356
451.45	10.384
451.79	10.353
452.14	10.356
452.49	10.338
452.84	10.343
453.18	10.335
453.53	10.348
453.88	10.356
454.22	10.376
454.57	10.393
454.92	10.423
455.26	10.441
455.61	10.521
455.95	10.556
456.30	10.609
456.65	10.644
456.99	10.683
457.34	10.707
457.69	10.746
458.03	10.748
458.38	10.764
458.73	10.767
459.07	10.799
459.42	10.790
459.76	10.791
460.11	10.799
460.46	10.803
460.80	10.811
461.15	10.815
461.49	10.808
461.84	10.845
462.19	10.866
462.53	10.903
462.88	10.889
463.22	10.899
463.57	10.957
463.91	10.949
464.26	10.975
464.61	10.979
464.95	11.015
465.30	11.056
465.64	11.086
465.99	11.081
466.33	11.098
466.68	11.116
467.02	11.114
467.37	11.111
467.71	11.139
468.06	11.150
468.41	11.156
468.75	11.127
469.10	11.109
469.44	11.110
469.79	11.102
470.13	11.080
470.48	11.088
470.82	11.112
471.17	11.090
471.51	11.108
471.86	11.120
472.20	11.126
472.55	11.138
472.89	11.151
473.23	11.137
473.58	11.148
473.92	11.157
474.27	11.148
474.61	11.142
474.96	11.145
475.30	11.135
475.65	11.114
475.99	11.117
476.34	11.133
476.68	11.129
477.02	11.144
477.37	11.163
477.71	11.179
478.06	11.192
478.40	11.229
478.75	11.270
479.09	11.343
479.43	11.410
479.78	11.499
480.12	11.585
480.47	11.662
480.81	11.719
481.15	11.782
481.50	11.837
481.84	11.909
482.19	11.972
482.53	12.022
482.87	12.056
483.22	12.085
483.56	12.095
483.90	12.084
484.25	12.085
484.59	12.066
484.94	12.047
485.28	12.034
485.62	11.998
485.97	11.952
486.31	11.927
486.65	11.897
487.00	11.883
487.34	11.871
487.68	11.876
488.03	11.875
488.37	11.905
488.71	11.900
489.06	11.898
489.40	11.913
489.74	11.931
490.09	11.932
490.43	11.949
490.77	11.950
491.11	11.964
491.46	11.960
491.80	11.952
492.14	11.947
492.49	11.982
492.83	11.986
493.17	11.989
493.51	12.010
493.86	12.028
494.20	12.030
494.54	12.053
494.88	12.074
495.23	12.120
495.57	12.162
495.91	12.182
496.25	12.207
496.60	12.226
496.94	12.256
497.28	12.281
497.62	12.298
497.97	12.344
498.31	12.378
498.65	12.413
498.99	12.450
499.33	12.481
499.68	12.537
500.02	12.581
500.36	12.648
500.70	12.698
501.04	12.732
501.39	12.816
501.73	12.857
502.07	12.894
502.41	12.922
502.75	12.944
503.09	12.979
503.44	13.012
503.78	13.077
504.12	13.133
504.46	13.175
504.80	13.244
505.14	13.292
505.49	13.344
505.83	13.406
506.17	13.479
506.51	13.536
506.85	13.606
507.19	13.665
507.53	13.682
507.87	13.723
508.22	13.763
508.56	13.790
508.90	13.807
509.24	13.847
509.58	13.867
509.92	13.918
510.26	13.969
510.60	13.992
510.94	14.018
511.28	14.054
511.63	14.048
511.97	14.080
512.31	14.080
512.65	14.106
512.99	14.137
513.33	14.200
513.67	14.203
514.01	14.245
514.35	14.292
514.69	14.360
515.03	14.385
515.37	14.463
515.71	14.538
516.05	14.599
516.39	14.658
516.73	14.685
517.07	14.699
517.41	14.724
517.75	14.723
518.09	14.743
518.43	14.723
518.77	14.739
519.11	14.756
519.45	14.760
519.79	14.769
520.13	14.764
520.47	14.788
520.81	14.807
521.15	14.842
521.49	14.889
521.83	14.907
522.17	14.970
522.51	15.041
522.85	15.071
523.19	15.101
523.53	15.189
523.87	15.305
524.21	15.399
524.55	15.521
524.89	15.626
525.23	15.699
525.57	15.783
525.91	15.851
526.25	15.910
526.58	15.983
526.92	16.047
527.26	16.097
527.60	16.121
527.94	16.135
528.28	16.121
528.62	16.100
528.96	16.090
529.30	16.074
529.64	16.065
529.97	16.046
530.31	16.023
530.65	15.996
530.99	15.974
531.33	15.955
531.67	15.955
532.01	15.964
532.35	15.972
532.68	15.990
533.02	16.007
533.36	15.993
533.70	16.015
534.04	16.007
534.38	16.011
534.71	15.992
535.05	15.990
535.39	16.002
535.73	15.977
536.07	15.972
536.41	15.996
536.74	16.024
537.08	16.084
537.42	16.108
537.76	16.152
538.10	16.203
538.43	16.265
538.77	16.331
539.11	16.369
539.45	16.439
539.79	16.497
540.12	16.520
540.46	16.534
540.80	16.542
541.14	16.542
541.47	16.573
541.81	16.574
542.15	16.559
542.49	16.555
542.82	16.546
543.16	16.536
543.50	16.510
543.84	16.527
544.17	16.528
544.51	16.524
544.85	16.547
545.18	16.524
545.52	16.534
545.86	16.541
546.20	16.537
546.53	16.534
546.87	16.552
547.21	16.563
547.54	16.562
547.88	16.575
548.22	16.590
548.55	16.595
548.89	16.616
549.23	16.615
549.56	16.695
549.90	16.697
550.24	16.741
550.57	16.736
550.91	16.792
551.25	16.805
551.58	16.848
551.92	16.908
552.26	16.942
552.59	16.937
552.93	16.973
553.27	16.955
553.60	16.955
553.94	16.958
554.27	16.995
554.61	16.995
554.95	17.022
555.28	17.036
555.62	17.023
555.95	17.024
556.29	17.042
556.63	17.063
556.96	17.080
557.30	17.135
557.63	17.166
557.97	17.158
558.31	17.197
558.64	17.224
558.98	17.248
559.31	17.290
559.65	17.322
559.98	17.402
560.32	17.406
560.65	17.446
560.99	17.475
561.33	17.495
561.66	17.571
562.00	17.608
562.33	17.647
562.67	17.648
563.00	17.667
563.34	17.685
563.67	17.690
564.01	17.744
564.34	17.757
564.68	17.799
565.01	17.851
565.35	17.868
565.68	17.874
566.02	17.883
566.35	17.906
566.69	17.928
567.02	17.963
567.36	17.978
567.69	17.990
568.03	18.036
568.36	18.062
568.69	18.071
569.03	18.088
569.36	18.118
569.70	18.160
570.03	18.215
570.37	18.255
570.70	18.282
571.04	18.322
571.37	18.371
571.70	18.371
572.04	18.383
572.37	18.379
572.71	18.414
573.04	18.426
573.37	18.397
573.71	18.371
574.04	18.385
574.38	18.417
574.71	18.427
575.04	18.414
575.38	18.418
575.71	18.411
576.05	18.436
576.38	18.424
576.71	18.404
577.05	18.461
577.38	18.474
577.71	18.471
578.05	18.449
578.38	18.451
578.71	18.440
579.05	18.448
579.38	18.490
579.71	18.490
580.05	18.511
580.38	18.561
580.71	18.566
581.05	18.619
581.38	18.646
581.71	18.675
582.05	18.698
582.38	18.750
582.71	18.803
583.04	18.790
583.38	18.852
583.71	18.872
584.04	18.923
584.38	18.934
584.71	18.943
585.04	19.007
585.37	19.064
585.71	19.120
586.04	19.157
586.37	19.205
586.70	19.282
587.04	19.316
587.37	19.336
587.70	19.344
588.03	19.362
588.37	19.453
588.70	19.419
589.03	19.438
589.36	19.441
589.69	19.410
590.03	19.428
590.36	19.437
590.69	19.441
591.02	19.439
591.35	19.476
591.69	19.485
592.02	19.461
592.35	19.473
592.68	19.465
593.01	19.460
593.35	19.514
593.68	19.517
594.01	19.525
594.34	19.545
594.67	19.593
595.00	19.584
595.34	19.635
595.67	19.642
596.00	19.652
596.33	19.673
596.66	19.700
596.99	19.713
597.32	19.733
597.65	19.734
597.99	19.748
598.32	19.768
598.65	19.767
598.98	19.781
599.31	19.810
599.64	19.844
599.97	19.894
600.30	19.931
600.63	19.956
600.96	19.958
601.30	19.991
601.63	20.012
601.96	20.049
602.29	20.142
602.62	20.125
602.95	20.121
603.28	20.157
603.61	20.170
603.94	20.193
604.27	20.204
604.60	20.242
604.93	20.260
605.26	20.262
605.59	20.250
605.92	20.209
606.25	20.239
606.58	20.270
606.91	20.281
607.24	20.295
607.57	20.290
607.90	20.320
608.23	20.317
608.56	20.327
608.89	20.377
609.22	20.404
609.55	20.439
609.88	20.462
610.21	20.447
610.54	20.436
610.87	20.410
611.20	20.426
611.53	20.410
611.86	20.374
612.19	20.321
612.52	20.283
612.85	20.262
613.18	20.236
613.51	20.243
613.84	20.273
614.17	20.312
614.49	20.334
614.82	20.337
615.15	20.392
615.48	20.447
615.81	20.505
616.14	20.554
616.47	20.568
616.80	20.600
617.13	20.635
617.46	20.669
617.78	20.661
618.11	20.673
618.44	20.629
618.77	20.593
619.10	20.583
619.43	20.642
619.76	20.589
620.09	20.587
620.41	20.599
620.74	20.600
621.07	20.573
621.40	20.581
621.73	20.547
622.06	20.590
622.38	20.640
622.71	20.718
623.04	20.733
623.37	20.780
623.70	20.807
624.02	20.833
624.35	20.816
624.68	20.893
625.01	20.900
625.34	20.949
625.66	21.037
625.99	21.041
626.32	21.006
626.65	20.970
626.98	20.970
627.30	20.995
627.63	20.971
627.96	21.028
628.29	20.980
628.61	20.986
628.94	20.997
629.27	20.947
629.60	20.930
629.92	20.986
630.25	21.005
630.58	21.033
630.91	21.070
631.23	21.086
631.56	21.072
631.89	21.106
632.21	21.119
632.54	21.087
632.87	21.087
633.19	21.130
633.52	21.086
633.85	21.091
634.18	21.012
634.50	20.973
634.83	20.961
635.16	20.898
635.48	20.855
635.81	20.822
636.14	20.850
636.46	20.925
636.79	20.931
637.11	20.914
637.44	20.875
637.77	20.916
638.09	20.887
638.42	20.930
638.75	21.017
639.07	21.014
639.40	21.065
639.73	21.056
640.05	20.992
640.38	20.953
640.70	20.965
641.03	20.957
641.36	20.976
641.68	21.012
642.01	20.969
642.33	20.893
642.66	20.897
642.98	20.905
643.31	20.910
643.64	20.850
643.96	20.837
644.29	20.850
644.61	20.867
644.94	20.867
645.26	20.862
645.59	20.914
645.91	20.968
646.24	20.985
646.56	20.935
646.89	20.912
647.22	20.956
647.54	21.021
647.87	21.016
648.19	20.985
648.52	20.992
648.84	21.042
649.17	20.967
649.49	20.918
649.82	20.913
650.14	20.938
650.47	20.963
650.79	20.971
651.11	20.907
651.44	20.918
651.76	20.948
652.09	20.932
652.41	20.836
652.74	20.876
653.06	20.907
653.39	20.890
653.71	20.896
654.04	20.858
654.36	20.797
654.68	20.758
655.01	20.664
655.33	20.678
655.66	20.637
655.98	20.643
656.30	20.612
656.63	20.556
656.95	20.537
657.28	20.497
657.60	20.575
657.92	20.603
658.25	20.627
658.57	20.636
658.90	20.602
659.22	20.601
659.54	20.609
659.87	20.551
660.19	20.553
660.51	20.515
660.84	20.479
661.16	20.342
661.48	20.323
661.81	20.265
662.13	20.296
662.45	20.251
662.78	20.238
663.10	20.131
663.42	20.159
663.75	20.172
664.07	20.162
664.39	20.097
664.72	20.039
665.04	19.997
665.36	19.969
665.69	19.908
666.01	19.902
666.33	19.945
666.65	19.945
666.98	19.838
667.30	19.844
667.62	19.826
667.94	19.862
668.27	19.792
668.59	19.789
668.91	19.786
669.23	19.762
669.56	19.730
669.88	19.571
670.20	19.635
670.52	19.670
670.85	19.598
671.17	19.507
671.49	19.463
671.81	19.538
672.13	19.409
672.46	19.358
672.78	19.320
673.10	19.300
673.42	19.325
673.74	19.183
674.07	19.125
674.39	19.048
674.71	19.121
675.03	19.110
675.35	19.113
675.67	19.093
676.00	19.135
676.32	19.159
676.64	19.176
676.96	19.188
677.28	19.193
677.60	19.217
677.92	19.273
678.25	19.310
678.57	19.291
678.89	19.269
679.21	19.413
679.53	19.319
679.85	19.295
680.17	19.252
680.49	19.197
680.81	19.251
681.13	19.275
681.46	19.197
681.78	19.151
682.10	19.095
682.42	19.078
682.74	18.978
683.06	19.018
683.38	19.059
683.70	19.096
684.02	19.189
684.34	19.109
684.66	19.096
684.98	19.176
685.30	19.129
685.62	19.146
685.94	19.257
686.26	19.258
686.58	19.249
686.90	19.158
687.22	19.155
687.54	19.140
687.86	19.164
688.18	19.098
688.50	18.993
688.82	18.927
689.14	18.866
689.46	18.727
689.78	18.646
690.10	18.604
690.42	18.586
690.74	18.483
691.06	18.359
691.38	18.294
691.70	18.255
692.02	18.253
692.34	18.226
692.66	18.221
692.98	18.156
693.30	18.179
693.62	18.159
693.94	18.118
694.26	18.157
694.57	18.135
694.89	18.108
695.21	18.116
695.53	18.143
695.85	18.189
696.17	18.180
696.49	18.200
696.81	18.180
697.13	18.185
697.44	18.181
697.76	18.058
698.08	18.077
698.40	18.054
698.72	18.033
699.04	17.859
699.36	17.777
699.67	17.750
699.99	17.551
700.31	17.400
700.63	17.200
700.95	17.018
701.27	16.949
701.58	16.691
701.90	16.645
702.22	16.569
702.54	16.576
702.86	16.442
703.17	16.238
703.49	16.151
703.81	16.139
704.13	16.127
704.45	16.124
704.76	16.021
705.08	15.954
705.40	15.793
705.72	15.635
706.03	15.619
706.35	15.564
706.67	15.607
706.99	15.604
707.30	15.433
707.62	15.344
707.94	15.322
708.26	15.480
708.57	15.534
708.89	15.539
709.21	15.512
709.53	15.545
709.84	15.576
710.16	15.532
710.48	15.673
710.79	15.727
711.11	15.711
711.43	15.751
711.74	15.745
712.06	15.782
712.38	15.839
712.69	15.915
713.01	15.852
713.33	15.813
713.64	15.928
713.96	15.904
714.28	16.034
714.59	16.236
714.91	16.357
715.23	16.384
715.54	16.505
715.86	16.546
716.17	16.541
716.49	16.584
716.81	16.688
717.12	16.588
717.44	16.547
717.76	16.491
718.07	16.386
718.39	16.067
718.70	15.926
719.02	15.645
719.33	15.512
719.65	15.442
719.97	15.219
720.28	15.076
720.60	15.006
720.91	15.017
721.23	15.022
721.54	14.907
721.86	15.072
722.17	14.995
722.49	15.161
722.81	15.086
723.12	15.191
723.44	15.353
723.75	15.421
724.07	15.465
724.38	15.479
724.70	15.442
725.01	15.516
725.33	15.486
725.64	15.536
725.96	15.406
726.27	15.491
726.59	15.308
726.90	15.139
727.22	15.072
727.53	15.044
727.84	14.925
728.16	14.746
728.47	14.738
728.79	14.665
729.10	14.431
729.42	14.362
729.73	14.282
730.05	14.253
730.36	14.213
730.67	14.063
730.99	13.922
731.30	13.810
731.62	13.791
731.93	13.606
732.24	13.502
732.56	13.506
732.87	13.337
733.19	13.089
733.50	12.756
733.81	12.635
734.13	12.519
734.44	12.453
734.76	12.337
735.07	12.196
735.38	12.099
735.70	11.849
736.01	11.611
736.32	11.528
736.64	11.354
736.95	11.451
737.26	11.101
737.58	11.068
737.89	10.933
738.20	10.742
738.52	10.520
738.83	10.224
739.14	10.001
739.45	9.906
739.77	9.758
740.08	9.726
740.39	9.392
740.71	9.491
741.02	8.868
741.33	8.644
741.64	8.346
741.96	8.337
742.27	7.981
742.58	7.920
742.90	7.594
743.21	7.430
743.52	7.193
743.83	7.256
744.14	7.176
744.46	7.465
744.77	7.210
745.08	7.117
745.39	6.977
745.71	7.092
746.02	7.397
746.33	7.601
746.64	7.685
746.95	7.827
747.27	7.575
747.58	7.464
747.89	7.394
748.20	7.510
748.51	7.693
748.82	7.494
749.14	7.628
749.45	7.306
749.76	7.137
750.07	6.979
750.38	6.743
750.69	6.906
751.01	6.923
751.32	7.030
751.63	6.909
751.94	6.815
752.25	6.993
752.56	6.984
752.87	6.890
753.18	7.074
753.49	6.994
753.81	7.343
754.12	7.607
754.43	7.548
754.74	7.574
755.05	8.090
755.36	8.483
755.67	8.869
755.98	9.177
756.29	9.683
756.60	10.248
756.91	10.866
757.22	11.357
757.53	11.740
757.84	12.502
758.15	13.289
758.46	13.841
758.77	14.360
759.09	14.697
759.40	15.199
759.71	15.546
760.02	15.832
760.33	16.018
760.64	16.257
760.95	16.317
761.26	16.365
761.57	16.220
761.88	16.145
762.18	16.046
762.49	15.915
762.80	15.661
763.11	15.471
763.42	15.206
763.73	15.139
764.04	14.566
764.35	14.275
764.66	13.810
764.97	13.185
765.28	12.331
765.59	11.335
765.90	10.612
766.21	9.810
766.52	8.927
766.83	8.060
767.14	7.099
767.44	6.653
767.75	6.004
768.06	5.508
768.37	5.192
768.68	5.287
768.99	5.326
769.30	5.361
769.61	4.855
769.91	4.508
770.22	4.349
770.53	3.915
770.84	3.655
771.15	3.198
771.46	2.796
771.77	2.310
772.07	1.984
772.38	1.906
772.69	1.361
773.00	1.851
773.31	1.874
773.61	1.682
773.92	1.867
774.23	1.497
774.54	1.782
774.85	2.190
775.15	2.588
775.46	2.112
775.77	1.971
776.08	1.813
776.39	1.743
776.69	1.840
777.00	1.463
777.31	1.424
777.62	1.723
777.92	1.782
778.23	1.468
778.54	1.659
778.85	1.784
779.15	2.155
779.46	2.372
779.77	2.306
780.07	2.092
780.38	2.190
780.69	2.196
781.00	2.085
781.30	1.965
781.61	2.096
781.92	1.687
782.22	2.106
782.53	2.040
782.84	2.299
783.14	2.001
783.45	1.919
783.76	2.659
784.06	2.800
784.37	3.113
784.68	3.286
784.98	3.607
785.29	4.331
785.60	4.474
785.90	4.413
786.21	4.465
786.51	5.163
786.82	6.118
787.13	6.155
787.43	6.328
787.74	6.284
788.04	6.404
788.35	6.614
788.66	6.561
788.96	6.563
789.27	6.726
789.57	6.516
789.88	6.108
790.19	5.815
790.49	5.709
790.80	5.715
791.10	6.139
791.41	6.522
791.71	6.346
792.02	6.083
792.32	6.122
792.63	6.375
792.93	6.423
793.24	6.867
793.54	6.622
793.85	6.683
794.15	6.635
794.46	6.553
794.76	5.804
795.07	5.551
795.37	6.145
795.68	6.048
795.98	5.891
796.29	6.431
796.59	6.204
796.90	5.979
797.20	5.855
797.51	6.119
797.81	5.859
798.12	6.000
798.42	6.485
798.72	5.759
799.03	5.363
799.33	5.173
799.64	5.351
799.94	5.255
800.25	5.291
800.55	5.032
800.85	4.886
801.16	4.847
801.46	4.772
801.77	4.640
802.07	4.579
802.37	4.976
802.68	4.759
802.98	4.547
803.28	4.519
803.59	4.962
803.89	5.522
804.20	5.141
804.50	5.072
804.80	5.185
805.11	4.970
805.41	5.149
805.71	5.534
806.02	5.969
806.32	5.381
806.62	5.517
806.93	5.630
807.23	5.232
807.53	6.212
807.83	6.722
808.14	6.983
808.44	6.875
808.74	7.189
809.05	7.061
809.35	7.107
809.65	7.797
809.95	7.765
810.26	7.694
810.56	7.817
810.86	7.146
811.16	7.013
811.47	7.222
811.77	7.847
812.07	8.201
812.37	8.423
812.68	8.530
812.98	8.580
813.28	9.246
813.58	9.747
813.88	9.656
814.19	10.060
814.49	10.315
814.79	10.311
815.09	10.570
815.39	10.489
815.70	10.574
816.00	10.577
816.30	10.725
816.60	10.925
816.90	11.152
817.20	12.256
817.50	12.779
817.81	13.547
818.11	13.988
818.41	14.186
818.71	14.573
819.01	15.059
819.31	15.244
819.61	15.344
819.92	15.584
820.22	15.754
820.52	15.782
820.82	15.776
821.12	15.836
821.42	16.007
821.72	16.123
822.02	16.243
822.32	16.221
822.62	16.441
822.92	16.483
823.22	16.461
823.52	16.384
823.83	16.385
824.13	16.482
824.43	16.376
824.73	16.296
825.03	16.247
825.33	16.102
825.63	15.965
825.93	15.736
826.23	15.666
826.53	15.632
826.83	15.474
827.13	15.427
827.43	15.413
827.73	15.436
828.03	15.228
828.33	15.233
828.63	15.180
828.93	15.226
829.23	14.760
829.53	14.676
829.83	14.105
830.13	14.469
830.42	14.654
830.72	14.257
831.02	13.867
831.32	13.793
831.62	13.962
831.92	13.809
832.22	13.662
832.52	14.112
832.82	14.188
833.12	14.364
833.42	14.055
833.72	13.516
834.01	13.300
834.31	13.317
834.61	13.274
834.91	12.886
835.21	12.578
835.51	12.490
835.81	12.074
836.11	12.074
836.40	11.963
836.70	12.143
837.00	11.985
837.30	12.445
837.60	12.339
837.90	12.631
838.19	12.165
838.49	12.168
838.79	11.630
839.09	11.027
839.39	9.949
839.68	9.426
839.98	7.915
840.28	7.813
840.58	6.960
840.88	6.123
841.17	5.803
841.47	4.971
841.77	4.555
842.07	5.795
842.36	5.261
842.66	4.621
842.96	2.821
843.26	3.709
843.55	2.545
843.85	1.616
844.15	2.744
844.45	1.760
844.74	0.956
845.04	1.371
845.34	-1.143
845.63	0.181
845.93	1.297
846.23	1.705
846.53	2.938
846.82	4.014
847.12	5.575
847.42	3.382
847.71	3.337
848.01	4.197
848.31	4.636
848.60	4.354
848.90	3.702
849.19	4.505
849.49	4.113
849.79	2.481
850.08	3.254
850.38	4.372
850.68	4.498
850.97	4.743
851.27	5.748
851.56	3.266
851.86	6.475
852.16	6.936
852.45	3.631
852.75	3.900
853.04	6.103
853.34	5.295
853.64	3.140
853.93	4.219
854.23	2.811
854.52	0.237
854.82	2.053
855.11	-1.962
855.41	-2.590
855.70	0.019
856.00	1.595
856.30	-1.072
856.59	-1.364
856.89	0.230
857.18	-0.405
857.48	-0.740
857.77	0.565
858.07	-0.305
858.36	0.865
858.66	0.126
858.95	0.129
859.25	1.761
859.54	1.124
859.84	0.805
860.13	-2.472
860.42	-1.763
860.72	-3.113
861.01	-5.620
861.31	-3.755
861.60	-4.782
861.90	-3.710
862.19	-4.897
862.49	-6.333
862.78	-5.171
863.07	-4.817
863.37	-4.062
863.66	-3.755
863.96	-1.185
864.25	0.553
864.54	-0.754
864.84	0.340
865.13	0.448
865.43	0.752
865.72	-8.199
866.01	1.358
866.31	6.128
866.60	10.958
866.89	-3.410
>>>>>End Spectral Data<<<<<
