OOIBase32 Version 2.0.0.6 Data File
++++++++++++++++++++++++++++++++++++
Date: 01-18-2012, 22:56:16
User: Valued Ocean Optics Customer
Spectrometer Serial Number: USB2E2917
Spectrometer Channel: Master
Integration Time (msec): 5
Spectra Averaged: 10
Boxcar Smoothing: 5
Correct for Electrical Dark: Enabled
Time Normalized: Disabled
Dual-beam Reference: Disabled
Reference Channel: Master
Temperature: Not acquired
Spectrometer Type: S2000
ADC Type: USB2000
Number of Pixels in File: 2048
Graph Title: 
>>>>>Begin Spectral Data<<<<<
180.30	0.000
180.67	0.000
181.03	-437.864
181.40	60.244
181.77	36.647
182.14	146.887
182.51	76.842
182.88	-7.596
183.25	315.296
183.62	114.748
183.99	-6.541
184.36	-152.996
184.73	122.937
185.10	195.870
185.46	240.680
185.83	31.010
186.20	174.770
186.57	11.232
186.94	-42.762
187.31	7.237
187.68	128.656
188.05	71.813
188.42	75.821
188.78	63.974
189.15	68.124
189.52	56.918
189.89	64.154
190.26	56.689
190.63	49.229
191.00	52.187
191.37	53.347
191.73	56.423
192.10	56.377
192.47	47.538
192.84	56.948
193.21	64.756
193.58	63.130
193.94	59.034
194.31	67.656
194.68	78.982
195.05	59.379
195.42	43.433
195.79	22.841
196.15	11.710
196.52	23.704
196.89	23.618
197.26	17.195
197.63	20.775
198.00	25.377
198.36	15.221
198.73	13.620
199.10	3.985
199.47	10.817
199.84	15.997
200.20	29.555
200.57	18.972
200.94	26.105
201.31	33.082
201.68	36.366
202.04	30.319
202.41	30.606
202.78	33.069
203.15	49.553
203.51	50.861
203.88	77.568
204.25	77.999
204.62	85.255
204.98	71.088
205.35	58.232
205.72	63.548
206.09	56.099
206.46	63.491
206.82	61.642
207.19	53.507
207.56	57.821
207.92	37.001
208.29	31.774
208.66	38.181
209.03	41.127
209.39	48.577
209.76	46.854
210.13	41.786
210.50	43.123
210.86	37.128
211.23	51.482
211.60	52.000
211.96	64.345
212.33	61.660
212.70	52.353
213.07	64.840
213.43	57.440
213.80	52.327
214.17	60.561
214.53	52.585
214.90	48.453
215.27	37.408
215.63	34.481
216.00	28.986
216.37	27.620
216.74	29.780
217.10	6.733
217.47	5.776
217.84	6.740
218.20	8.432
218.57	4.843
218.94	6.670
219.30	0.718
219.67	-1.277
220.04	-2.286
220.40	-9.956
220.77	-9.375
221.13	-0.423
221.50	-2.629
221.87	-4.426
222.23	-4.075
222.60	1.760
222.97	4.464
223.33	10.538
223.70	13.891
224.07	12.753
224.43	13.546
224.80	7.826
225.16	7.102
225.53	7.958
225.90	5.793
226.26	3.614
226.63	3.440
226.99	3.253
227.36	2.747
227.73	2.612
228.09	1.981
228.46	2.780
228.82	3.326
229.19	3.228
229.56	3.038
229.92	4.810
230.29	6.004
230.65	5.620
231.02	7.546
231.38	7.706
231.75	4.261
232.12	5.280
232.48	5.299
232.85	5.794
233.21	6.195
233.58	6.238
233.94	6.202
234.31	6.401
234.68	7.334
235.04	5.270
235.41	4.935
235.77	8.807
236.14	9.872
236.50	8.658
236.87	7.266
237.23	6.926
237.60	6.404
237.96	5.643
238.33	5.372
238.69	5.574
239.06	5.216
239.42	5.587
239.79	5.384
240.15	5.114
240.52	5.752
240.88	6.348
241.25	6.352
241.61	6.419
241.98	6.318
242.34	6.180
242.71	5.577
243.07	5.736
243.44	5.885
243.80	5.863
244.17	5.493
244.53	5.628
244.90	5.448
245.26	5.227
245.63	5.096
245.99	5.501
246.36	5.459
246.72	5.632
247.09	5.840
247.45	5.824
247.81	5.555
248.18	6.169
248.54	6.200
248.91	6.624
249.27	6.861
249.64	7.090
250.00	6.598
250.36	6.774
250.73	6.577
251.09	5.523
251.46	5.912
251.82	6.342
252.19	6.063
252.55	5.396
252.91	5.081
253.28	4.457
253.64	5.152
254.01	5.740
254.37	5.642
254.73	6.399
255.10	6.556
255.46	6.068
255.83	5.448
256.19	4.962
256.55	4.578
256.92	4.135
257.28	4.521
257.65	4.542
258.01	4.607
258.37	4.774
258.74	4.515
259.10	4.729
259.46	4.656
259.83	4.579
260.19	4.981
260.55	5.502
260.92	5.558
261.28	5.611
261.64	5.130
262.01	4.714
262.37	4.653
262.73	4.746
263.10	5.129
263.46	5.268
263.82	5.571
264.19	5.140
264.55	4.554
264.91	4.958
265.28	4.956
265.64	5.155
266.00	5.409
266.37	5.097
266.73	4.793
267.09	4.497
267.46	3.815
267.82	3.499
268.18	3.207
268.54	3.555
268.91	3.599
269.27	3.300
269.63	3.061
270.00	2.753
270.36	2.783
270.72	2.914
271.08	2.757
271.45	2.881
271.81	2.952
272.17	3.072
272.53	2.996
272.90	2.900
273.26	2.932
273.62	2.957
273.98	3.440
274.35	3.756
274.71	3.501
275.07	3.166
275.43	3.063
275.80	3.606
276.16	4.078
276.52	4.123
276.88	4.062
277.25	4.492
277.61	4.565
277.97	4.166
278.33	3.769
278.69	3.971
279.06	4.395
279.42	4.706
279.78	4.525
280.14	4.195
280.50	4.072
280.87	4.352
281.23	4.182
281.59	4.286
281.95	4.227
282.31	4.323
282.68	4.645
283.04	4.540
283.40	4.506
283.76	4.512
284.12	4.361
284.48	4.216
284.85	3.867
285.21	3.837
285.57	3.747
285.93	4.063
286.29	3.905
286.65	3.582
287.02	3.747
287.38	4.004
287.74	4.061
288.10	4.268
288.46	4.566
288.82	4.760
289.18	4.743
289.54	4.859
289.91	4.517
290.27	4.762
290.63	4.804
290.99	4.388
291.35	4.328
291.71	4.523
292.07	4.507
292.43	4.096
292.79	4.254
293.16	4.118
293.52	4.021
293.88	3.967
294.24	3.816
294.60	4.029
294.96	4.461
295.32	4.415
295.68	4.219
296.04	4.369
296.40	4.710
296.76	4.691
297.12	4.884
297.49	4.893
297.85	5.155
298.21	5.278
298.57	5.347
298.93	5.300
299.29	5.215
299.65	5.270
300.01	5.259
300.37	5.340
300.73	5.060
301.09	5.046
301.45	5.293
301.81	5.016
302.17	5.271
302.53	5.182
302.89	5.075
303.25	5.180
303.61	5.308
303.97	5.183
304.33	5.131
304.69	5.380
305.05	5.450
305.41	5.230
305.77	5.279
306.13	5.078
306.49	5.130
306.85	4.998
307.21	4.979
307.57	4.810
307.93	4.969
308.29	4.999
308.65	5.039
309.01	5.071
309.37	5.204
309.73	5.318
310.09	5.325
310.45	5.269
310.81	5.411
311.17	5.400
311.53	5.398
311.89	5.379
312.25	5.303
312.61	5.364
312.96	5.395
313.32	5.300
313.68	5.271
314.04	5.344
314.40	5.298
314.76	5.340
315.12	5.336
315.48	5.413
315.84	5.595
316.20	5.573
316.56	5.522
316.92	5.554
317.27	5.855
317.63	5.990
317.99	6.092
318.35	6.170
318.71	6.109
319.07	6.276
319.43	6.326
319.79	6.173
320.15	6.208
320.50	6.208
320.86	6.093
321.22	6.065
321.58	6.049
321.94	6.056
322.30	6.100
322.66	6.214
323.01	6.124
323.37	6.162
323.73	6.236
324.09	6.267
324.45	6.522
324.81	6.759
325.17	6.745
325.52	6.795
325.88	6.909
326.24	6.978
326.60	7.126
326.96	7.155
327.31	7.316
327.67	7.335
328.03	7.672
328.39	7.622
328.75	7.601
329.11	7.766
329.46	7.846
329.82	7.887
330.18	8.072
330.54	8.120
330.90	8.439
331.25	8.426
331.61	8.492
331.97	8.245
332.33	8.237
332.68	8.233
333.04	8.224
333.40	8.327
333.76	8.098
334.11	8.033
334.47	8.047
334.83	7.936
335.19	8.031
335.54	8.079
335.90	8.146
336.26	8.193
336.62	8.239
336.97	8.173
337.33	8.093
337.69	8.288
338.05	8.324
338.40	8.286
338.76	8.269
339.12	8.342
339.48	8.289
339.83	8.428
340.19	8.425
340.55	8.471
340.90	8.442
341.26	8.407
341.62	8.326
341.97	8.304
342.33	8.299
342.69	8.271
343.04	8.206
343.40	8.282
343.76	8.242
344.12	8.298
344.47	8.324
344.83	8.293
345.19	8.448
345.54	8.407
345.90	8.476
346.26	8.349
346.61	8.365
346.97	8.192
347.32	8.240
347.68	8.119
348.04	8.072
348.39	8.048
348.75	8.152
349.11	8.047
349.46	8.143
349.82	7.963
350.18	8.057
350.53	8.047
350.89	8.313
351.24	8.292
351.60	8.425
351.96	8.471
352.31	8.476
352.67	8.439
353.02	8.545
353.38	8.611
353.74	8.805
354.09	8.777
354.45	8.792
354.80	8.626
355.16	8.560
355.52	8.668
355.87	8.667
356.23	8.614
356.58	8.587
356.94	8.592
357.29	8.539
357.65	8.526
358.00	8.626
358.36	8.613
358.72	8.704
359.07	8.761
359.43	8.686
359.78	8.608
360.14	8.631
360.49	8.718
360.85	8.646
361.20	8.699
361.56	8.715
361.91	8.689
362.27	8.761
362.62	8.713
362.98	8.792
363.33	8.806
363.69	8.849
364.04	8.857
364.40	8.887
364.75	8.982
365.11	8.993
365.46	8.974
365.82	8.979
366.17	8.956
366.53	9.073
366.88	8.983
367.24	9.042
367.59	9.008
367.95	9.020
368.30	8.990
368.66	8.974
369.01	9.021
369.37	9.033
369.72	9.028
370.08	9.030
370.43	8.915
370.78	9.007
371.14	8.961
371.49	8.998
371.85	9.006
372.20	8.997
372.56	9.000
372.91	9.063
373.26	8.983
373.62	8.951
373.97	8.933
374.33	9.007
374.68	8.860
375.03	8.819
375.39	8.876
375.74	8.887
376.10	8.911
376.45	8.925
376.80	8.868
377.16	8.984
377.51	9.142
377.87	9.244
378.22	9.290
378.57	9.392
378.93	9.499
379.28	9.513
379.63	9.636
379.99	9.694
380.34	9.688
380.70	9.761
381.05	9.778
381.40	9.753
381.76	9.754
382.11	9.789
382.46	9.841
382.82	9.882
383.17	10.004
383.52	9.967
383.88	10.037
384.23	10.088
384.58	10.064
384.94	10.054
385.29	10.114
385.64	10.180
385.99	10.201
386.35	10.249
386.70	10.240
387.05	10.207
387.41	10.245
387.76	10.259
388.11	10.307
388.47	10.361
388.82	10.439
389.17	10.469
389.52	10.522
389.88	10.578
390.23	10.571
390.58	10.676
390.93	10.668
391.29	10.694
391.64	10.716
391.99	10.755
392.34	10.792
392.70	10.826
393.05	10.845
393.40	10.813
393.75	10.772
394.11	10.819
394.46	10.815
394.81	10.895
395.16	10.934
395.52	10.941
395.87	10.910
396.22	10.936
396.57	10.958
396.92	10.926
397.28	10.960
397.63	10.983
397.98	11.062
398.33	11.084
398.68	11.091
399.04	11.072
399.39	11.109
399.74	11.136
400.09	11.129
400.44	11.109
400.80	11.161
401.15	11.164
401.50	11.213
401.85	11.176
402.20	11.200
402.55	11.239
402.90	11.271
403.26	11.299
403.61	11.373
403.96	11.379
404.31	11.446
404.66	11.473
405.01	11.556
405.36	11.619
405.72	11.705
406.07	11.738
406.42	11.767
406.77	11.846
407.12	11.900
407.47	11.945
407.82	12.058
408.17	12.091
408.53	12.151
408.88	12.131
409.23	12.124
409.58	12.086
409.93	12.094
410.28	12.122
410.63	12.142
410.98	12.157
411.33	12.177
411.68	12.167
412.03	12.179
412.38	12.236
412.73	12.321
413.09	12.348
413.44	12.423
413.79	12.502
414.14	12.518
414.49	12.539
414.84	12.543
415.19	12.574
415.54	12.607
415.89	12.651
416.24	12.659
416.59	12.698
416.94	12.710
417.29	12.701
417.64	12.695
417.99	12.702
418.34	12.722
418.69	12.739
419.04	12.752
419.39	12.786
419.74	12.816
420.09	12.833
420.44	12.837
420.79	12.859
421.14	12.885
421.49	12.883
421.84	12.888
422.19	12.914
422.54	12.949
422.89	12.956
423.24	12.940
423.59	12.924
423.94	12.938
424.29	12.949
424.64	12.967
424.99	12.996
425.34	13.046
425.68	13.105
426.03	13.106
426.38	13.096
426.73	13.131
427.08	13.172
427.43	13.218
427.78	13.261
428.13	13.258
428.48	13.323
428.83	13.366
429.18	13.435
429.53	13.496
429.87	13.545
430.22	13.606
430.57	13.669
430.92	13.714
431.27	13.763
431.62	13.782
431.97	13.824
432.32	13.837
432.67	13.842
433.01	13.832
433.36	13.840
433.71	13.877
434.06	13.906
434.41	13.934
434.76	13.934
435.11	13.958
435.45	14.000
435.80	14.070
436.15	14.115
436.50	14.185
436.85	14.205
437.20	14.205
437.54	14.229
437.89	14.257
438.24	14.263
438.59	14.305
438.94	14.333
439.29	14.325
439.63	14.303
439.98	14.299
440.33	14.303
440.68	14.305
441.03	14.329
441.37	14.330
441.72	14.322
442.07	14.342
442.42	14.330
442.76	14.315
443.11	14.343
443.46	14.338
443.81	14.348
444.16	14.325
444.50	14.344
444.85	14.341
445.20	14.334
445.55	14.340
445.89	14.332
446.24	14.338
446.59	14.322
446.94	14.301
447.28	14.314
447.63	14.290
447.98	14.297
448.32	14.281
448.67	14.280
449.02	14.250
449.37	14.252
449.71	14.254
450.06	14.225
450.41	14.228
450.75	14.220
451.10	14.230
451.45	14.263
451.79	14.235
452.14	14.235
452.49	14.238
452.84	14.290
453.18	14.278
453.53	14.273
453.88	14.297
454.22	14.332
454.57	14.369
454.92	14.395
455.26	14.438
455.61	14.527
455.95	14.580
456.30	14.619
456.65	14.640
456.99	14.701
457.34	14.760
457.69	14.802
458.03	14.835
458.38	14.878
458.73	14.885
459.07	14.909
459.42	14.930
459.76	14.958
460.11	14.994
460.46	15.052
460.80	15.063
461.15	15.076
461.49	15.141
461.84	15.200
462.19	15.245
462.53	15.319
462.88	15.348
463.22	15.335
463.57	15.392
463.91	15.433
464.26	15.460
464.61	15.512
464.95	15.555
465.30	15.578
465.64	15.606
465.99	15.618
466.33	15.645
466.68	15.662
467.02	15.726
467.37	15.745
467.71	15.784
468.06	15.821
468.41	15.853
468.75	15.895
469.10	15.912
469.44	15.917
469.79	15.974
470.13	15.998
470.48	16.067
470.82	16.124
471.17	16.142
471.51	16.172
471.86	16.189
472.20	16.187
472.55	16.183
472.89	16.210
473.23	16.241
473.58	16.209
473.92	16.242
474.27	16.216
474.61	16.215
474.96	16.199
475.30	16.173
475.65	16.143
475.99	16.157
476.34	16.154
476.68	16.151
477.02	16.134
477.37	16.134
477.71	16.104
478.06	16.100
478.40	16.092
478.75	16.152
479.09	16.219
479.43	16.331
479.78	16.442
480.12	16.547
480.47	16.635
480.81	16.717
481.15	16.802
481.50	16.885
481.84	16.972
482.19	17.055
482.53	17.133
482.87	17.187
483.22	17.215
483.56	17.224
483.90	17.224
484.25	17.223
484.59	17.207
484.94	17.204
485.28	17.175
485.62	17.150
485.97	17.119
486.31	17.076
486.65	17.063
487.00	17.065
487.34	17.081
487.68	17.083
488.03	17.104
488.37	17.153
488.71	17.166
489.06	17.189
489.40	17.214
489.74	17.269
490.09	17.300
490.43	17.335
490.77	17.361
491.11	17.374
491.46	17.421
491.80	17.461
492.14	17.498
492.49	17.549
492.83	17.634
493.17	17.700
493.51	17.760
493.86	17.857
494.20	17.948
494.54	18.037
494.88	18.147
495.23	18.269
495.57	18.371
495.91	18.472
496.25	18.594
496.60	18.686
496.94	18.797
497.28	18.906
497.62	19.003
497.97	19.130
498.31	19.267
498.65	19.432
498.99	19.569
499.33	19.705
499.68	19.851
500.02	19.986
500.36	20.170
500.70	20.330
501.04	20.486
501.39	20.685
501.73	20.839
502.07	20.999
502.41	21.105
502.75	21.244
503.09	21.404
503.44	21.553
503.78	21.733
504.12	21.875
504.46	22.053
504.80	22.209
505.14	22.364
505.49	22.539
505.83	22.665
506.17	22.857
506.51	23.019
506.85	23.213
507.19	23.384
507.53	23.547
507.87	23.705
508.22	23.823
508.56	23.978
508.90	24.108
509.24	24.266
509.58	24.419
509.92	24.550
510.26	24.678
510.60	24.774
510.94	24.900
511.28	25.031
511.63	25.192
511.97	25.348
512.31	25.460
512.65	25.607
512.99	25.705
513.33	25.886
513.67	26.021
514.01	26.161
514.35	26.314
514.69	26.462
515.03	26.581
515.37	26.696
515.71	26.844
516.05	26.968
516.39	27.061
516.73	27.126
517.07	27.206
517.41	27.296
517.75	27.398
518.09	27.483
518.43	27.558
518.77	27.610
519.11	27.653
519.45	27.712
519.79	27.764
520.13	27.815
520.47	27.961
520.81	28.009
521.15	28.099
521.49	28.190
521.83	28.268
522.17	28.361
522.51	28.492
522.85	28.614
523.19	28.742
523.53	28.922
523.87	29.111
524.21	29.268
524.55	29.468
524.89	29.641
525.23	29.778
525.57	29.918
525.91	30.064
526.25	30.189
526.58	30.305
526.92	30.385
527.26	30.449
527.60	30.516
527.94	30.559
528.28	30.575
528.62	30.576
528.96	30.590
529.30	30.591
529.64	30.572
529.97	30.552
530.31	30.554
530.65	30.541
530.99	30.532
531.33	30.528
531.67	30.528
532.01	30.544
532.35	30.553
532.68	30.569
533.02	30.597
533.36	30.618
533.70	30.625
534.04	30.581
534.38	30.595
534.71	30.607
535.05	30.610
535.39	30.617
535.73	30.614
536.07	30.637
536.41	30.693
536.74	30.723
537.08	30.769
537.42	30.852
537.76	30.963
538.10	31.056
538.43	31.150
538.77	31.259
539.11	31.329
539.45	31.433
539.79	31.491
540.12	31.541
540.46	31.583
540.80	31.597
541.14	31.609
541.47	31.600
541.81	31.591
542.15	31.547
542.49	31.529
542.82	31.510
543.16	31.451
543.50	31.424
543.84	31.405
544.17	31.392
544.51	31.400
544.85	31.409
545.18	31.434
545.52	31.438
545.86	31.499
546.20	31.470
546.53	31.464
546.87	31.518
547.21	31.569
547.54	31.555
547.88	31.577
548.22	31.592
548.55	31.576
548.89	31.628
549.23	31.651
549.56	31.685
549.90	31.713
550.24	31.802
550.57	31.806
550.91	31.840
551.25	31.874
551.58	31.915
551.92	31.977
552.26	32.027
552.59	32.030
552.93	32.079
553.27	32.092
553.60	32.097
553.94	32.108
554.27	32.137
554.61	32.145
554.95	32.186
555.28	32.209
555.62	32.203
555.95	32.193
556.29	32.165
556.63	32.172
556.96	32.211
557.30	32.283
557.63	32.266
557.97	32.296
558.31	32.309
558.64	32.362
558.98	32.386
559.31	32.430
559.65	32.494
559.98	32.574
560.32	32.592
560.65	32.611
560.99	32.605
561.33	32.672
561.66	32.712
562.00	32.711
562.33	32.724
562.67	32.720
563.00	32.744
563.34	32.730
563.67	32.726
564.01	32.760
564.34	32.762
564.68	32.816
565.01	32.837
565.35	32.815
565.68	32.890
566.02	32.879
566.35	32.882
566.69	32.917
567.02	32.948
567.36	32.970
567.69	32.998
568.03	33.038
568.36	33.051
568.69	33.043
569.03	33.064
569.36	33.041
569.70	33.078
570.03	33.118
570.37	33.093
570.70	33.109
571.04	33.136
571.37	33.142
571.70	33.118
572.04	33.076
572.37	33.087
572.71	33.136
573.04	33.165
573.37	33.124
573.71	33.100
574.04	33.124
574.38	33.131
574.71	33.091
575.04	33.070
575.38	33.080
575.71	33.132
576.05	33.135
576.38	33.088
576.71	33.067
577.05	33.079
577.38	33.105
577.71	33.043
578.05	33.011
578.38	33.021
578.71	32.996
579.05	32.965
579.38	32.936
579.71	32.964
580.05	32.983
580.38	32.988
580.71	33.034
581.05	33.049
581.38	33.053
581.71	33.101
582.05	33.151
582.38	33.201
582.71	33.252
583.04	33.242
583.38	33.233
583.71	33.230
584.04	33.229
584.38	33.210
584.71	33.194
585.04	33.288
585.37	33.251
585.71	33.243
586.04	33.251
586.37	33.274
586.70	33.302
587.04	33.269
587.37	33.298
587.70	33.335
588.03	33.337
588.37	33.391
588.70	33.360
589.03	33.374
589.36	33.367
589.69	33.320
590.03	33.329
590.36	33.326
590.69	33.342
591.02	33.325
591.35	33.298
591.69	33.262
592.02	33.196
592.35	33.169
592.68	33.172
593.01	33.171
593.35	33.207
593.68	33.193
594.01	33.215
594.34	33.221
594.67	33.213
595.00	33.189
595.34	33.206
595.67	33.177
596.00	33.163
596.33	33.154
596.66	33.141
596.99	33.128
597.32	33.056
597.65	33.026
597.99	32.989
598.32	32.956
598.65	32.962
598.98	32.938
599.31	32.961
599.64	32.963
599.97	32.979
600.30	32.979
600.63	32.945
600.96	32.966
601.30	32.948
601.63	32.929
601.96	32.955
602.29	32.962
602.62	32.954
602.95	32.935
603.28	32.939
603.61	32.932
603.94	32.934
604.27	32.919
604.60	32.869
604.93	32.819
605.26	32.798
605.59	32.764
605.92	32.713
606.25	32.634
606.58	32.652
606.91	32.601
607.24	32.557
607.57	32.478
607.90	32.472
608.23	32.474
608.56	32.512
608.89	32.548
609.22	32.535
609.55	32.519
609.88	32.583
610.21	32.506
610.54	32.454
610.87	32.452
611.20	32.485
611.53	32.460
611.86	32.452
612.19	32.358
612.52	32.290
612.85	32.187
613.18	32.148
613.51	32.084
613.84	32.092
614.17	32.135
614.49	32.043
614.82	32.020
615.15	31.969
615.48	31.937
615.81	31.963
616.14	31.950
616.47	31.939
616.80	31.907
617.13	31.901
617.46	31.883
617.78	31.858
618.11	31.825
618.44	31.752
618.77	31.759
619.10	31.710
619.43	31.659
619.76	31.627
620.09	31.638
620.41	31.594
620.74	31.563
621.07	31.480
621.40	31.463
621.73	31.503
622.06	31.464
622.38	31.448
622.71	31.441
623.04	31.392
623.37	31.323
623.70	31.304
624.02	31.335
624.35	31.298
624.68	31.339
625.01	31.305
625.34	31.260
625.66	31.262
625.99	31.209
626.32	31.183
626.65	31.199
626.98	31.207
627.30	31.168
627.63	31.102
627.96	31.082
628.29	31.007
628.61	30.979
628.94	30.955
629.27	30.870
629.60	30.831
629.92	30.770
630.25	30.655
630.58	30.623
630.91	30.593
631.23	30.539
631.56	30.491
631.89	30.461
632.21	30.352
632.54	30.297
632.87	30.300
633.19	30.304
633.52	30.246
633.85	30.279
634.18	30.181
634.50	30.136
634.83	30.108
635.16	30.073
635.48	30.013
635.81	29.939
636.14	29.892
636.46	29.851
636.79	29.762
637.11	29.735
637.44	29.645
637.77	29.600
638.09	29.523
638.42	29.478
638.75	29.401
639.07	29.370
639.40	29.398
639.73	29.317
640.05	29.261
640.38	29.185
640.70	29.170
641.03	29.182
641.36	29.122
641.68	29.061
642.01	29.053
642.33	28.955
642.66	28.914
642.98	28.867
643.31	28.842
643.64	28.791
643.96	28.778
644.29	28.719
644.61	28.641
644.94	28.658
645.26	28.655
645.59	28.589
645.91	28.654
646.24	28.641
646.56	28.579
646.89	28.546
647.22	28.478
647.54	28.452
647.87	28.389
648.19	28.319
648.52	28.268
648.84	28.271
649.17	28.203
649.49	28.103
649.82	28.047
650.14	28.043
650.47	28.024
650.79	27.991
651.11	27.953
651.44	27.947
651.76	27.872
652.09	27.860
652.41	27.726
652.74	27.732
653.06	27.692
653.39	27.565
653.71	27.526
654.04	27.443
654.36	27.347
654.68	27.285
655.01	27.195
655.33	27.186
655.66	27.119
655.98	27.062
656.30	26.998
656.63	26.976
656.95	26.953
657.28	26.911
657.60	26.885
657.92	26.913
658.25	26.872
658.57	26.874
658.90	26.929
659.22	26.898
659.54	26.899
659.87	26.847
660.19	26.799
660.51	26.807
660.84	26.669
661.16	26.534
661.48	26.475
661.81	26.402
662.13	26.353
662.45	26.221
662.78	26.140
663.10	26.096
663.42	26.044
663.75	25.961
664.07	25.892
664.39	25.891
664.72	25.951
665.04	25.896
665.36	25.863
665.69	25.804
666.01	25.763
666.33	25.783
666.65	25.701
666.98	25.597
667.30	25.579
667.62	25.444
667.94	25.445
668.27	25.383
668.59	25.334
668.91	25.251
669.23	25.155
669.56	25.086
669.88	24.930
670.20	24.897
670.52	24.872
670.85	24.779
671.17	24.755
671.49	24.633
671.81	24.516
672.13	24.408
672.46	24.327
672.78	24.263
673.10	24.185
673.42	24.148
673.74	24.055
674.07	23.964
674.39	23.871
674.71	23.876
675.03	23.901
675.35	23.928
675.67	23.969
676.00	23.997
676.32	23.992
676.64	24.010
676.96	24.025
677.28	23.978
677.60	24.018
677.92	24.047
678.25	24.062
678.57	23.952
678.89	23.892
679.21	23.872
679.53	23.754
679.85	23.794
680.17	23.685
680.49	23.645
680.81	23.654
681.13	23.615
681.46	23.550
681.78	23.459
682.10	23.440
682.42	23.372
682.74	23.295
683.06	23.310
683.38	23.206
683.70	23.218
684.02	23.175
684.34	23.114
684.66	23.160
684.98	23.246
685.30	23.269
685.62	23.305
685.94	23.276
686.26	23.263
686.58	23.258
686.90	23.253
687.22	23.211
687.54	23.174
687.86	23.226
688.18	22.970
688.50	22.780
688.82	22.722
689.14	22.580
689.46	22.572
689.78	22.434
690.10	22.284
690.42	22.206
690.74	22.058
691.06	21.955
691.38	21.748
691.70	21.816
692.02	21.812
692.34	21.725
692.66	21.690
692.98	21.609
693.30	21.586
693.62	21.657
693.94	21.620
694.26	21.634
694.57	21.638
694.89	21.663
695.21	21.594
695.53	21.604
695.85	21.607
696.17	21.649
696.49	21.662
696.81	21.745
697.13	21.718
697.44	21.691
697.76	21.678
698.08	21.644
698.40	21.608
698.72	21.538
699.04	21.414
699.36	21.283
699.67	21.193
699.99	21.046
700.31	20.833
700.63	20.693
700.95	20.483
701.27	20.322
701.58	20.014
701.90	19.897
702.22	19.863
702.54	19.715
702.86	19.634
703.17	19.431
703.49	19.351
703.81	19.316
704.13	19.185
704.45	19.169
704.76	19.064
705.08	19.210
705.40	19.119
705.72	19.048
706.03	19.013
706.35	18.939
706.67	18.922
706.99	18.905
707.30	18.727
707.62	18.680
707.94	18.672
708.26	18.711
708.57	18.621
708.89	18.555
709.21	18.502
709.53	18.605
709.84	18.595
710.16	18.646
710.48	18.606
710.79	18.594
711.11	18.547
711.43	18.483
711.74	18.495
712.06	18.517
712.38	18.532
712.69	18.648
713.01	18.672
713.33	18.692
713.64	18.757
713.96	18.817
714.28	19.036
714.59	19.303
714.91	19.444
715.23	19.518
715.54	19.512
715.86	19.655
716.17	19.604
716.49	19.481
716.81	19.485
717.12	19.368
717.44	19.387
717.76	19.261
718.07	19.124
718.39	18.898
718.70	18.702
719.02	18.764
719.33	18.634
719.65	18.494
719.97	18.375
720.28	18.362
720.60	18.177
720.91	18.121
721.23	18.046
721.54	17.901
721.86	17.915
722.17	17.924
722.49	17.847
722.81	17.856
723.12	17.884
723.44	18.077
723.75	17.981
724.07	18.007
724.38	17.957
724.70	18.044
725.01	18.233
725.33	18.223
725.64	18.243
725.96	18.221
726.27	18.232
726.59	18.107
726.90	18.102
727.22	18.047
727.53	18.065
727.84	18.019
728.16	17.826
728.47	17.665
728.79	17.504
729.10	17.339
729.42	17.232
729.73	17.160
730.05	17.096
730.36	16.850
730.67	16.808
730.99	16.689
731.30	16.561
731.62	16.460
731.93	16.115
732.24	16.149
732.56	16.172
732.87	15.963
733.19	15.684
733.50	15.561
733.81	15.412
734.13	15.192
734.44	15.040
734.76	14.862
735.07	14.744
735.38	14.722
735.70	14.592
736.01	14.237
736.32	14.077
736.64	13.886
736.95	13.947
737.26	13.861
737.58	13.766
737.89	13.647
738.20	13.609
738.52	13.479
738.83	13.419
739.14	13.231
739.45	13.304
739.77	13.342
740.08	13.269
740.39	13.011
740.71	12.920
741.02	12.809
741.33	12.731
741.64	12.383
741.96	12.295
742.27	11.849
742.58	11.630
742.90	11.256
743.21	11.135
743.52	11.114
743.83	11.046
744.14	10.955
744.46	10.744
744.77	10.570
745.08	10.505
745.39	10.233
745.71	10.349
746.02	10.349
746.33	10.572
746.64	10.587
746.95	10.652
747.27	10.562
747.58	10.588
747.89	10.645
748.20	10.917
748.51	11.151
748.82	11.323
749.14	11.515
749.45	11.574
749.76	11.436
750.07	11.258
750.38	11.175
750.69	11.177
751.01	11.028
751.32	11.134
751.63	10.873
751.94	10.728
752.25	10.944
752.56	10.794
752.87	10.978
753.18	11.057
753.49	10.886
753.81	11.003
754.12	11.129
754.43	11.132
754.74	11.194
755.05	11.399
755.36	11.691
755.67	11.906
755.98	12.294
756.29	12.640
756.60	13.226
756.91	14.047
757.22	14.438
757.53	14.987
757.84	15.733
758.15	16.298
758.46	17.042
758.77	17.430
759.09	17.686
759.40	18.079
759.71	18.357
760.02	18.436
760.33	18.490
760.64	18.713
760.95	18.841
761.26	18.803
761.57	18.634
761.88	18.496
762.18	18.360
762.49	18.315
762.80	18.167
763.11	17.913
763.42	17.740
763.73	17.629
764.04	17.188
764.35	16.835
764.66	16.232
764.97	15.892
765.28	15.145
765.59	14.678
765.90	13.952
766.21	13.347
766.52	12.602
766.83	11.983
767.14	11.297
767.44	10.823
767.75	10.178
768.06	9.971
768.37	9.085
768.68	9.000
768.99	8.338
769.30	8.189
769.61	7.562
769.91	7.389
770.22	7.370
770.53	6.780
770.84	6.603
771.15	6.218
771.46	5.906
771.77	6.196
772.07	6.106
772.38	6.360
772.69	5.957
773.00	6.090
773.31	6.246
773.61	5.627
773.92	6.207
774.23	6.322
774.54	6.587
774.85	6.864
775.15	6.921
775.46	6.465
775.77	6.396
776.08	6.647
776.39	6.604
776.69	6.341
777.00	6.264
777.31	6.040
777.62	6.191
777.92	5.962
778.23	6.089
778.54	6.154
778.85	6.194
779.15	6.395
779.46	6.170
779.77	6.179
780.07	6.309
780.38	6.298
780.69	6.107
781.00	5.675
781.30	5.439
781.61	5.547
781.92	5.885
782.22	6.259
782.53	6.328
782.84	6.468
783.14	6.562
783.45	6.171
783.76	6.614
784.06	6.758
784.37	7.088
784.68	7.588
784.98	7.586
785.29	7.699
785.60	7.927
785.90	7.774
786.21	7.905
786.51	8.357
786.82	8.990
787.13	9.410
787.43	9.511
787.74	9.400
788.04	9.617
788.35	9.887
788.66	9.661
788.96	9.584
789.27	9.928
789.57	10.211
789.88	9.940
790.19	9.815
790.49	9.774
790.80	9.769
791.10	10.026
791.41	10.343
791.71	10.030
792.02	10.103
792.32	10.322
792.63	10.063
792.93	10.054
793.24	10.620
793.54	10.689
793.85	11.206
794.15	11.300
794.46	11.423
794.76	11.061
795.07	11.345
795.37	11.922
795.68	11.824
795.98	12.087
796.29	12.235
796.59	11.785
796.90	11.444
797.20	10.893
797.51	10.966
797.81	10.941
798.12	10.893
798.42	10.901
798.72	10.666
799.03	11.002
799.33	10.618
799.64	10.845
799.94	10.729
800.25	11.239
800.55	11.222
800.85	11.353
801.16	10.691
801.46	10.578
801.77	10.437
802.07	9.811
802.37	9.771
802.68	9.828
802.98	9.592
803.28	9.967
803.59	9.696
803.89	10.113
804.20	9.805
804.50	10.284
804.80	10.432
805.11	10.442
805.41	10.815
805.71	10.683
806.02	10.853
806.32	10.673
806.62	10.628
806.93	11.311
807.23	10.955
807.53	11.078
807.83	11.031
808.14	11.492
808.44	11.469
808.74	11.987
809.05	12.344
809.35	12.424
809.65	12.718
809.95	13.167
810.26	12.386
810.56	12.313
810.86	12.427
811.16	13.267
811.47	13.431
811.77	14.034
812.07	14.100
812.37	14.159
812.68	14.710
812.98	14.961
813.28	14.385
813.58	15.120
813.88	15.113
814.19	15.559
814.49	14.883
814.79	14.881
815.09	14.872
815.39	14.691
815.70	14.623
816.00	14.644
816.30	14.712
816.60	15.360
816.90	15.216
817.20	15.833
817.50	16.139
817.81	16.588
818.11	16.998
818.41	17.329
818.71	17.909
819.01	18.268
819.31	18.553
819.61	18.873
819.92	19.016
820.22	19.263
820.52	19.457
820.82	19.602
821.12	19.831
821.42	19.956
821.72	20.028
822.02	20.110
822.32	20.215
822.62	20.332
822.92	20.215
823.22	20.153
823.52	20.156
823.83	20.165
824.13	20.172
824.43	20.186
824.73	20.147
825.03	20.119
825.33	20.020
825.63	19.869
825.93	19.655
826.23	19.490
826.53	19.700
826.83	19.585
827.13	19.216
827.43	19.022
827.73	18.735
828.03	18.362
828.33	18.215
828.63	18.084
828.93	17.933
829.23	17.756
829.53	18.197
829.83	17.937
830.13	18.271
830.42	18.650
830.72	18.672
831.02	18.262
831.32	18.302
831.62	18.570
831.92	18.335
832.22	18.363
832.52	18.562
832.82	18.525
833.12	18.398
833.42	18.162
833.72	17.964
834.01	17.709
834.31	17.855
834.61	18.197
834.91	18.014
835.21	17.914
835.51	17.372
835.81	17.021
836.11	16.319
836.40	16.029
836.70	15.830
837.00	15.649
837.30	15.974
837.60	16.115
837.90	16.421
838.19	16.197
838.49	15.875
838.79	16.102
839.09	15.810
839.39	16.823
839.68	17.557
839.98	16.678
840.28	16.402
840.58	15.986
840.88	15.781
841.17	14.552
841.47	13.961
841.77	13.384
842.07	13.909
842.36	13.259
842.66	11.915
842.96	8.812
843.26	8.213
843.55	8.100
843.85	7.462
844.15	6.507
844.45	5.092
844.74	5.614
845.04	7.428
845.34	7.989
845.63	7.673
845.93	7.302
846.23	7.207
846.53	9.699
846.82	9.510
847.12	8.888
847.42	7.016
847.71	7.828
848.01	8.270
848.31	7.653
848.60	5.524
848.90	6.296
849.19	6.429
849.49	8.043
849.79	5.956
850.08	5.691
850.38	7.801
850.68	9.521
850.97	9.968
851.27	8.752
851.56	7.338
851.86	7.865
852.16	7.851
852.45	6.856
852.75	6.905
853.04	9.182
853.34	8.658
853.64	8.128
853.93	7.759
854.23	7.252
854.52	7.416
854.82	6.051
855.11	4.407
855.41	2.996
855.70	3.718
856.00	7.092
856.30	5.133
856.59	6.551
856.89	6.569
857.18	7.812
857.48	5.208
857.77	4.959
858.07	5.941
858.36	7.876
858.66	10.170
858.95	10.391
859.25	8.932
859.54	7.782
859.84	5.501
860.13	2.215
860.42	0.339
860.72	1.852
861.01	0.569
861.31	3.281
861.60	0.234
861.90	1.871
862.19	-0.452
862.49	-0.861
862.78	2.213
863.07	5.558
863.37	7.616
863.66	9.056
863.96	8.433
864.25	9.222
864.54	7.735
864.84	10.405
865.13	8.485
865.43	11.139
865.72	6.547
866.01	5.199
866.31	13.602
866.60	9.705
866.89	11.879
>>>>>End Spectral Data<<<<<
