OOIBase32 Version 2.0.0.6 Data File
++++++++++++++++++++++++++++++++++++
Date: 01-18-2012, 22:56:03
User: Valued Ocean Optics Customer
Spectrometer Serial Number: USB2E2917
Spectrometer Channel: Master
Integration Time (msec): 5
Spectra Averaged: 10
Boxcar Smoothing: 5
Correct for Electrical Dark: Enabled
Time Normalized: Disabled
Dual-beam Reference: Disabled
Reference Channel: Master
Temperature: Not acquired
Spectrometer Type: S2000
ADC Type: USB2000
Number of Pixels in File: 2048
Graph Title: 
>>>>>Begin Spectral Data<<<<<
180.30	0.000
180.67	0.000
181.03	-1302.355
181.40	47.037
181.77	66.813
182.14	-273.397
182.51	7.874
182.88	-15.345
183.25	176.063
183.62	-99.707
183.99	66.434
184.36	186.318
184.73	172.840
185.10	353.722
185.46	-46.335
185.83	-83.100
186.20	74.698
186.57	-220.760
186.94	31.531
187.31	3.132
187.68	121.055
188.05	37.196
188.42	53.314
188.78	53.556
189.15	56.323
189.52	49.167
189.89	59.126
190.26	63.679
190.63	56.581
191.00	62.708
191.37	83.257
191.73	80.396
192.10	77.716
192.47	78.167
192.84	86.210
193.21	76.003
193.58	60.497
193.94	36.896
194.31	18.974
194.68	33.601
195.05	38.990
195.42	25.455
195.79	23.847
196.15	6.717
196.52	5.560
196.89	3.407
197.26	-6.711
197.63	-10.140
198.00	-24.019
198.36	-11.155
198.73	-6.601
199.10	-9.660
199.47	-2.989
199.84	-2.059
200.20	8.877
200.57	11.769
200.94	20.450
201.31	27.074
201.68	42.962
202.04	48.350
202.41	47.925
202.78	38.520
203.15	37.689
203.51	38.481
203.88	46.430
204.25	49.231
204.62	44.345
204.98	39.553
205.35	37.288
205.72	43.867
206.09	50.481
206.46	46.932
206.82	53.860
207.19	52.129
207.56	52.584
207.92	47.362
208.29	36.848
208.66	40.818
209.03	42.897
209.39	40.953
209.76	31.447
210.13	23.908
210.50	16.586
210.86	12.462
211.23	32.084
211.60	40.980
211.96	37.025
212.33	42.836
212.70	41.475
213.07	46.945
213.43	47.969
213.80	48.368
214.17	51.191
214.53	67.613
214.90	59.017
215.27	37.258
215.63	27.441
216.00	37.192
216.37	41.004
216.74	44.259
217.10	36.724
217.47	25.409
217.84	14.684
218.20	1.667
218.57	-11.343
218.94	-11.365
219.30	0.455
219.67	11.564
220.04	9.636
220.40	-3.729
220.77	-19.287
221.13	-19.962
221.50	-15.487
221.87	-14.633
222.23	-5.076
222.60	2.714
222.97	5.265
223.33	3.118
223.70	-0.292
224.07	-4.219
224.43	0.206
224.80	3.262
225.16	5.225
225.53	6.597
225.90	8.250
226.26	6.991
226.63	4.328
226.99	6.736
227.36	7.474
227.73	6.543
228.09	6.615
228.46	6.890
228.82	8.859
229.19	8.265
229.56	7.942
229.92	8.224
230.29	9.522
230.65	9.424
231.02	8.179
231.38	6.697
231.75	5.354
232.12	6.693
232.48	5.144
232.85	4.243
233.21	5.031
233.58	4.402
233.94	4.460
234.31	3.576
234.68	4.031
235.04	3.098
235.41	4.019
235.77	6.490
236.14	5.546
236.50	7.683
236.87	6.895
237.23	6.297
237.60	5.385
237.96	2.968
238.33	2.669
238.69	3.829
239.06	4.190
239.42	4.328
239.79	3.587
240.15	3.724
240.52	3.781
240.88	4.126
241.25	4.602
241.61	5.246
241.98	6.141
242.34	6.050
242.71	5.619
243.07	4.478
243.44	4.365
243.80	4.828
244.17	4.872
244.53	4.522
244.90	4.261
245.26	4.101
245.63	4.002
245.99	4.022
246.36	4.042
246.72	4.036
247.09	4.913
247.45	4.571
247.81	4.403
248.18	4.258
248.54	4.717
248.91	4.962
249.27	4.863
249.64	4.746
250.00	3.873
250.36	4.237
250.73	3.628
251.09	2.517
251.46	3.403
251.82	3.429
252.19	3.102
252.55	2.772
252.91	2.797
253.28	2.597
253.64	2.821
254.01	3.469
254.37	3.519
254.73	4.196
255.10	4.912
255.46	4.343
255.83	3.811
256.19	3.828
256.55	3.425
256.92	3.226
257.28	3.538
257.65	3.512
258.01	3.622
258.37	3.459
258.74	3.516
259.10	3.281
259.46	3.400
259.83	3.472
260.19	3.955
260.55	4.312
260.92	4.158
261.28	3.992
261.64	3.915
262.01	3.672
262.37	3.641
262.73	3.586
263.10	4.124
263.46	3.776
263.82	3.807
264.19	3.040
264.55	2.504
264.91	2.920
265.28	2.796
265.64	3.120
266.00	3.286
266.37	3.111
266.73	2.903
267.09	2.769
267.46	2.858
267.82	3.128
268.18	3.052
268.54	3.213
268.91	2.661
269.27	2.483
269.63	2.119
270.00	2.048
270.36	2.281
270.72	2.343
271.08	2.362
271.45	2.145
271.81	1.813
272.17	1.996
272.53	1.856
272.90	2.114
273.26	2.031
273.62	2.130
273.98	2.224
274.35	2.356
274.71	2.129
275.07	1.765
275.43	1.454
275.80	1.969
276.16	2.391
276.52	2.614
276.88	2.766
277.25	3.077
277.61	2.853
277.97	2.665
278.33	2.450
278.69	2.681
279.06	2.988
279.42	3.427
279.78	3.465
280.14	3.267
280.50	3.207
280.87	3.282
281.23	3.281
281.59	3.618
281.95	3.637
282.31	3.406
282.68	3.560
283.04	3.580
283.40	3.419
283.76	3.193
284.12	2.872
284.48	2.674
284.85	2.364
285.21	2.178
285.57	2.013
285.93	2.172
286.29	2.473
286.65	2.246
287.02	2.237
287.38	2.713
287.74	2.707
288.10	3.069
288.46	3.156
288.82	3.275
289.18	3.497
289.54	3.554
289.91	3.518
290.27	3.543
290.63	3.630
290.99	3.507
291.35	3.347
291.71	3.638
292.07	3.857
292.43	3.966
292.79	4.172
293.16	3.882
293.52	3.920
293.88	3.723
294.24	3.642
294.60	3.777
294.96	4.001
295.32	3.897
295.68	3.717
296.04	3.615
296.40	3.622
296.76	3.664
297.12	3.799
297.49	3.776
297.85	3.954
298.21	4.026
298.57	3.892
298.93	3.663
299.29	3.694
299.65	3.716
300.01	3.730
300.37	3.772
300.73	3.716
301.09	3.845
301.45	4.212
301.81	4.208
302.17	4.180
302.53	4.252
302.89	4.434
303.25	4.349
303.61	4.456
303.97	4.214
304.33	4.244
304.69	4.099
305.05	4.197
305.41	3.993
305.77	3.953
306.13	4.019
306.49	3.968
306.85	3.838
307.21	3.886
307.57	3.714
307.93	3.736
308.29	3.814
308.65	3.973
309.01	3.907
309.37	3.803
309.73	3.899
310.09	3.843
310.45	3.944
310.81	4.030
311.17	4.140
311.53	4.197
311.89	4.317
312.25	4.337
312.61	4.370
312.96	4.513
313.32	4.638
313.68	4.641
314.04	4.521
314.40	4.387
314.76	4.481
315.12	4.486
315.48	4.464
315.84	4.525
316.20	4.258
316.56	4.257
316.92	4.181
317.27	4.194
317.63	4.139
317.99	4.315
318.35	4.436
318.71	4.281
319.07	4.268
319.43	4.355
319.79	4.201
320.15	4.334
320.50	4.322
320.86	4.280
321.22	4.430
321.58	4.381
321.94	4.509
322.30	4.494
322.66	4.636
323.01	4.672
323.37	4.811
323.73	4.943
324.09	5.123
324.45	5.326
324.81	5.491
325.17	5.417
325.52	5.529
325.88	5.512
326.24	5.572
326.60	5.795
326.96	5.803
327.31	5.891
327.67	5.935
328.03	5.971
328.39	5.960
328.75	5.992
329.11	6.152
329.46	6.230
329.82	6.418
330.18	6.632
330.54	6.620
330.90	6.738
331.25	6.659
331.61	6.679
331.97	6.595
332.33	6.628
332.68	6.584
333.04	6.587
333.40	6.798
333.76	6.652
334.11	6.536
334.47	6.365
334.83	6.305
335.19	6.389
335.54	6.615
335.90	6.763
336.26	6.721
336.62	6.736
336.97	6.547
337.33	6.439
337.69	6.574
338.05	6.654
338.40	6.704
338.76	6.762
339.12	6.786
339.48	6.682
339.83	6.734
340.19	6.824
340.55	6.989
340.90	7.262
341.26	7.330
341.62	7.346
341.97	7.390
342.33	7.438
342.69	7.367
343.04	7.409
343.40	7.432
343.76	7.440
344.12	7.492
344.47	7.539
344.83	7.407
345.19	7.312
345.54	7.276
345.90	7.276
346.26	7.210
346.61	7.397
346.97	7.360
347.32	7.488
347.68	7.444
348.04	7.433
348.39	7.426
348.75	7.583
349.11	7.629
349.46	7.631
349.82	7.588
350.18	7.738
350.53	7.700
350.89	7.747
351.24	7.643
351.60	7.676
351.96	7.692
352.31	7.758
352.67	7.770
353.02	7.889
353.38	8.028
353.74	8.153
354.09	8.109
354.45	8.208
354.80	8.227
355.16	8.283
355.52	8.291
355.87	8.311
356.23	8.217
356.58	8.194
356.94	8.202
357.29	8.112
357.65	8.103
358.00	8.299
358.36	8.198
358.72	8.268
359.07	8.215
359.43	8.318
359.78	8.301
360.14	8.400
360.49	8.475
360.85	8.418
361.20	8.496
361.56	8.491
361.91	8.376
362.27	8.415
362.62	8.438
362.98	8.580
363.33	8.644
363.69	8.727
364.04	8.679
364.40	8.647
364.75	8.679
365.11	8.687
365.46	8.703
365.82	8.759
366.17	8.848
366.53	8.820
366.88	8.805
367.24	8.693
367.59	8.721
367.95	8.731
368.30	8.795
368.66	8.853
369.01	8.861
369.37	8.857
369.72	8.864
370.08	8.901
370.43	8.935
370.78	8.965
371.14	9.135
371.49	9.148
371.85	9.167
372.20	9.186
372.56	9.226
372.91	9.350
373.26	9.384
373.62	9.458
373.97	9.462
374.33	9.484
374.68	9.516
375.03	9.472
375.39	9.534
375.74	9.675
376.10	9.626
376.45	9.668
376.80	9.725
377.16	9.836
377.51	9.865
377.87	9.936
378.22	10.007
378.57	10.045
378.93	10.100
379.28	10.148
379.63	10.169
379.99	10.322
380.34	10.416
380.70	10.457
381.05	10.488
381.40	10.543
381.76	10.646
382.11	10.713
382.46	10.808
382.82	10.925
383.17	11.028
383.52	11.080
383.88	11.138
384.23	11.228
384.58	11.358
384.94	11.417
385.29	11.491
385.64	11.539
385.99	11.572
386.35	11.624
386.70	11.687
387.05	11.711
387.41	11.788
387.76	11.875
388.11	11.889
388.47	11.872
388.82	11.936
389.17	12.020
389.52	12.108
389.88	12.198
390.23	12.325
390.58	12.374
390.93	12.407
391.29	12.483
391.64	12.494
391.99	12.587
392.34	12.612
392.70	12.673
393.05	12.726
393.40	12.724
393.75	12.771
394.11	12.792
394.46	12.875
394.81	12.955
395.16	12.946
395.52	12.979
395.87	12.951
396.22	13.000
396.57	13.018
396.92	12.970
397.28	12.990
397.63	13.013
397.98	13.014
398.33	13.010
398.68	13.014
399.04	13.005
399.39	13.062
399.74	13.063
400.09	13.070
400.44	13.085
400.80	13.185
401.15	13.197
401.50	13.218
401.85	13.221
402.20	13.224
402.55	13.290
402.90	13.335
403.26	13.326
403.61	13.398
403.96	13.451
404.31	13.487
404.66	13.494
405.01	13.559
405.36	13.596
405.72	13.639
406.07	13.676
406.42	13.661
406.77	13.744
407.12	13.786
407.47	13.833
407.82	13.873
408.17	13.941
408.53	13.985
408.88	13.999
409.23	14.052
409.58	14.079
409.93	14.087
410.28	14.110
410.63	14.177
410.98	14.227
411.33	14.264
411.68	14.283
412.03	14.318
412.38	14.308
412.73	14.350
413.09	14.334
413.44	14.340
413.79	14.404
414.14	14.418
414.49	14.414
414.84	14.430
415.19	14.430
415.54	14.418
415.89	14.393
416.24	14.412
416.59	14.371
416.94	14.352
417.29	14.359
417.64	14.330
417.99	14.332
418.34	14.300
418.69	14.291
419.04	14.274
419.39	14.295
419.74	14.279
420.09	14.266
420.44	14.278
420.79	14.296
421.14	14.291
421.49	14.282
421.84	14.265
422.19	14.276
422.54	14.267
422.89	14.255
423.24	14.207
423.59	14.229
423.94	14.254
424.29	14.277
424.64	14.285
424.99	14.263
425.34	14.275
425.68	14.303
426.03	14.274
426.38	14.273
426.73	14.298
427.08	14.367
427.43	14.375
427.78	14.368
428.13	14.351
428.48	14.397
428.83	14.431
429.18	14.487
429.53	14.482
429.87	14.548
430.22	14.594
430.57	14.628
430.92	14.629
431.27	14.657
431.62	14.690
431.97	14.722
432.32	14.715
432.67	14.732
433.01	14.741
433.36	14.793
433.71	14.799
434.06	14.813
434.41	14.843
434.76	14.881
435.11	14.933
435.45	14.954
435.80	14.980
436.15	15.002
436.50	15.030
436.85	15.021
437.20	15.040
437.54	15.069
437.89	15.069
438.24	15.066
438.59	15.045
438.94	15.012
439.29	15.003
439.63	14.947
439.98	14.932
440.33	14.916
440.68	14.875
441.03	14.835
441.37	14.795
441.72	14.789
442.07	14.754
442.42	14.727
442.76	14.682
443.11	14.624
443.46	14.612
443.81	14.593
444.16	14.576
444.50	14.580
444.85	14.536
445.20	14.514
445.55	14.471
445.89	14.445
446.24	14.424
446.59	14.395
446.94	14.382
447.28	14.362
447.63	14.302
447.98	14.272
448.32	14.231
448.67	14.207
449.02	14.143
449.37	14.129
449.71	14.086
450.06	14.055
450.41	14.054
450.75	14.040
451.10	14.054
451.45	14.089
451.79	14.062
452.14	14.062
452.49	14.078
452.84	14.112
453.18	14.084
453.53	14.099
453.88	14.115
454.22	14.108
454.57	14.109
454.92	14.134
455.26	14.132
455.61	14.182
455.95	14.211
456.30	14.250
456.65	14.259
456.99	14.294
457.34	14.349
457.69	14.370
458.03	14.422
458.38	14.478
458.73	14.493
459.07	14.534
459.42	14.560
459.76	14.595
460.11	14.639
460.46	14.705
460.80	14.758
461.15	14.811
461.49	14.877
461.84	14.939
462.19	15.014
462.53	15.086
462.88	15.147
463.22	15.195
463.57	15.286
463.91	15.333
464.26	15.394
464.61	15.475
464.95	15.553
465.30	15.626
465.64	15.689
465.99	15.721
466.33	15.767
466.68	15.818
467.02	15.890
467.37	15.922
467.71	15.978
468.06	16.003
468.41	16.009
468.75	16.023
469.10	16.060
469.44	16.067
469.79	16.099
470.13	16.127
470.48	16.153
470.82	16.176
471.17	16.220
471.51	16.213
471.86	16.227
472.20	16.239
472.55	16.230
472.89	16.194
473.23	16.214
473.58	16.196
473.92	16.188
474.27	16.151
474.61	16.100
474.96	16.033
475.30	16.029
475.65	16.018
475.99	16.004
476.34	15.968
476.68	15.975
477.02	15.905
477.37	15.892
477.71	15.867
478.06	15.863
478.40	15.855
478.75	15.875
479.09	15.882
479.43	15.925
479.78	15.987
480.12	16.069
480.47	16.130
480.81	16.204
481.15	16.254
481.50	16.307
481.84	16.364
482.19	16.451
482.53	16.507
482.87	16.562
483.22	16.578
483.56	16.584
483.90	16.585
484.25	16.577
484.59	16.568
484.94	16.557
485.28	16.546
485.62	16.531
485.97	16.486
486.31	16.462
486.65	16.453
487.00	16.474
487.34	16.520
487.68	16.547
488.03	16.610
488.37	16.661
488.71	16.713
489.06	16.767
489.40	16.829
489.74	16.909
490.09	17.001
490.43	17.074
490.77	17.141
491.11	17.219
491.46	17.299
491.80	17.382
492.14	17.499
492.49	17.627
492.83	17.762
493.17	17.916
493.51	18.082
493.86	18.249
494.20	18.440
494.54	18.663
494.88	18.844
495.23	19.072
495.57	19.262
495.91	19.443
496.25	19.680
496.60	19.876
496.94	20.077
497.28	20.281
497.62	20.479
497.97	20.722
498.31	20.958
498.65	21.239
498.99	21.498
499.33	21.777
499.68	22.102
500.02	22.368
500.36	22.692
500.70	23.016
501.04	23.321
501.39	23.662
501.73	23.991
502.07	24.307
502.41	24.591
502.75	24.913
503.09	25.239
503.44	25.548
503.78	25.919
504.12	26.241
504.46	26.601
504.80	26.968
505.14	27.324
505.49	27.641
505.83	28.009
506.17	28.388
506.51	28.750
506.85	29.117
507.19	29.442
507.53	29.787
507.87	30.171
508.22	30.494
508.56	30.836
508.90	31.156
509.24	31.510
509.58	31.844
509.92	32.182
510.26	32.511
510.60	32.838
510.94	33.224
511.28	33.549
511.63	33.851
511.97	34.200
512.31	34.516
512.65	34.903
512.99	35.257
513.33	35.616
513.67	35.968
514.01	36.312
514.35	36.654
514.69	36.978
515.03	37.244
515.37	37.544
515.71	37.819
516.05	38.110
516.39	38.340
516.73	38.552
517.07	38.754
517.41	38.961
517.75	39.183
518.09	39.427
518.43	39.611
518.77	39.838
519.11	40.066
519.45	40.286
519.79	40.505
520.13	40.721
520.47	41.015
520.81	41.305
521.15	41.541
521.49	41.788
521.83	42.006
522.17	42.251
522.51	42.494
522.85	42.744
523.19	43.019
523.53	43.294
523.87	43.629
524.21	43.915
524.55	44.222
524.89	44.528
525.23	44.779
525.57	45.044
525.91	45.292
526.25	45.495
526.58	45.690
526.92	45.851
527.26	46.009
527.60	46.119
527.94	46.214
528.28	46.276
528.62	46.330
528.96	46.402
529.30	46.449
529.64	46.480
529.97	46.530
530.31	46.581
530.65	46.647
530.99	46.717
531.33	46.783
531.67	46.881
532.01	47.021
532.35	47.115
532.68	47.197
533.02	47.264
533.36	47.347
533.70	47.445
534.04	47.497
534.38	47.577
534.71	47.657
535.05	47.759
535.39	47.847
535.73	47.891
536.07	48.008
536.41	48.133
536.74	48.264
537.08	48.406
537.42	48.548
537.76	48.725
538.10	48.889
538.43	49.060
538.77	49.199
539.11	49.354
539.45	49.515
539.79	49.624
540.12	49.720
540.46	49.813
540.80	49.877
541.14	49.958
541.47	50.000
541.81	49.999
542.15	50.009
542.49	50.070
542.82	50.078
543.16	50.063
543.50	50.101
543.84	50.165
544.17	50.211
544.51	50.230
544.85	50.292
545.18	50.355
545.52	50.432
545.86	50.486
546.20	50.547
546.53	50.604
546.87	50.710
547.21	50.782
547.54	50.829
547.88	50.894
548.22	50.999
548.55	51.005
548.89	51.121
549.23	51.256
549.56	51.388
549.90	51.437
550.24	51.577
550.57	51.631
550.91	51.726
551.25	51.770
551.58	51.880
551.92	51.989
552.26	52.088
552.59	52.101
552.93	52.183
553.27	52.239
553.60	52.292
553.94	52.282
554.27	52.310
554.61	52.375
554.95	52.532
555.28	52.585
555.62	52.650
555.95	52.691
556.29	52.743
556.63	52.778
556.96	52.818
557.30	52.954
557.63	53.063
557.97	53.133
558.31	53.181
558.64	53.224
558.98	53.302
559.31	53.408
559.65	53.523
559.98	53.648
560.32	53.712
560.65	53.814
560.99	53.817
561.33	53.885
561.66	54.005
562.00	54.074
562.33	54.092
562.67	54.088
563.00	54.114
563.34	54.136
563.67	54.192
564.01	54.296
564.34	54.316
564.68	54.428
565.01	54.495
565.35	54.512
565.68	54.599
566.02	54.710
566.35	54.765
566.69	54.858
567.02	54.912
567.36	54.936
567.69	54.948
568.03	55.015
568.36	55.069
568.69	55.102
569.03	55.153
569.36	55.124
569.70	55.131
570.03	55.249
570.37	55.259
570.70	55.274
571.04	55.319
571.37	55.320
571.70	55.369
572.04	55.319
572.37	55.339
572.71	55.408
573.04	55.519
573.37	55.564
573.71	55.515
574.04	55.519
574.38	55.650
574.71	55.702
575.04	55.753
575.38	55.803
575.71	55.920
576.05	55.964
576.38	55.980
576.71	55.916
577.05	55.927
577.38	55.968
577.71	56.071
578.05	56.058
578.38	56.094
578.71	56.129
579.05	56.085
579.38	56.115
579.71	56.187
580.05	56.242
580.38	56.345
580.71	56.390
581.05	56.494
581.38	56.460
581.71	56.508
582.05	56.554
582.38	56.614
582.71	56.709
583.04	56.766
583.38	56.771
583.71	56.774
584.04	56.822
584.38	56.849
584.71	56.834
585.04	56.945
585.37	56.988
585.71	57.037
586.04	57.035
586.37	57.050
586.70	57.080
587.04	57.095
587.37	57.127
587.70	57.135
588.03	57.151
588.37	57.248
588.70	57.224
589.03	57.227
589.36	57.254
589.69	57.317
590.03	57.365
590.36	57.330
590.69	57.334
591.02	57.360
591.35	57.399
591.69	57.386
592.02	57.312
592.35	57.328
592.68	57.359
593.01	57.314
593.35	57.377
593.68	57.364
594.01	57.380
594.34	57.469
594.67	57.453
595.00	57.417
595.34	57.489
595.67	57.503
596.00	57.478
596.33	57.500
596.66	57.542
596.99	57.518
597.32	57.522
597.65	57.528
597.99	57.504
598.32	57.490
598.65	57.504
598.98	57.500
599.31	57.583
599.64	57.605
599.97	57.589
600.30	57.594
600.63	57.585
600.96	57.560
601.30	57.597
601.63	57.545
601.96	57.623
602.29	57.645
602.62	57.624
602.95	57.583
603.28	57.596
603.61	57.602
603.94	57.584
604.27	57.561
604.60	57.633
604.93	57.581
605.26	57.616
605.59	57.619
605.92	57.606
606.25	57.608
606.58	57.636
606.91	57.638
607.24	57.695
607.57	57.689
607.90	57.690
608.23	57.651
608.56	57.683
608.89	57.671
609.22	57.635
609.55	57.612
609.88	57.637
610.21	57.608
610.54	57.582
610.87	57.487
611.20	57.510
611.53	57.553
611.86	57.549
612.19	57.517
612.52	57.490
612.85	57.472
613.18	57.508
613.51	57.483
613.84	57.491
614.17	57.515
614.49	57.459
614.82	57.420
615.15	57.387
615.48	57.393
615.81	57.431
616.14	57.435
616.47	57.416
616.80	57.351
617.13	57.379
617.46	57.382
617.78	57.327
618.11	57.301
618.44	57.315
618.77	57.270
619.10	57.217
619.43	57.170
619.76	57.139
620.09	57.103
620.41	57.121
620.74	57.067
621.07	56.960
621.40	56.930
621.73	56.962
622.06	56.915
622.38	56.960
622.71	56.969
623.04	56.962
623.37	56.954
623.70	56.975
624.02	56.912
624.35	56.866
624.68	56.916
625.01	56.890
625.34	56.875
625.66	56.914
625.99	56.788
626.32	56.739
626.65	56.661
626.98	56.671
627.30	56.574
627.63	56.575
627.96	56.555
628.29	56.496
628.61	56.519
628.94	56.501
629.27	56.449
629.60	56.442
629.92	56.419
630.25	56.439
630.58	56.363
630.91	56.432
631.23	56.405
631.56	56.373
631.89	56.370
632.21	56.300
632.54	56.210
632.87	56.136
633.19	56.131
633.52	56.117
633.85	56.115
634.18	56.059
634.50	56.007
634.83	55.940
635.16	55.922
635.48	55.835
635.81	55.754
636.14	55.783
636.46	55.808
636.79	55.787
637.11	55.718
637.44	55.608
637.77	55.550
638.09	55.421
638.42	55.441
638.75	55.413
639.07	55.424
639.40	55.472
639.73	55.362
640.05	55.303
640.38	55.214
640.70	55.185
641.03	55.086
641.36	55.069
641.68	55.061
642.01	54.948
642.33	54.848
642.66	54.769
642.98	54.747
643.31	54.738
643.64	54.581
643.96	54.560
644.29	54.510
644.61	54.589
644.94	54.543
645.26	54.514
645.59	54.497
645.91	54.403
646.24	54.316
646.56	54.235
646.89	54.115
647.22	54.081
647.54	54.010
647.87	53.909
648.19	53.772
648.52	53.716
648.84	53.698
649.17	53.575
649.49	53.584
649.82	53.541
650.14	53.485
650.47	53.476
650.79	53.415
651.11	53.390
651.44	53.304
651.76	53.255
652.09	53.221
652.41	53.151
652.74	53.172
653.06	53.087
653.39	53.024
653.71	52.930
654.04	52.819
654.36	52.709
654.68	52.548
655.01	52.491
655.33	52.398
655.66	52.319
655.98	52.195
656.30	52.082
656.63	52.021
656.95	52.008
657.28	51.887
657.60	51.842
657.92	51.785
658.25	51.773
658.57	51.743
658.90	51.702
659.22	51.661
659.54	51.606
659.87	51.535
660.19	51.468
660.51	51.345
660.84	51.281
661.16	51.148
661.48	51.107
661.81	50.967
662.13	50.894
662.45	50.828
662.78	50.724
663.10	50.605
663.42	50.469
663.75	50.385
664.07	50.270
664.39	50.157
664.72	50.175
665.04	50.143
665.36	50.137
665.69	49.982
666.01	49.930
666.33	49.804
666.65	49.677
666.98	49.618
667.30	49.574
667.62	49.441
667.94	49.368
668.27	49.219
668.59	49.154
668.91	49.084
669.23	49.110
669.56	49.040
669.88	48.936
670.20	48.894
670.52	48.911
670.85	48.792
671.17	48.822
671.49	48.799
671.81	48.745
672.13	48.499
672.46	48.419
672.78	48.242
673.10	48.181
673.42	48.148
673.74	47.995
674.07	47.802
674.39	47.674
674.71	47.603
675.03	47.529
675.35	47.480
675.67	47.493
676.00	47.389
676.32	47.381
676.64	47.251
676.96	47.205
677.28	47.229
677.60	47.177
677.92	47.159
678.25	47.130
678.57	47.050
678.89	47.014
679.21	46.996
679.53	46.872
679.85	46.791
680.17	46.785
680.49	46.668
680.81	46.589
681.13	46.539
681.46	46.396
681.78	46.302
682.10	46.236
682.42	46.051
682.74	45.952
683.06	45.903
683.38	45.854
683.70	45.768
684.02	45.731
684.34	45.615
684.66	45.693
684.98	45.692
685.30	45.604
685.62	45.577
685.94	45.595
686.26	45.568
686.58	45.585
686.90	45.449
687.22	45.242
687.54	45.183
687.86	45.203
688.18	45.004
688.50	44.834
688.82	44.661
689.14	44.580
689.46	44.458
689.78	44.202
690.10	44.043
690.42	43.952
690.74	43.871
691.06	43.685
691.38	43.475
691.70	43.420
692.02	43.337
692.34	43.287
692.66	43.100
692.98	42.945
693.30	42.960
693.62	42.921
693.94	42.839
694.26	42.770
694.57	42.682
694.89	42.670
695.21	42.556
695.53	42.622
695.85	42.531
696.17	42.468
696.49	42.422
696.81	42.391
697.13	42.381
697.44	42.315
697.76	42.256
698.08	42.208
698.40	42.142
698.72	42.063
699.04	41.845
699.36	41.777
699.67	41.733
699.99	41.621
700.31	41.444
700.63	41.241
700.95	41.009
701.27	40.928
701.58	40.761
701.90	40.618
702.22	40.422
702.54	40.279
702.86	40.159
703.17	39.947
703.49	39.897
703.81	39.868
704.13	39.624
704.45	39.726
704.76	39.593
705.08	39.555
705.40	39.403
705.72	39.352
706.03	39.362
706.35	39.419
706.67	39.382
706.99	39.216
707.30	39.169
707.62	39.151
707.94	39.019
708.26	39.034
708.57	39.058
708.89	39.000
709.21	38.939
709.53	38.945
709.84	38.756
710.16	38.686
710.48	38.751
710.79	38.580
711.11	38.547
711.43	38.539
711.74	38.498
712.06	38.447
712.38	38.545
712.69	38.496
713.01	38.477
713.33	38.516
713.64	38.516
713.96	38.452
714.28	38.465
714.59	38.533
714.91	38.595
715.23	38.675
715.54	38.639
715.86	38.472
716.17	38.564
716.49	38.223
716.81	38.202
717.12	38.199
717.44	38.203
717.76	38.150
718.07	38.037
718.39	37.774
718.70	37.492
719.02	37.415
719.33	37.342
719.65	37.082
719.97	37.251
720.28	37.069
720.60	36.929
720.91	36.752
721.23	36.703
721.54	36.581
721.86	36.577
722.17	36.480
722.49	36.330
722.81	36.263
723.12	36.336
723.44	36.235
723.75	36.169
724.07	36.147
724.38	36.138
724.70	36.082
725.01	36.047
725.33	36.054
725.64	36.225
725.96	36.205
726.27	36.290
726.59	36.146
726.90	36.175
727.22	36.038
727.53	35.957
727.84	35.950
728.16	35.858
728.47	35.858
728.79	35.719
729.10	35.466
729.42	35.457
729.73	35.272
730.05	35.252
730.36	35.053
730.67	35.096
730.99	34.926
731.30	34.714
731.62	34.509
731.93	34.278
732.24	34.216
732.56	34.118
732.87	33.953
733.19	33.732
733.50	33.439
733.81	33.343
734.13	33.073
734.44	32.957
734.76	32.813
735.07	32.825
735.38	32.777
735.70	32.484
736.01	32.159
736.32	31.920
736.64	31.808
736.95	31.796
737.26	31.674
737.58	31.682
737.89	31.626
738.20	31.485
738.52	31.325
738.83	31.273
739.14	31.180
739.45	31.067
739.77	30.977
740.08	30.922
740.39	30.739
740.71	30.566
741.02	30.175
741.33	29.990
741.64	29.910
741.96	29.709
742.27	29.240
742.58	29.024
742.90	28.927
743.21	28.854
743.52	28.583
743.83	28.505
744.14	28.475
744.46	28.391
744.77	28.180
745.08	27.879
745.39	27.788
745.71	27.739
746.02	27.752
746.33	27.912
746.64	27.862
746.95	28.041
747.27	28.048
747.58	27.960
747.89	27.895
748.20	28.078
748.51	28.167
748.82	28.170
749.14	28.341
749.45	28.198
749.76	28.148
750.07	28.104
750.38	28.014
750.69	27.980
751.01	27.815
751.32	28.010
751.63	27.901
751.94	27.834
752.25	27.974
752.56	27.796
752.87	28.098
753.18	27.891
753.49	27.664
753.81	27.716
754.12	27.702
754.43	27.812
754.74	27.902
755.05	28.115
755.36	28.312
755.67	28.437
755.98	29.092
756.29	29.457
756.60	30.211
756.91	30.763
757.22	31.118
757.53	31.522
757.84	32.062
758.15	32.445
758.46	32.843
758.77	33.205
759.09	33.529
759.40	33.538
759.71	33.763
760.02	33.863
760.33	33.962
760.64	34.127
760.95	34.267
761.26	34.323
761.57	34.100
761.88	34.098
762.18	33.987
762.49	33.893
762.80	33.774
763.11	33.522
763.42	33.256
763.73	33.017
764.04	32.654
764.35	32.398
764.66	31.675
764.97	31.335
765.28	30.616
765.59	30.111
765.90	29.514
766.21	28.678
766.52	28.014
766.83	27.291
767.14	26.768
767.44	26.183
767.75	25.393
768.06	25.412
768.37	25.052
768.68	24.818
768.99	24.467
769.30	24.168
769.61	24.264
769.91	23.947
770.22	23.902
770.53	23.630
770.84	23.336
771.15	23.157
771.46	22.862
771.77	22.965
772.07	23.110
772.38	23.052
772.69	22.681
773.00	22.133
773.31	21.890
773.61	21.589
773.92	21.614
774.23	21.591
774.54	21.589
774.85	21.739
775.15	21.714
775.46	20.956
775.77	21.070
776.08	21.063
776.39	21.528
776.69	21.652
777.00	21.255
777.31	21.048
777.62	21.352
777.92	21.549
778.23	21.343
778.54	21.137
778.85	21.241
779.15	21.251
779.46	21.365
779.77	21.029
780.07	21.023
780.38	21.060
780.69	21.234
781.00	20.797
781.30	20.418
781.61	20.634
781.92	20.788
782.22	21.063
782.53	21.060
782.84	21.344
783.14	21.550
783.45	21.144
783.76	21.839
784.06	21.902
784.37	22.266
784.68	22.706
784.98	22.697
785.29	22.909
785.60	23.266
785.90	23.333
786.21	23.293
786.51	23.537
786.82	24.201
787.13	24.362
787.43	24.591
787.74	24.626
788.04	24.468
788.35	24.690
788.66	24.848
788.96	24.632
789.27	24.608
789.57	24.578
789.88	24.615
790.19	24.774
790.49	24.624
790.80	24.036
791.10	24.386
791.41	24.699
791.71	24.500
792.02	24.225
792.32	24.440
792.63	24.782
792.93	24.668
793.24	24.989
793.54	24.345
793.85	24.348
794.15	24.589
794.46	24.411
794.76	23.982
795.07	24.209
795.37	24.692
795.68	24.316
795.98	24.244
796.29	24.590
796.59	24.301
796.90	24.444
797.20	24.482
797.51	25.012
797.81	24.909
798.12	25.161
798.42	25.183
798.72	24.656
799.03	24.827
799.33	24.391
799.64	24.211
799.94	24.219
800.25	24.946
800.55	24.556
800.85	24.408
801.16	24.278
801.46	24.374
801.77	24.512
802.07	24.368
802.37	24.005
802.68	24.015
802.98	24.092
803.28	24.006
803.59	23.171
803.89	23.651
804.20	23.214
804.50	22.998
804.80	22.984
805.11	22.877
805.41	23.148
805.71	24.014
806.02	23.948
806.32	23.647
806.62	23.643
806.93	24.173
807.23	23.946
807.53	24.262
807.83	24.628
808.14	24.473
808.44	24.472
808.74	24.589
809.05	24.305
809.35	24.819
809.65	25.302
809.95	25.162
810.26	24.739
810.56	24.622
810.86	24.533
811.16	24.660
811.47	24.977
811.77	25.320
812.07	25.636
812.37	25.623
812.68	25.780
812.98	26.248
813.28	26.779
813.58	27.646
813.88	27.941
814.19	28.344
814.49	28.337
814.79	28.524
815.09	28.696
815.39	28.379
815.70	28.955
816.00	29.010
816.30	28.725
816.60	29.058
816.90	29.151
817.20	29.503
817.50	29.755
817.81	30.168
818.11	30.296
818.41	30.333
818.71	30.697
819.01	30.889
819.31	31.124
819.61	31.339
819.92	31.378
820.22	31.463
820.52	31.534
820.82	31.555
821.12	31.704
821.42	31.915
821.72	31.999
822.02	32.060
822.32	32.177
822.62	32.350
822.92	32.365
823.22	32.374
823.52	32.354
823.83	32.458
824.13	32.541
824.43	32.438
824.73	32.166
825.03	32.154
825.33	32.129
825.63	31.959
825.93	31.595
826.23	31.476
826.53	31.517
826.83	31.321
827.13	31.115
827.43	30.967
827.73	30.876
828.03	30.870
828.33	30.669
828.63	30.446
828.93	30.299
829.23	29.978
829.53	29.758
829.83	29.148
830.13	29.645
830.42	29.548
830.72	29.637
831.02	29.321
831.32	29.228
831.62	29.432
831.92	29.335
832.22	29.222
832.52	29.401
832.82	29.436
833.12	29.665
833.42	29.161
833.72	28.599
834.01	28.291
834.31	28.396
834.61	28.675
834.91	28.561
835.21	28.426
835.51	28.226
835.81	27.865
836.11	27.604
836.40	27.597
836.70	27.835
837.00	28.053
837.30	28.172
837.60	28.125
837.90	27.890
838.19	27.063
838.49	26.206
838.79	25.679
839.09	25.616
839.39	25.310
839.68	24.969
839.98	23.686
840.28	24.086
840.58	24.198
840.88	23.436
841.17	23.514
841.47	23.610
841.77	23.997
842.07	24.059
842.36	23.474
842.66	23.100
842.96	21.538
843.26	22.674
843.55	21.125
843.85	19.154
844.15	18.324
844.45	17.149
844.74	16.868
845.04	18.983
845.34	19.030
845.63	19.739
845.93	19.461
846.23	18.121
846.53	17.263
846.82	17.483
847.12	17.310
847.42	17.744
847.71	16.973
848.01	15.655
848.31	14.909
848.60	16.044
848.90	14.627
849.19	14.459
849.49	15.774
849.79	15.985
850.08	16.065
850.38	17.496
850.68	18.115
850.97	18.158
851.27	19.333
851.56	16.634
851.86	14.782
852.16	14.535
852.45	14.231
852.75	15.177
853.04	15.520
853.34	16.018
853.64	16.458
853.93	16.561
854.23	15.994
854.52	15.997
854.82	16.691
855.11	16.705
855.41	15.224
855.70	17.270
856.00	17.111
856.30	16.450
856.59	17.348
856.89	16.386
857.18	16.461
857.48	14.826
857.77	15.240
858.07	16.921
858.36	17.219
858.66	20.200
858.95	18.486
859.25	19.354
859.54	19.744
859.84	18.258
860.13	17.562
860.42	15.128
860.72	15.555
861.01	15.202
861.31	13.768
861.60	13.810
861.90	14.356
862.19	13.696
862.49	13.516
862.78	14.221
863.07	15.171
863.37	15.970
863.66	17.100
863.96	18.913
864.25	17.792
864.54	17.313
864.84	17.385
865.13	16.937
865.43	19.130
865.72	11.026
866.01	7.429
866.31	22.104
866.60	25.752
866.89	29.472
>>>>>End Spectral Data<<<<<
