OOIBase32 Version 2.0.0.6 Data File
++++++++++++++++++++++++++++++++++++
Date: 01-18-2012, 22:57:29
User: Valued Ocean Optics Customer
Spectrometer Serial Number: USB2E2917
Spectrometer Channel: Master
Integration Time (msec): 5
Spectra Averaged: 10
Boxcar Smoothing: 5
Correct for Electrical Dark: Enabled
Time Normalized: Disabled
Dual-beam Reference: Disabled
Reference Channel: Master
Temperature: Not acquired
Spectrometer Type: S2000
ADC Type: USB2000
Number of Pixels in File: 2048
Graph Title: 
>>>>>Begin Spectral Data<<<<<
180.30	0.000
180.67	0.000
181.03	-283.120
181.40	-87.368
181.77	58.390
182.14	-158.473
182.51	81.946
182.88	-31.781
183.25	93.374
183.62	46.118
183.99	-12.379
184.36	212.320
184.73	135.888
185.10	176.868
185.46	165.611
185.83	39.604
186.20	282.467
186.57	-201.431
186.94	-56.793
187.31	64.739
187.68	209.687
188.05	-3.524
188.42	34.485
188.78	43.571
189.15	49.250
189.52	36.753
189.89	41.496
190.26	42.943
190.63	33.087
191.00	35.399
191.37	33.813
191.73	27.051
192.10	5.632
192.47	-19.949
192.84	-43.778
193.21	-40.514
193.58	-18.003
193.94	-38.301
194.31	-45.312
194.68	-42.097
195.05	-26.186
195.42	-12.141
195.79	-11.616
196.15	-15.846
196.52	-9.779
196.89	-12.423
197.26	-33.937
197.63	-62.270
198.00	-52.049
198.36	-43.918
198.73	-23.501
199.10	-26.128
199.47	-30.151
199.84	-19.204
200.20	-15.589
200.57	-17.583
200.94	-8.945
201.31	10.097
201.68	33.130
202.04	35.218
202.41	40.469
202.78	35.250
203.15	39.905
203.51	41.301
203.88	55.020
204.25	54.759
204.62	46.266
204.98	37.575
205.35	27.299
205.72	17.999
206.09	16.032
206.46	-5.502
206.82	-1.580
207.19	-2.469
207.56	0.310
207.92	-18.909
208.29	-5.838
208.66	8.433
209.03	24.327
209.39	24.630
209.76	31.049
210.13	17.613
210.50	32.767
210.86	36.127
211.23	43.169
211.60	19.442
211.96	29.932
212.33	25.752
212.70	22.569
213.07	20.750
213.43	21.805
213.80	22.303
214.17	33.307
214.53	27.601
214.90	15.730
215.27	14.691
215.63	32.185
216.00	18.345
216.37	27.569
216.74	31.813
217.10	20.670
217.47	7.625
217.84	0.286
218.20	-5.442
218.57	-0.879
218.94	7.127
219.30	0.672
219.67	-7.369
220.04	-1.070
220.40	-16.805
220.77	-27.255
221.13	-15.036
221.50	-14.482
221.87	-16.992
222.23	-17.370
222.60	-11.190
222.97	-11.385
223.33	-3.528
223.70	-0.158
224.07	-0.797
224.43	6.390
224.80	9.719
225.16	11.120
225.53	13.377
225.90	15.983
226.26	16.290
226.63	14.913
226.99	15.813
227.36	14.191
227.73	14.531
228.09	15.063
228.46	15.445
228.82	16.038
229.19	14.652
229.56	14.646
229.92	14.722
230.29	15.753
230.65	14.646
231.02	14.354
231.38	13.429
231.75	11.042
232.12	11.600
232.48	10.138
232.85	10.049
233.21	11.016
233.58	11.959
233.94	12.538
234.31	11.587
234.68	13.817
235.04	13.450
235.41	14.883
235.77	17.325
236.14	16.412
236.50	15.485
236.87	13.586
237.23	14.373
237.60	13.742
237.96	11.795
238.33	13.079
238.69	13.521
239.06	13.293
239.42	12.829
239.79	12.987
240.15	13.103
240.52	14.229
240.88	14.395
241.25	14.205
241.61	14.262
241.98	14.461
242.34	13.451
242.71	12.757
243.07	12.391
243.44	12.545
243.80	12.344
244.17	12.190
244.53	11.717
244.90	11.599
245.26	11.345
245.63	11.392
245.99	11.287
246.36	11.547
246.72	11.798
247.09	12.145
247.45	11.947
247.81	11.962
248.18	12.274
248.54	12.387
248.91	12.600
249.27	12.812
249.64	12.404
250.00	12.771
250.36	13.009
250.73	12.961
251.09	11.902
251.46	12.261
251.82	12.273
252.19	11.849
252.55	11.180
252.91	11.206
253.28	11.069
253.64	11.438
254.01	11.441
254.37	11.098
254.73	11.094
255.10	11.551
255.46	11.585
255.83	11.633
256.19	11.496
256.55	11.833
256.92	11.923
257.28	12.082
257.65	12.400
258.01	12.247
258.37	12.319
258.74	12.351
259.10	12.385
259.46	12.266
259.83	11.977
260.19	12.226
260.55	12.159
260.92	12.027
261.28	12.036
261.64	11.594
262.01	11.480
262.37	11.275
262.73	11.001
263.10	11.604
263.46	11.385
263.82	11.630
264.19	11.420
264.55	11.195
264.91	11.115
265.28	10.648
265.64	10.664
266.00	10.943
266.37	10.692
266.73	10.825
267.09	10.453
267.46	10.329
267.82	10.036
268.18	9.725
268.54	10.183
268.91	10.215
269.27	10.121
269.63	9.993
270.00	9.706
270.36	9.905
270.72	9.757
271.08	9.683
271.45	9.643
271.81	10.124
272.17	10.286
272.53	10.002
272.90	9.887
273.26	9.964
273.62	9.944
273.98	10.146
274.35	10.334
274.71	10.063
275.07	9.708
275.43	9.634
275.80	9.325
276.16	9.572
276.52	9.676
276.88	9.611
277.25	9.556
277.61	9.651
277.97	9.774
278.33	9.238
278.69	9.471
279.06	9.712
279.42	9.976
279.78	10.155
280.14	10.083
280.50	10.204
280.87	10.187
281.23	10.296
281.59	10.293
281.95	10.151
282.31	10.329
282.68	10.436
283.04	10.391
283.40	10.444
283.76	10.150
284.12	9.932
284.48	9.452
284.85	9.360
285.21	9.190
285.57	9.144
285.93	9.006
286.29	8.999
286.65	8.668
287.02	8.837
287.38	8.930
287.74	8.989
288.10	8.965
288.46	9.076
288.82	9.251
289.18	9.454
289.54	9.505
289.91	9.717
290.27	9.738
290.63	9.946
290.99	9.833
291.35	9.814
291.71	10.080
292.07	10.471
292.43	10.473
292.79	10.611
293.16	10.469
293.52	10.506
293.88	10.359
294.24	10.561
294.60	10.873
294.96	10.984
295.32	10.964
295.68	11.014
296.04	10.991
296.40	11.299
296.76	11.427
297.12	11.502
297.49	11.628
297.85	11.817
298.21	11.908
298.57	12.051
298.93	12.081
299.29	12.145
299.65	12.331
300.01	12.586
300.37	12.865
300.73	12.911
301.09	13.289
301.45	13.435
301.81	13.468
302.17	13.577
302.53	13.363
302.89	13.506
303.25	13.820
303.61	13.971
303.97	13.943
304.33	14.070
304.69	14.124
305.05	14.350
305.41	14.504
305.77	14.902
306.13	15.008
306.49	15.195
306.85	15.435
307.21	15.503
307.57	15.318
307.93	15.538
308.29	15.574
308.65	15.530
309.01	15.443
309.37	15.420
309.73	15.399
310.09	15.446
310.45	15.475
310.81	15.450
311.17	15.488
311.53	15.685
311.89	15.580
312.25	15.532
312.61	15.751
312.96	16.008
313.32	16.094
313.68	16.145
314.04	16.055
314.40	16.086
314.76	15.956
315.12	15.973
315.48	15.917
315.84	16.012
316.20	15.950
316.56	15.986
316.92	15.695
317.27	15.949
317.63	15.965
317.99	16.062
318.35	16.139
318.71	16.243
319.07	16.246
319.43	16.316
319.79	16.228
320.15	16.266
320.50	16.232
320.86	16.206
321.22	16.127
321.58	15.950
321.94	15.956
322.30	15.950
322.66	15.979
323.01	15.877
323.37	15.883
323.73	15.853
324.09	15.634
324.45	15.674
324.81	15.751
325.17	15.589
325.52	15.560
325.88	15.431
326.24	15.438
326.60	15.410
326.96	15.474
327.31	15.413
327.67	15.364
328.03	15.490
328.39	15.371
328.75	15.226
329.11	15.301
329.46	15.302
329.82	15.447
330.18	15.492
330.54	15.497
330.90	15.399
331.25	15.327
331.61	15.218
331.97	15.127
332.33	15.087
332.68	14.999
333.04	14.803
333.40	14.824
333.76	14.618
334.11	14.337
334.47	14.258
334.83	14.305
335.19	14.375
335.54	14.393
335.90	14.514
336.26	14.395
336.62	14.415
336.97	14.367
337.33	14.328
337.69	14.366
338.05	14.441
338.40	14.298
338.76	14.167
339.12	14.096
339.48	14.165
339.83	14.103
340.19	14.107
340.55	14.160
340.90	14.166
341.26	14.081
341.62	14.007
341.97	14.083
342.33	14.103
342.69	13.983
343.04	13.944
343.40	13.870
343.76	13.810
344.12	13.808
344.47	13.808
344.83	13.822
345.19	13.861
345.54	13.859
345.90	13.732
346.26	13.751
346.61	13.934
346.97	13.758
347.32	13.737
347.68	13.664
348.04	13.620
348.39	13.528
348.75	13.567
349.11	13.555
349.46	13.584
349.82	13.566
350.18	13.468
350.53	13.228
350.89	13.367
351.24	13.332
351.60	13.384
351.96	13.409
352.31	13.502
352.67	13.284
353.02	13.252
353.38	13.223
353.74	13.210
354.09	13.214
354.45	13.318
354.80	13.209
355.16	13.230
355.52	13.222
355.87	13.176
356.23	13.035
356.58	13.120
356.94	13.159
357.29	13.054
357.65	13.036
358.00	13.049
358.36	12.978
358.72	13.030
359.07	12.920
359.43	12.819
359.78	12.710
360.14	12.794
360.49	12.773
360.85	12.694
361.20	12.689
361.56	12.717
361.91	12.597
362.27	12.530
362.62	12.387
362.98	12.492
363.33	12.525
363.69	12.521
364.04	12.389
364.40	12.404
364.75	12.361
365.11	12.359
365.46	12.209
365.82	12.292
366.17	12.352
366.53	12.420
366.88	12.348
367.24	12.277
367.59	12.298
367.95	12.320
368.30	12.290
368.66	12.228
369.01	12.258
369.37	12.341
369.72	12.265
370.08	12.227
370.43	12.170
370.78	12.163
371.14	12.197
371.49	12.196
371.85	12.131
372.20	12.114
372.56	12.089
372.91	12.059
373.26	11.930
373.62	11.933
373.97	11.894
374.33	11.893
374.68	11.778
375.03	11.639
375.39	11.589
375.74	11.581
376.10	11.488
376.45	11.496
376.80	11.527
377.16	11.559
377.51	11.540
377.87	11.493
378.22	11.470
378.57	11.484
378.93	11.574
379.28	11.550
379.63	11.592
379.99	11.628
380.34	11.556
380.70	11.497
381.05	11.482
381.40	11.450
381.76	11.458
382.11	11.455
382.46	11.438
382.82	11.400
383.17	11.463
383.52	11.439
383.88	11.413
384.23	11.463
384.58	11.351
384.94	11.294
385.29	11.308
385.64	11.244
385.99	11.160
386.35	11.177
386.70	11.145
387.05	11.080
387.41	11.077
387.76	11.002
388.11	10.949
388.47	10.975
388.82	10.982
389.17	10.949
389.52	10.935
389.88	10.960
390.23	10.874
390.58	10.884
390.93	10.863
391.29	10.824
391.64	10.778
391.99	10.755
392.34	10.667
392.70	10.672
393.05	10.614
393.40	10.615
393.75	10.530
394.11	10.535
394.46	10.522
394.81	10.504
395.16	10.387
395.52	10.418
395.87	10.349
396.22	10.362
396.57	10.290
396.92	10.275
397.28	10.206
397.63	10.172
397.98	10.141
398.33	10.089
398.68	10.060
399.04	10.073
399.39	10.002
399.74	9.935
400.09	9.902
400.44	9.844
400.80	9.852
401.15	9.804
401.50	9.779
401.85	9.711
402.20	9.640
402.55	9.574
402.90	9.506
403.26	9.517
403.61	9.538
403.96	9.510
404.31	9.508
404.66	9.462
405.01	9.484
405.36	9.504
405.72	9.490
406.07	9.518
406.42	9.457
406.77	9.497
407.12	9.464
407.47	9.492
407.82	9.478
408.17	9.450
408.53	9.441
408.88	9.424
409.23	9.399
409.58	9.406
409.93	9.349
410.28	9.370
410.63	9.349
410.98	9.329
411.33	9.274
411.68	9.251
412.03	9.255
412.38	9.242
412.73	9.243
413.09	9.212
413.44	9.186
413.79	9.195
414.14	9.182
414.49	9.196
414.84	9.180
415.19	9.176
415.54	9.147
415.89	9.164
416.24	9.162
416.59	9.176
416.94	9.198
417.29	9.211
417.64	9.189
417.99	9.206
418.34	9.197
418.69	9.202
419.04	9.194
419.39	9.209
419.74	9.191
420.09	9.191
420.44	9.180
420.79	9.172
421.14	9.140
421.49	9.128
421.84	9.112
422.19	9.098
422.54	9.098
422.89	9.101
423.24	9.094
423.59	9.073
423.94	9.048
424.29	8.996
424.64	8.952
424.99	8.974
425.34	8.983
425.68	8.977
426.03	8.936
426.38	8.915
426.73	8.885
427.08	8.890
427.43	8.910
427.78	8.904
428.13	8.910
428.48	8.947
428.83	8.929
429.18	8.967
429.53	8.959
429.87	8.952
430.22	8.935
430.57	8.975
430.92	8.979
431.27	8.975
431.62	8.985
431.97	9.023
432.32	9.013
432.67	9.010
433.01	8.958
433.36	8.930
433.71	8.940
434.06	8.933
434.41	8.912
434.76	8.901
435.11	8.886
435.45	8.864
435.80	8.848
436.15	8.851
436.50	8.867
436.85	8.845
437.20	8.870
437.54	8.877
437.89	8.913
438.24	8.904
438.59	8.899
438.94	8.917
439.29	8.944
439.63	8.954
439.98	8.956
440.33	8.957
440.68	8.999
441.03	9.010
441.37	9.022
441.72	9.005
442.07	9.026
442.42	9.073
442.76	9.073
443.11	9.062
443.46	9.040
443.81	9.030
444.16	9.021
444.50	9.032
444.85	9.037
445.20	9.034
445.55	9.050
445.89	9.052
446.24	9.023
446.59	9.019
446.94	9.000
447.28	9.026
447.63	9.049
447.98	9.063
448.32	9.054
448.67	9.047
449.02	9.058
449.37	9.063
449.71	9.047
450.06	9.032
450.41	9.045
450.75	9.090
451.10	9.090
451.45	9.094
451.79	9.096
452.14	9.095
452.49	9.086
452.84	9.090
453.18	9.087
453.53	9.120
453.88	9.116
454.22	9.116
454.57	9.097
454.92	9.114
455.26	9.139
455.61	9.168
455.95	9.202
456.30	9.244
456.65	9.254
456.99	9.278
457.34	9.285
457.69	9.297
458.03	9.306
458.38	9.321
458.73	9.312
459.07	9.317
459.42	9.304
459.76	9.295
460.11	9.281
460.46	9.287
460.80	9.240
461.15	9.229
461.49	9.249
461.84	9.255
462.19	9.270
462.53	9.286
462.88	9.269
463.22	9.262
463.57	9.268
463.91	9.278
464.26	9.284
464.61	9.331
464.95	9.350
465.30	9.342
465.64	9.330
465.99	9.325
466.33	9.335
466.68	9.343
467.02	9.360
467.37	9.361
467.71	9.362
468.06	9.375
468.41	9.392
468.75	9.362
469.10	9.348
469.44	9.358
469.79	9.357
470.13	9.334
470.48	9.336
470.82	9.356
471.17	9.356
471.51	9.370
471.86	9.327
472.20	9.283
472.55	9.260
472.89	9.266
473.23	9.263
473.58	9.243
473.92	9.244
474.27	9.229
474.61	9.202
474.96	9.186
475.30	9.124
475.65	9.125
475.99	9.132
476.34	9.149
476.68	9.163
477.02	9.166
477.37	9.167
477.71	9.177
478.06	9.159
478.40	9.162
478.75	9.202
479.09	9.276
479.43	9.349
479.78	9.422
480.12	9.493
480.47	9.562
480.81	9.614
481.15	9.660
481.50	9.704
481.84	9.760
482.19	9.820
482.53	9.855
482.87	9.879
483.22	9.895
483.56	9.887
483.90	9.871
484.25	9.834
484.59	9.812
484.94	9.797
485.28	9.764
485.62	9.724
485.97	9.661
486.31	9.622
486.65	9.586
487.00	9.548
487.34	9.525
487.68	9.502
488.03	9.492
488.37	9.464
488.71	9.442
489.06	9.419
489.40	9.422
489.74	9.422
490.09	9.400
490.43	9.383
490.77	9.353
491.11	9.328
491.46	9.307
491.80	9.285
492.14	9.280
492.49	9.268
492.83	9.250
493.17	9.211
493.51	9.198
493.86	9.158
494.20	9.126
494.54	9.120
494.88	9.112
495.23	9.129
495.57	9.139
495.91	9.131
496.25	9.135
496.60	9.147
496.94	9.161
497.28	9.172
497.62	9.195
497.97	9.205
498.31	9.222
498.65	9.266
498.99	9.285
499.33	9.298
499.68	9.344
500.02	9.344
500.36	9.390
500.70	9.400
501.04	9.384
501.39	9.429
501.73	9.457
502.07	9.472
502.41	9.487
502.75	9.506
503.09	9.531
503.44	9.539
503.78	9.568
504.12	9.609
504.46	9.656
504.80	9.707
505.14	9.730
505.49	9.774
505.83	9.806
506.17	9.845
506.51	9.887
506.85	9.942
507.19	9.977
507.53	10.023
507.87	10.038
508.22	10.052
508.56	10.104
508.90	10.129
509.24	10.149
509.58	10.150
509.92	10.166
510.26	10.155
510.60	10.137
510.94	10.150
511.28	10.148
511.63	10.133
511.97	10.142
512.31	10.119
512.65	10.128
512.99	10.122
513.33	10.182
513.67	10.194
514.01	10.247
514.35	10.282
514.69	10.312
515.03	10.354
515.37	10.399
515.71	10.449
516.05	10.498
516.39	10.523
516.73	10.552
517.07	10.546
517.41	10.570
517.75	10.567
518.09	10.576
518.43	10.581
518.77	10.559
519.11	10.542
519.45	10.515
519.79	10.478
520.13	10.452
520.47	10.456
520.81	10.465
521.15	10.457
521.49	10.462
521.83	10.467
522.17	10.453
522.51	10.467
522.85	10.509
523.19	10.545
523.53	10.615
523.87	10.706
524.21	10.763
524.55	10.833
524.89	10.879
525.23	10.945
525.57	11.008
525.91	11.066
526.25	11.103
526.58	11.125
526.92	11.151
527.26	11.153
527.60	11.147
527.94	11.136
528.28	11.110
528.62	11.082
528.96	11.043
529.30	11.000
529.64	10.955
529.97	10.917
530.31	10.881
530.65	10.831
530.99	10.804
531.33	10.757
531.67	10.730
532.01	10.710
532.35	10.692
532.68	10.667
533.02	10.631
533.36	10.605
533.70	10.576
534.04	10.530
534.38	10.504
534.71	10.450
535.05	10.427
535.39	10.386
535.73	10.325
536.07	10.273
536.41	10.243
536.74	10.236
537.08	10.215
537.42	10.214
537.76	10.237
538.10	10.241
538.43	10.263
538.77	10.279
539.11	10.295
539.45	10.326
539.79	10.364
540.12	10.368
540.46	10.362
540.80	10.357
541.14	10.333
541.47	10.304
541.81	10.284
542.15	10.245
542.49	10.207
542.82	10.157
543.16	10.120
543.50	10.057
543.84	10.012
544.17	9.970
544.51	9.924
544.85	9.900
545.18	9.866
545.52	9.831
545.86	9.783
546.20	9.745
546.53	9.718
546.87	9.684
547.21	9.650
547.54	9.626
547.88	9.617
548.22	9.590
548.55	9.587
548.89	9.573
549.23	9.537
549.56	9.558
549.90	9.545
550.24	9.527
550.57	9.529
550.91	9.545
551.25	9.522
551.58	9.523
551.92	9.556
552.26	9.551
552.59	9.563
552.93	9.594
553.27	9.588
553.60	9.569
553.94	9.577
554.27	9.529
554.61	9.494
554.95	9.499
555.28	9.471
555.62	9.438
555.95	9.435
556.29	9.403
556.63	9.380
556.96	9.393
557.30	9.425
557.63	9.410
557.97	9.431
558.31	9.433
558.64	9.431
558.98	9.444
559.31	9.478
559.65	9.432
559.98	9.459
560.32	9.467
560.65	9.462
560.99	9.437
561.33	9.471
561.66	9.496
562.00	9.530
562.33	9.550
562.67	9.558
563.00	9.544
563.34	9.587
563.67	9.604
564.01	9.642
564.34	9.634
564.68	9.676
565.01	9.704
565.35	9.711
565.68	9.704
566.02	9.712
566.35	9.722
566.69	9.750
567.02	9.772
567.36	9.781
567.69	9.772
568.03	9.804
568.36	9.804
568.69	9.802
569.03	9.815
569.36	9.868
569.70	9.901
570.03	9.935
570.37	9.944
570.70	9.965
571.04	9.985
571.37	10.009
571.70	10.021
572.04	10.025
572.37	10.023
572.71	10.030
573.04	10.004
573.37	9.985
573.71	9.957
574.04	9.963
574.38	9.950
574.71	9.930
575.04	9.919
575.38	9.923
575.71	9.913
576.05	9.912
576.38	9.903
576.71	9.891
577.05	9.865
577.38	9.862
577.71	9.830
578.05	9.833
578.38	9.823
578.71	9.799
579.05	9.795
579.38	9.784
579.71	9.769
580.05	9.767
580.38	9.786
580.71	9.830
581.05	9.833
581.38	9.856
581.71	9.857
582.05	9.866
582.38	9.894
582.71	9.899
583.04	9.940
583.38	9.969
583.71	9.993
584.04	10.010
584.38	10.015
584.71	10.044
585.04	10.109
585.37	10.182
585.71	10.226
586.04	10.237
586.37	10.292
586.70	10.348
587.04	10.377
587.37	10.410
587.70	10.453
588.03	10.498
588.37	10.551
588.70	10.555
589.03	10.533
589.36	10.573
589.69	10.592
590.03	10.579
590.36	10.568
590.69	10.614
591.02	10.631
591.35	10.656
591.69	10.676
592.02	10.707
592.35	10.715
592.68	10.754
593.01	10.791
593.35	10.823
593.68	10.842
594.01	10.886
594.34	10.902
594.67	10.957
595.00	10.968
595.34	10.994
595.67	11.013
596.00	11.055
596.33	11.082
596.66	11.108
596.99	11.141
597.32	11.166
597.65	11.191
597.99	11.216
598.32	11.218
598.65	11.262
598.98	11.301
599.31	11.333
599.64	11.345
599.97	11.388
600.30	11.420
600.63	11.460
600.96	11.493
601.30	11.557
601.63	11.587
601.96	11.628
602.29	11.653
602.62	11.648
602.95	11.654
603.28	11.667
603.61	11.697
603.94	11.705
604.27	11.728
604.60	11.733
604.93	11.724
605.26	11.739
605.59	11.764
605.92	11.776
606.25	11.815
606.58	11.846
606.91	11.892
607.24	11.902
607.57	11.903
607.90	11.917
608.23	11.931
608.56	11.948
608.89	11.960
609.22	11.947
609.55	11.969
609.88	11.980
610.21	11.972
610.54	11.960
610.87	11.935
611.20	11.949
611.53	11.955
611.86	11.977
612.19	11.922
612.52	11.927
612.85	11.910
613.18	11.912
613.51	11.904
613.84	11.938
614.17	11.981
614.49	11.974
614.82	11.986
615.15	12.007
615.48	12.025
615.81	12.070
616.14	12.093
616.47	12.102
616.80	12.085
617.13	12.087
617.46	12.103
617.78	12.068
618.11	12.049
618.44	12.048
618.77	11.987
619.10	11.984
619.43	12.016
619.76	12.018
620.09	12.023
620.41	12.028
620.74	12.069
621.07	12.077
621.40	12.115
621.73	12.205
622.06	12.175
622.38	12.254
622.71	12.299
623.04	12.314
623.37	12.302
623.70	12.351
624.02	12.353
624.35	12.331
624.68	12.329
625.01	12.309
625.34	12.289
625.66	12.361
625.99	12.319
626.32	12.309
626.65	12.279
626.98	12.294
627.30	12.246
627.63	12.239
627.96	12.255
628.29	12.250
628.61	12.275
628.94	12.257
629.27	12.185
629.60	12.190
629.92	12.185
630.25	12.168
630.58	12.159
630.91	12.187
631.23	12.185
631.56	12.158
631.89	12.133
632.21	12.103
632.54	12.116
632.87	12.136
633.19	12.172
633.52	12.156
633.85	12.127
634.18	12.064
634.50	12.050
634.83	12.043
635.16	12.012
635.48	12.000
635.81	11.944
636.14	11.950
636.46	11.962
636.79	11.927
637.11	11.877
637.44	11.869
637.77	11.899
638.09	11.880
638.42	11.886
638.75	11.914
639.07	11.848
639.40	11.858
639.73	11.841
640.05	11.827
640.38	11.797
640.70	11.857
641.03	11.850
641.36	11.858
641.68	11.823
642.01	11.856
642.33	11.818
642.66	11.849
642.98	11.863
643.31	11.837
643.64	11.847
643.96	11.856
644.29	11.758
644.61	11.779
644.94	11.775
645.26	11.787
645.59	11.770
645.91	11.806
646.24	11.819
646.56	11.881
646.89	11.871
647.22	11.838
647.54	11.841
647.87	11.931
648.19	11.936
648.52	11.928
648.84	11.968
649.17	11.957
649.49	11.945
649.82	11.949
650.14	11.929
650.47	11.916
650.79	11.873
651.11	11.867
651.44	11.852
651.76	11.842
652.09	11.835
652.41	11.819
652.74	11.796
653.06	11.770
653.39	11.709
653.71	11.656
654.04	11.641
654.36	11.673
654.68	11.691
655.01	11.706
655.33	11.729
655.66	11.726
655.98	11.721
656.30	11.726
656.63	11.713
656.95	11.753
657.28	11.729
657.60	11.724
657.92	11.699
658.25	11.652
658.57	11.575
658.90	11.543
659.22	11.523
659.54	11.534
659.87	11.459
660.19	11.453
660.51	11.399
660.84	11.391
661.16	11.326
661.48	11.334
661.81	11.291
662.13	11.344
662.45	11.302
662.78	11.276
663.10	11.114
663.42	11.137
663.75	11.074
664.07	11.089
664.39	11.077
664.72	11.060
665.04	10.946
665.36	10.919
665.69	10.876
666.01	10.823
666.33	10.848
666.65	10.892
666.98	10.858
667.30	10.837
667.62	10.818
667.94	10.785
668.27	10.766
668.59	10.838
668.91	10.820
669.23	10.770
669.56	10.755
669.88	10.622
670.20	10.600
670.52	10.593
670.85	10.607
671.17	10.578
671.49	10.529
671.81	10.552
672.13	10.400
672.46	10.385
672.78	10.299
673.10	10.286
673.42	10.284
673.74	10.221
674.07	10.162
674.39	10.154
674.71	10.097
675.03	10.064
675.35	10.115
675.67	10.235
676.00	10.206
676.32	10.265
676.64	10.341
676.96	10.388
677.28	10.397
677.60	10.432
677.92	10.390
678.25	10.408
678.57	10.456
678.89	10.433
679.21	10.411
679.53	10.380
679.85	10.340
680.17	10.293
680.49	10.260
680.81	10.263
681.13	10.229
681.46	10.217
681.78	10.209
682.10	10.195
682.42	10.088
682.74	10.119
683.06	10.246
683.38	10.297
683.70	10.358
684.02	10.394
684.34	10.410
684.66	10.484
684.98	10.540
685.30	10.576
685.62	10.650
685.94	10.719
686.26	10.686
686.58	10.688
686.90	10.642
687.22	10.568
687.54	10.542
687.86	10.559
688.18	10.479
688.50	10.449
688.82	10.391
689.14	10.264
689.46	10.206
689.78	10.148
690.10	10.103
690.42	10.057
690.74	10.000
691.06	10.037
691.38	9.946
691.70	9.978
692.02	9.938
692.34	9.854
692.66	9.762
692.98	9.725
693.30	9.686
693.62	9.649
693.94	9.669
694.26	9.714
694.57	9.627
694.89	9.666
695.21	9.599
695.53	9.721
695.85	9.854
696.17	10.016
696.49	10.078
696.81	10.111
697.13	10.137
697.44	10.181
697.76	10.083
698.08	10.079
698.40	10.047
698.72	10.059
699.04	9.846
699.36	9.755
699.67	9.539
699.99	9.355
700.31	9.267
700.63	9.009
700.95	8.838
701.27	8.793
701.58	8.557
701.90	8.428
702.22	8.318
702.54	8.249
702.86	8.091
703.17	8.034
703.49	7.977
703.81	7.849
704.13	7.859
704.45	7.792
704.76	7.641
705.08	7.752
705.40	7.785
705.72	7.656
706.03	7.703
706.35	7.761
706.67	7.803
706.99	7.975
707.30	7.938
707.62	7.878
707.94	7.872
708.26	8.033
708.57	7.955
708.89	7.945
709.21	8.072
709.53	8.134
709.84	8.071
710.16	8.014
710.48	7.888
710.79	7.925
711.11	7.948
711.43	7.947
711.74	7.948
712.06	8.031
712.38	7.901
712.69	7.827
713.01	7.791
713.33	7.881
713.64	7.970
713.96	8.012
714.28	8.119
714.59	8.346
714.91	8.471
715.23	8.548
715.54	8.647
715.86	8.857
716.17	8.917
716.49	8.932
716.81	9.002
717.12	9.034
717.44	9.025
717.76	9.020
718.07	8.809
718.39	8.546
718.70	8.413
719.02	8.207
719.33	8.107
719.65	8.007
719.97	7.933
720.28	7.667
720.60	7.576
720.91	7.643
721.23	7.501
721.54	7.540
721.86	7.576
722.17	7.543
722.49	7.568
722.81	7.521
723.12	7.683
723.44	7.775
723.75	7.774
724.07	7.772
724.38	7.646
724.70	7.781
725.01	7.771
725.33	7.958
725.64	7.880
725.96	7.911
726.27	7.963
726.59	7.803
726.90	7.724
727.22	7.776
727.53	7.724
727.84	7.807
728.16	7.650
728.47	7.739
728.79	7.685
729.10	7.587
729.42	7.490
729.73	7.387
730.05	7.267
730.36	7.204
730.67	7.181
730.99	7.125
731.30	6.818
731.62	6.661
731.93	6.301
732.24	6.161
732.56	6.101
732.87	5.915
733.19	5.639
733.50	5.548
733.81	5.404
734.13	5.064
734.44	4.909
734.76	4.800
735.07	4.730
735.38	4.705
735.70	4.408
736.01	4.174
736.32	4.058
736.64	4.033
736.95	4.058
737.26	3.865
737.58	3.790
737.89	3.796
738.20	3.775
738.52	3.550
738.83	3.495
739.14	3.378
739.45	3.391
739.77	3.281
740.08	3.175
740.39	2.782
740.71	2.582
741.02	2.275
741.33	1.982
741.64	1.641
741.96	1.543
742.27	1.045
742.58	0.722
742.90	0.296
743.21	0.134
743.52	-0.068
743.83	-0.247
744.14	-0.217
744.46	-0.084
744.77	-0.388
745.08	-0.404
745.39	-0.475
745.71	-0.434
746.02	-0.109
746.33	0.235
746.64	0.276
746.95	0.449
747.27	0.558
747.58	0.300
747.89	0.407
748.20	0.756
748.51	0.786
748.82	0.698
749.14	0.704
749.45	0.448
749.76	0.396
750.07	0.318
750.38	0.248
750.69	0.168
751.01	0.407
751.32	0.459
751.63	0.173
751.94	0.216
752.25	0.456
752.56	0.526
752.87	0.712
753.18	0.632
753.49	0.544
753.81	0.785
754.12	1.004
754.43	0.865
754.74	0.746
755.05	1.075
755.36	1.314
755.67	1.588
755.98	1.890
756.29	2.270
756.60	3.175
756.91	4.087
757.22	4.403
757.53	5.046
757.84	5.897
758.15	6.771
758.46	7.536
758.77	8.272
759.09	8.749
759.40	9.229
759.71	9.636
760.02	9.685
760.33	9.613
760.64	9.888
760.95	10.043
761.26	10.130
761.57	9.891
761.88	9.785
762.18	9.618
762.49	9.527
762.80	9.446
763.11	9.242
763.42	8.857
763.73	8.747
764.04	8.387
764.35	7.966
764.66	7.301
764.97	6.825
765.28	6.027
765.59	5.387
765.90	4.580
766.21	3.632
766.52	2.672
766.83	2.104
767.14	1.416
767.44	0.747
767.75	0.206
768.06	0.043
768.37	-0.656
768.68	-0.861
768.99	-1.569
769.30	-1.859
769.61	-2.145
769.91	-2.285
770.22	-2.440
770.53	-3.049
770.84	-3.358
771.15	-3.972
771.46	-4.415
771.77	-4.149
772.07	-4.083
772.38	-3.738
772.69	-4.055
773.00	-3.970
773.31	-3.867
773.61	-4.125
773.92	-3.884
774.23	-4.081
774.54	-3.701
774.85	-3.507
775.15	-3.585
775.46	-3.979
775.77	-3.974
776.08	-3.636
776.39	-3.596
776.69	-4.044
777.00	-3.943
777.31	-3.754
777.62	-3.712
777.92	-3.856
778.23	-3.679
778.54	-3.456
778.85	-3.507
779.15	-3.349
779.46	-3.514
779.77	-3.569
780.07	-3.388
780.38	-3.915
780.69	-4.196
781.00	-4.114
781.30	-4.052
781.61	-4.101
781.92	-4.081
782.22	-3.690
782.53	-3.717
782.84	-3.752
783.14	-3.934
783.45	-4.062
783.76	-3.224
784.06	-3.093
784.37	-3.085
784.68	-2.927
784.98	-3.395
785.29	-3.354
785.60	-3.196
785.90	-3.139
786.21	-2.778
786.51	-2.277
786.82	-1.618
787.13	-1.304
787.43	-0.882
787.74	-0.227
788.04	-0.341
788.35	0.365
788.66	0.592
788.96	0.716
789.27	0.479
789.57	0.351
789.88	0.561
790.19	0.398
790.49	0.093
790.80	-0.070
791.10	-0.324
791.41	0.175
791.71	0.079
792.02	0.017
792.32	0.386
792.63	0.683
792.93	0.747
793.24	0.592
793.54	0.688
793.85	1.121
794.15	0.790
794.46	0.776
794.76	0.239
795.07	0.336
795.37	0.645
795.68	0.088
795.98	0.309
796.29	0.727
796.59	0.348
796.90	-0.019
797.20	-0.375
797.51	0.017
797.81	-0.233
798.12	0.298
798.42	0.237
798.72	0.057
799.03	0.223
799.33	-0.439
799.64	-0.472
799.94	-0.001
800.25	0.581
800.55	0.352
800.85	0.367
801.16	0.105
801.46	-0.398
801.77	-0.325
802.07	-0.792
802.37	-1.048
802.68	-0.732
802.98	-1.077
803.28	-1.223
803.59	-1.529
803.89	-1.392
804.20	-1.572
804.50	-1.071
804.80	-1.155
805.11	-1.350
805.41	-1.162
805.71	-0.652
806.02	-0.483
806.32	-0.688
806.62	-0.353
806.93	0.293
807.23	0.450
807.53	1.006
807.83	0.546
808.14	1.070
808.44	0.683
808.74	0.801
809.05	0.348
809.35	0.795
809.65	1.648
809.95	1.869
810.26	1.160
810.56	1.223
810.86	0.522
811.16	1.171
811.47	1.585
811.77	2.335
812.07	2.765
812.37	3.205
812.68	2.893
812.98	2.739
813.28	2.348
813.58	3.458
813.88	3.285
814.19	3.859
814.49	4.036
814.79	3.715
815.09	3.957
815.39	3.985
815.70	4.241
816.00	4.803
816.30	4.924
816.60	5.566
816.90	5.239
817.20	5.984
817.50	6.556
817.81	7.465
818.11	8.087
818.41	8.597
818.71	9.165
819.01	9.763
819.31	9.910
819.61	10.132
819.92	10.339
820.22	10.611
820.52	10.788
820.82	10.884
821.12	10.931
821.42	11.044
821.72	11.105
822.02	11.217
822.32	11.115
822.62	11.228
822.92	11.210
823.22	11.180
823.52	11.138
823.83	11.145
824.13	11.201
824.43	11.190
824.73	11.133
825.03	11.024
825.33	10.860
825.63	10.828
825.93	10.661
826.23	10.675
826.53	10.682
826.83	10.441
827.13	10.203
827.43	9.921
827.73	9.710
828.03	9.571
828.33	9.430
828.63	9.259
828.93	9.392
829.23	9.072
829.53	9.111
829.83	8.590
830.13	9.134
830.42	9.344
830.72	9.425
831.02	8.882
831.32	8.864
831.62	9.135
831.92	8.982
832.22	8.554
832.52	8.763
832.82	8.807
833.12	9.110
833.42	8.874
833.72	8.488
834.01	8.198
834.31	8.455
834.61	8.798
834.91	8.523
835.21	8.563
835.51	8.601
835.81	8.912
836.11	8.407
836.40	8.125
836.70	7.658
837.00	7.376
837.30	7.970
837.60	7.542
837.90	6.247
838.19	6.159
838.49	5.400
838.79	5.117
839.09	3.545
839.39	3.376
839.68	2.710
839.98	2.176
840.28	1.611
840.58	-0.021
840.88	-0.451
841.17	-0.065
841.47	-0.978
841.77	-0.870
842.07	-0.830
842.36	-0.646
842.66	-1.650
842.96	-3.193
843.26	-4.266
843.55	-3.969
843.85	-4.675
844.15	-3.705
844.45	-5.322
844.74	-6.713
845.04	-8.069
845.34	-8.403
845.63	-9.009
845.93	-9.437
846.23	-12.188
846.53	-11.027
846.82	-10.312
847.12	-9.253
847.42	-11.319
847.71	-10.768
848.01	-9.317
848.31	-7.461
848.60	-9.271
848.90	-8.752
849.19	-7.859
849.49	-3.150
849.79	-3.187
850.08	-4.544
850.38	-3.247
850.68	-2.499
850.97	-2.369
851.27	-0.670
851.56	-2.102
851.86	-0.995
852.16	-1.246
852.45	-4.307
852.75	-7.661
853.04	-4.987
853.34	-6.233
853.64	-6.945
853.93	-7.330
854.23	-7.145
854.52	-9.162
854.82	-9.797
855.11	-10.793
855.41	-12.676
855.70	-9.980
856.00	-5.622
856.30	-8.735
856.59	-4.742
856.89	-5.089
857.18	-5.051
857.48	-9.004
857.77	-9.750
858.07	-7.993
858.36	-7.348
858.66	-7.176
858.95	-7.782
859.25	-8.390
859.54	-10.100
859.84	-13.691
860.13	-14.680
860.42	-14.045
860.72	-12.261
861.01	-13.317
861.31	-13.498
861.60	-15.444
861.90	-10.690
862.19	-11.899
862.49	-11.040
862.78	-7.848
863.07	-8.087
863.37	-6.626
863.66	-6.169
863.96	-7.013
864.25	-4.641
864.54	-4.203
864.84	-2.406
865.13	-4.408
865.43	-3.926
865.72	2.430
866.01	6.527
866.31	1.388
866.60	4.218
866.89	-21.348
>>>>>End Spectral Data<<<<<
