OOIBase32 Version 2.0.0.6 Data File
++++++++++++++++++++++++++++++++++++
Date: 01-19-2012, 17:38:13
User: Valued Ocean Optics Customer
Spectrometer Serial Number: USB2E2917
Spectrometer Channel: Master
Integration Time (msec): 6
Spectra Averaged: 10
Boxcar Smoothing: 5
Correct for Electrical Dark: Enabled
Time Normalized: Disabled
Dual-beam Reference: Disabled
Reference Channel: Master
Temperature: Not acquired
Spectrometer Type: S2000
ADC Type: USB2000
Number of Pixels in File: 2048
Graph Title: 
>>>>>Begin Spectral Data<<<<<
180.30	0.000
180.67	0.000
181.03	142.643
181.40	-13.720
181.77	66.076
182.14	32.519
182.51	32.153
182.88	142.940
183.25	399.751
183.62	36.495
183.99	-11.997
184.36	-34.248
184.73	130.795
185.10	90.621
185.46	51.631
185.83	-52.500
186.20	-726.762
186.57	178.748
186.94	8.416
187.31	266.579
187.68	116.902
188.05	155.519
188.42	92.256
188.78	84.237
189.15	87.598
189.52	67.852
189.89	63.487
190.26	49.611
190.63	42.980
191.00	33.474
191.37	33.865
191.73	22.549
192.10	3.324
192.47	3.311
192.84	5.031
193.21	1.187
193.58	-18.064
193.94	-34.264
194.31	-41.142
194.68	-37.792
195.05	-57.483
195.42	-65.431
195.79	-54.244
196.15	-17.097
196.52	-11.927
196.89	-15.443
197.26	-12.681
197.63	-15.213
198.00	-12.315
198.36	-9.187
198.73	-10.064
199.10	4.331
199.47	10.109
199.84	10.448
200.20	2.377
200.57	-11.493
200.94	0.631
201.31	9.544
201.68	16.407
202.04	8.398
202.41	5.411
202.78	14.563
203.15	19.756
203.51	17.281
203.88	20.611
204.25	31.975
204.62	36.181
204.98	25.797
205.35	5.972
205.72	-8.587
206.09	-19.746
206.46	-15.999
206.82	-16.395
207.19	-33.901
207.56	-43.914
207.92	-40.782
208.29	-80.115
208.66	-79.736
209.03	-61.244
209.39	-64.037
209.76	-38.909
210.13	-20.453
210.50	-5.772
210.86	-5.926
211.23	6.938
211.60	11.710
211.96	8.884
212.33	16.998
212.70	14.480
213.07	10.711
213.43	13.446
213.80	1.437
214.17	3.664
214.53	-10.423
214.90	-7.574
215.27	-7.193
215.63	-6.739
216.00	-8.053
216.37	-12.545
216.74	-13.073
217.10	-16.645
217.47	-14.715
217.84	-5.317
218.20	5.100
218.57	7.936
218.94	-2.652
219.30	-11.070
219.67	-10.023
220.04	-15.424
220.40	-9.110
220.77	-7.924
221.13	-5.741
221.50	-5.333
221.87	-5.141
222.23	-12.017
222.60	-9.478
222.97	-5.308
223.33	0.842
223.70	-0.560
224.07	1.944
224.43	2.337
224.80	3.562
225.16	4.036
225.53	5.254
225.90	5.393
226.26	4.463
226.63	2.926
226.99	2.747
227.36	2.846
227.73	2.610
228.09	1.646
228.46	1.946
228.82	2.156
229.19	1.131
229.56	0.108
229.92	-0.575
230.29	1.087
230.65	2.827
231.02	3.310
231.38	2.954
231.75	3.815
232.12	4.246
232.48	3.898
232.85	4.249
233.21	4.918
233.58	4.108
233.94	4.125
234.31	3.920
234.68	1.679
235.04	2.094
235.41	1.512
235.77	0.071
236.14	0.249
236.50	-0.237
236.87	-1.444
237.23	-0.049
237.60	0.831
237.96	0.954
238.33	0.944
238.69	1.647
239.06	1.621
239.42	1.632
239.79	2.200
240.15	2.908
240.52	3.253
240.88	3.478
241.25	3.130
241.61	3.100
241.98	3.014
242.34	2.446
242.71	2.696
243.07	2.526
243.44	2.645
243.80	2.522
244.17	2.093
244.53	2.204
244.90	2.109
245.26	2.094
245.63	2.281
245.99	2.297
246.36	2.807
246.72	2.450
247.09	2.674
247.45	2.932
247.81	2.987
248.18	3.092
248.54	2.914
248.91	3.234
249.27	2.914
249.64	2.568
250.00	2.951
250.36	2.299
250.73	2.360
251.09	2.330
251.46	2.070
251.82	1.978
252.19	2.175
252.55	2.101
252.91	1.989
253.28	2.630
253.64	3.031
254.01	2.680
254.37	2.915
254.73	3.282
255.10	2.718
255.46	2.666
255.83	2.668
256.19	2.710
256.55	2.739
256.92	2.612
257.28	2.283
257.65	2.028
258.01	2.194
258.37	2.282
258.74	2.302
259.10	2.408
259.46	2.416
259.83	2.528
260.19	2.536
260.55	2.432
260.92	2.519
261.28	2.741
261.64	2.824
262.01	2.671
262.37	2.534
262.73	2.553
263.10	2.661
263.46	2.467
263.82	2.222
264.19	1.911
264.55	1.986
264.91	1.913
265.28	2.086
265.64	2.144
266.00	2.222
266.37	2.208
266.73	2.226
267.09	2.347
267.46	2.434
267.82	2.571
268.18	2.601
268.54	2.502
268.91	2.585
269.27	2.425
269.63	2.471
270.00	2.562
270.36	2.435
270.72	2.449
271.08	2.419
271.45	2.336
271.81	2.432
272.17	2.760
272.53	2.946
272.90	2.890
273.26	2.866
273.62	2.896
273.98	2.800
274.35	3.021
274.71	3.004
275.07	2.861
275.43	2.832
275.80	2.770
276.16	2.662
276.52	2.818
276.88	2.738
277.25	2.844
277.61	2.954
277.97	2.939
278.33	2.900
278.69	2.647
279.06	2.532
279.42	2.713
279.78	2.573
280.14	2.381
280.50	2.189
280.87	2.267
281.23	2.247
281.59	2.152
281.95	2.200
282.31	2.263
282.68	2.442
283.04	2.450
283.40	2.455
283.76	2.491
284.12	2.728
284.48	2.825
284.85	2.797
285.21	2.715
285.57	2.715
285.93	2.504
286.29	2.417
286.65	2.566
287.02	2.674
287.38	2.588
287.74	2.695
288.10	2.597
288.46	2.549
288.82	2.628
289.18	2.815
289.54	2.678
289.91	2.923
290.27	2.965
290.63	2.701
290.99	2.803
291.35	2.843
291.71	2.595
292.07	2.368
292.43	2.482
292.79	2.411
293.16	2.268
293.52	2.205
293.88	2.200
294.24	2.310
294.60	2.369
294.96	2.355
295.32	2.459
295.68	2.580
296.04	2.780
296.40	2.474
296.76	2.479
297.12	2.465
297.49	2.720
297.85	2.693
298.21	2.583
298.57	2.680
298.93	2.487
299.29	2.387
299.65	2.323
300.01	2.245
300.37	2.622
300.73	2.662
301.09	2.719
301.45	2.746
301.81	2.713
302.17	2.845
302.53	2.690
302.89	2.852
303.25	2.873
303.61	2.825
303.97	2.845
304.33	2.707
304.69	2.694
305.05	2.781
305.41	2.651
305.77	2.773
306.13	2.756
306.49	2.918
306.85	2.910
307.21	2.879
307.57	3.066
307.93	3.043
308.29	3.104
308.65	3.038
309.01	2.930
309.37	3.022
309.73	2.926
310.09	2.814
310.45	2.771
310.81	2.785
311.17	2.897
311.53	2.848
311.89	2.848
312.25	2.832
312.61	2.978
312.96	3.014
313.32	3.055
313.68	3.100
314.04	3.096
314.40	3.145
314.76	3.118
315.12	2.957
315.48	2.984
315.84	2.920
316.20	2.874
316.56	2.781
316.92	2.953
317.27	2.801
317.63	2.889
317.99	3.045
318.35	3.084
318.71	3.087
319.07	3.072
319.43	3.075
319.79	3.179
320.15	3.305
320.50	3.435
320.86	3.222
321.22	3.407
321.58	3.383
321.94	3.282
322.30	3.186
322.66	3.231
323.01	3.283
323.37	3.306
323.73	3.288
324.09	3.166
324.45	3.019
324.81	3.101
325.17	2.940
325.52	2.896
325.88	2.889
326.24	2.976
326.60	2.937
326.96	2.973
327.31	2.949
327.67	2.927
328.03	2.921
328.39	3.047
328.75	3.049
329.11	3.038
329.46	3.127
329.82	3.217
330.18	3.253
330.54	3.311
330.90	3.240
331.25	3.199
331.61	3.279
331.97	3.351
332.33	3.246
332.68	3.196
333.04	3.227
333.40	3.164
333.76	3.182
334.11	3.049
334.47	2.981
334.83	3.043
335.19	3.064
335.54	2.978
335.90	2.929
336.26	2.918
336.62	2.934
336.97	2.967
337.33	3.037
337.69	2.989
338.05	3.044
338.40	3.071
338.76	2.992
339.12	3.037
339.48	3.054
339.83	3.249
340.19	3.312
340.55	3.371
340.90	3.360
341.26	3.340
341.62	3.343
341.97	3.328
342.33	3.339
342.69	3.397
343.04	3.365
343.40	3.448
343.76	3.358
344.12	3.328
344.47	3.211
344.83	3.271
345.19	3.263
345.54	3.372
345.90	3.376
346.26	3.405
346.61	3.511
346.97	3.434
347.32	3.341
347.68	3.301
348.04	3.362
348.39	3.496
348.75	3.410
349.11	3.408
349.46	3.329
349.82	3.333
350.18	3.242
350.53	3.198
350.89	3.278
351.24	3.376
351.60	3.381
351.96	3.228
352.31	3.201
352.67	3.345
353.02	3.334
353.38	3.354
353.74	3.392
354.09	3.512
354.45	3.470
354.80	3.467
355.16	3.457
355.52	3.494
355.87	3.624
356.23	3.671
356.58	3.667
356.94	3.689
357.29	3.653
357.65	3.713
358.00	3.680
358.36	3.694
358.72	3.672
359.07	3.558
359.43	3.509
359.78	3.459
360.14	3.436
360.49	3.443
360.85	3.414
361.20	3.492
361.56	3.444
361.91	3.497
362.27	3.484
362.62	3.539
362.98	3.656
363.33	3.676
363.69	3.751
364.04	3.756
364.40	3.750
364.75	3.766
365.11	3.725
365.46	3.734
365.82	3.709
366.17	3.762
366.53	3.788
366.88	3.715
367.24	3.739
367.59	3.681
367.95	3.716
368.30	3.716
368.66	3.759
369.01	3.775
369.37	3.822
369.72	3.772
370.08	3.742
370.43	3.738
370.78	3.798
371.14	3.781
371.49	3.788
371.85	3.783
372.20	3.766
372.56	3.759
372.91	3.699
373.26	3.629
373.62	3.695
373.97	3.757
374.33	3.740
374.68	3.742
375.03	3.800
375.39	3.842
375.74	3.829
376.10	3.829
376.45	3.817
376.80	3.846
377.16	3.893
377.51	3.882
377.87	3.868
378.22	3.877
378.57	3.864
378.93	3.785
379.28	3.821
379.63	3.834
379.99	3.825
380.34	3.841
380.70	3.858
381.05	3.863
381.40	3.885
381.76	3.905
382.11	3.916
382.46	3.973
382.82	4.044
383.17	3.988
383.52	3.999
383.88	4.007
384.23	3.978
384.58	4.025
384.94	4.022
385.29	4.032
385.64	3.998
385.99	3.996
386.35	3.961
386.70	3.949
387.05	3.968
387.41	3.966
387.76	3.972
388.11	3.984
388.47	3.957
388.82	3.959
389.17	3.949
389.52	3.952
389.88	3.971
390.23	3.958
390.58	3.941
390.93	3.961
391.29	3.979
391.64	3.953
391.99	3.968
392.34	3.975
392.70	3.977
393.05	3.955
393.40	3.965
393.75	3.964
394.11	3.990
394.46	3.993
394.81	3.944
395.16	3.896
395.52	3.911
395.87	3.899
396.22	3.897
396.57	3.926
396.92	3.941
397.28	3.959
397.63	3.946
397.98	3.918
398.33	3.941
398.68	3.969
399.04	3.973
399.39	4.006
399.74	4.004
400.09	3.980
400.44	3.968
400.80	3.975
401.15	3.989
401.50	3.987
401.85	4.007
402.20	3.997
402.55	3.994
402.90	4.005
403.26	3.995
403.61	4.008
403.96	4.032
404.31	4.052
404.66	4.076
405.01	4.061
405.36	4.095
405.72	4.105
406.07	4.136
406.42	4.156
406.77	4.178
407.12	4.192
407.47	4.208
407.82	4.227
408.17	4.194
408.53	4.182
408.88	4.172
409.23	4.139
409.58	4.125
409.93	4.111
410.28	4.124
410.63	4.134
410.98	4.103
411.33	4.116
411.68	4.108
412.03	4.121
412.38	4.118
412.73	4.146
413.09	4.150
413.44	4.150
413.79	4.159
414.14	4.137
414.49	4.135
414.84	4.141
415.19	4.124
415.54	4.123
415.89	4.103
416.24	4.118
416.59	4.085
416.94	4.092
417.29	4.093
417.64	4.078
417.99	4.079
418.34	4.081
418.69	4.087
419.04	4.081
419.39	4.076
419.74	4.077
420.09	4.063
420.44	4.079
420.79	4.078
421.14	4.094
421.49	4.105
421.84	4.110
422.19	4.113
422.54	4.125
422.89	4.135
423.24	4.156
423.59	4.168
423.94	4.186
424.29	4.195
424.64	4.213
424.99	4.213
425.34	4.227
425.68	4.253
426.03	4.271
426.38	4.294
426.73	4.311
427.08	4.316
427.43	4.344
427.78	4.346
428.13	4.351
428.48	4.365
428.83	4.363
429.18	4.363
429.53	4.356
429.87	4.340
430.22	4.330
430.57	4.339
430.92	4.336
431.27	4.337
431.62	4.349
431.97	4.360
432.32	4.355
432.67	4.368
433.01	4.382
433.36	4.382
433.71	4.399
434.06	4.403
434.41	4.412
434.76	4.435
435.11	4.454
435.45	4.443
435.80	4.450
436.15	4.449
436.50	4.441
436.85	4.430
437.20	4.440
437.54	4.432
437.89	4.435
438.24	4.438
438.59	4.445
438.94	4.435
439.29	4.439
439.63	4.428
439.98	4.437
440.33	4.447
440.68	4.455
441.03	4.459
441.37	4.473
441.72	4.480
442.07	4.482
442.42	4.461
442.76	4.461
443.11	4.475
443.46	4.477
443.81	4.481
444.16	4.480
444.50	4.484
444.85	4.491
445.20	4.495
445.55	4.506
445.89	4.507
446.24	4.520
446.59	4.543
446.94	4.553
447.28	4.574
447.63	4.604
447.98	4.638
448.32	4.671
448.67	4.679
449.02	4.692
449.37	4.697
449.71	4.714
450.06	4.726
450.41	4.736
450.75	4.747
451.10	4.768
451.45	4.770
451.79	4.782
452.14	4.785
452.49	4.796
452.84	4.805
453.18	4.818
453.53	4.820
453.88	4.827
454.22	4.819
454.57	4.827
454.92	4.811
455.26	4.794
455.61	4.790
455.95	4.770
456.30	4.770
456.65	4.772
456.99	4.772
457.34	4.781
457.69	4.795
458.03	4.810
458.38	4.818
458.73	4.833
459.07	4.837
459.42	4.851
459.76	4.874
460.11	4.906
460.46	4.929
460.80	4.935
461.15	4.954
461.49	4.966
461.84	4.974
462.19	4.990
462.53	5.004
462.88	5.036
463.22	5.039
463.57	5.061
463.91	5.058
464.26	5.076
464.61	5.100
464.95	5.107
465.30	5.111
465.64	5.123
465.99	5.133
466.33	5.144
466.68	5.150
467.02	5.164
467.37	5.163
467.71	5.175
468.06	5.181
468.41	5.189
468.75	5.211
469.10	5.221
469.44	5.233
469.79	5.235
470.13	5.238
470.48	5.239
470.82	5.257
471.17	5.265
471.51	5.276
471.86	5.274
472.20	5.283
472.55	5.277
472.89	5.286
473.23	5.283
473.58	5.291
473.92	5.295
474.27	5.312
474.61	5.303
474.96	5.298
475.30	5.302
475.65	5.306
475.99	5.317
476.34	5.326
476.68	5.337
477.02	5.341
477.37	5.339
477.71	5.346
478.06	5.346
478.40	5.343
478.75	5.369
479.09	5.381
479.43	5.474
479.78	5.583
480.12	5.712
480.47	5.836
480.81	5.965
481.15	6.110
481.50	6.242
481.84	6.397
482.19	6.558
482.53	6.719
482.87	6.855
483.22	6.892
483.56	6.857
483.90	6.774
484.25	6.659
484.59	6.526
484.94	6.373
485.28	6.208
485.62	6.017
485.97	5.830
486.31	5.647
486.65	5.499
487.00	5.396
487.34	5.347
487.68	5.331
488.03	5.346
488.37	5.363
488.71	5.388
489.06	5.426
489.40	5.454
489.74	5.478
490.09	5.506
490.43	5.528
490.77	5.559
491.11	5.584
491.46	5.596
491.80	5.607
492.14	5.626
492.49	5.629
492.83	5.644
493.17	5.652
493.51	5.677
493.86	5.691
494.20	5.702
494.54	5.721
494.88	5.725
495.23	5.751
495.57	5.753
495.91	5.757
496.25	5.760
496.60	5.759
496.94	5.786
497.28	5.802
497.62	5.813
497.97	5.830
498.31	5.835
498.65	5.863
498.99	5.866
499.33	5.882
499.68	5.903
500.02	5.918
500.36	5.940
500.70	5.960
501.04	5.964
501.39	5.990
501.73	6.017
502.07	6.039
502.41	6.051
502.75	6.056
503.09	6.067
503.44	6.059
503.78	6.078
504.12	6.077
504.46	6.081
504.80	6.099
505.14	6.098
505.49	6.094
505.83	6.090
506.17	6.091
506.51	6.100
506.85	6.109
507.19	6.129
507.53	6.141
507.87	6.168
508.22	6.178
508.56	6.187
508.90	6.199
509.24	6.216
509.58	6.227
509.92	6.238
510.26	6.257
510.60	6.274
510.94	6.298
511.28	6.305
511.63	6.315
511.97	6.331
512.31	6.362
512.65	6.379
512.99	6.411
513.33	6.437
513.67	6.462
514.01	6.482
514.35	6.492
514.69	6.498
515.03	6.501
515.37	6.505
515.71	6.517
516.05	6.513
516.39	6.528
516.73	6.530
517.07	6.542
517.41	6.544
517.75	6.546
518.09	6.563
518.43	6.584
518.77	6.604
519.11	6.616
519.45	6.615
519.79	6.632
520.13	6.649
520.47	6.665
520.81	6.694
521.15	6.710
521.49	6.738
521.83	6.739
522.17	6.747
522.51	6.760
522.85	6.770
523.19	6.787
523.53	6.805
523.87	6.820
524.21	6.847
524.55	6.911
524.89	6.996
525.23	7.083
525.57	7.161
525.91	7.240
526.25	7.313
526.58	7.391
526.92	7.473
527.26	7.520
527.60	7.532
527.94	7.497
528.28	7.397
528.62	7.270
528.96	7.137
529.30	7.079
529.64	7.004
529.97	6.942
530.31	6.868
530.65	6.792
530.99	6.741
531.33	6.740
531.67	6.781
532.01	6.872
532.35	6.978
532.68	7.076
533.02	7.086
533.36	7.102
533.70	7.102
534.04	7.119
534.38	7.124
534.71	7.134
535.05	7.139
535.39	7.145
535.73	7.142
536.07	7.152
536.41	7.170
536.74	7.197
537.08	7.219
537.42	7.237
537.76	7.249
538.10	7.266
538.43	7.286
538.77	7.307
539.11	7.325
539.45	7.334
539.79	7.342
540.12	7.336
540.46	7.341
540.80	7.341
541.14	7.346
541.47	7.349
541.81	7.360
542.15	7.371
542.49	7.367
542.82	7.372
543.16	7.383
543.50	7.386
543.84	7.393
544.17	7.415
544.51	7.437
544.85	7.460
545.18	7.473
545.52	7.479
545.86	7.485
546.20	7.504
546.53	7.519
546.87	7.545
547.21	7.586
547.54	7.616
547.88	7.644
548.22	7.655
548.55	7.676
548.89	7.724
549.23	7.757
549.56	7.768
549.90	7.793
550.24	7.800
550.57	7.818
550.91	7.818
551.25	7.822
551.58	7.801
551.92	7.822
552.26	7.841
552.59	7.827
552.93	7.845
553.27	7.883
553.60	7.899
553.94	7.925
554.27	7.943
554.61	7.955
554.95	7.999
555.28	8.026
555.62	8.044
555.95	8.062
556.29	8.088
556.63	8.086
556.96	8.089
557.30	8.083
557.63	8.079
557.97	8.077
558.31	8.099
558.64	8.096
558.98	8.115
559.31	8.107
559.65	8.088
559.98	8.073
560.32	8.095
560.65	8.084
560.99	8.097
561.33	8.117
561.66	8.119
562.00	8.108
562.33	8.114
562.67	8.109
563.00	8.112
563.34	8.117
563.67	8.137
564.01	8.126
564.34	8.134
564.68	8.147
565.01	8.139
565.35	8.149
565.68	8.170
566.02	8.155
566.35	8.173
566.69	8.182
567.02	8.211
567.36	8.202
567.69	8.224
568.03	8.229
568.36	8.231
568.69	8.229
569.03	8.219
569.36	8.202
569.70	8.222
570.03	8.205
570.37	8.193
570.70	8.180
571.04	8.191
571.37	8.167
571.70	8.166
572.04	8.160
572.37	8.180
572.71	8.177
573.04	8.196
573.37	8.202
573.71	8.223
574.04	8.254
574.38	8.280
574.71	8.291
575.04	8.310
575.38	8.322
575.71	8.355
576.05	8.371
576.38	8.406
576.71	8.427
577.05	8.456
577.38	8.472
577.71	8.503
578.05	8.511
578.38	8.523
578.71	8.538
579.05	8.571
579.38	8.575
579.71	8.591
580.05	8.629
580.38	8.658
580.71	8.660
581.05	8.682
581.38	8.692
581.71	8.717
582.05	8.739
582.38	8.765
582.71	8.768
583.04	8.762
583.38	8.776
583.71	8.761
584.04	8.732
584.38	8.725
584.71	8.741
585.04	8.728
585.37	8.744
585.71	8.746
586.04	8.763
586.37	8.784
586.70	8.807
587.04	8.816
587.37	8.829
587.70	8.846
588.03	8.863
588.37	8.859
588.70	8.903
589.03	8.894
589.36	8.930
589.69	8.928
590.03	8.928
590.36	8.943
590.69	8.964
591.02	8.973
591.35	9.003
591.69	9.038
592.02	9.029
592.35	9.021
592.68	9.009
593.01	8.981
593.35	8.995
593.68	8.998
594.01	9.013
594.34	8.984
594.67	8.974
595.00	8.956
595.34	8.939
595.67	8.953
596.00	8.949
596.33	8.967
596.66	8.990
596.99	8.993
597.32	9.002
597.65	8.991
597.99	9.041
598.32	9.088
598.65	9.117
598.98	9.161
599.31	9.157
599.64	9.153
599.97	9.155
600.30	9.173
600.63	9.179
600.96	9.174
601.30	9.160
601.63	9.145
601.96	9.110
602.29	9.110
602.62	9.094
602.95	9.122
603.28	9.124
603.61	9.147
603.94	9.150
604.27	9.173
604.60	9.215
604.93	9.248
605.26	9.263
605.59	9.285
605.92	9.322
606.25	9.336
606.58	9.367
606.91	9.402
607.24	9.410
607.57	9.420
607.90	9.405
608.23	9.398
608.56	9.413
608.89	9.451
609.22	9.472
609.55	9.473
609.88	9.496
610.21	9.506
610.54	9.529
610.87	9.581
611.20	9.649
611.53	9.701
611.86	9.713
612.19	9.760
612.52	9.773
612.85	9.815
613.18	9.821
613.51	9.861
613.84	9.851
614.17	9.874
614.49	9.850
614.82	9.814
615.15	9.832
615.48	9.849
615.81	9.859
616.14	9.856
616.47	9.869
616.80	9.903
617.13	9.898
617.46	9.935
617.78	9.942
618.11	9.976
618.44	10.013
618.77	10.004
619.10	10.024
619.43	10.035
619.76	10.030
620.09	10.055
620.41	10.063
620.74	10.090
621.07	10.119
621.40	10.123
621.73	10.121
622.06	10.122
622.38	10.152
622.71	10.180
623.04	10.192
623.37	10.215
623.70	10.206
624.02	10.196
624.35	10.175
624.68	10.136
625.01	10.154
625.34	10.183
625.66	10.159
625.99	10.148
626.32	10.164
626.65	10.172
626.98	10.202
627.30	10.244
627.63	10.309
627.96	10.348
628.29	10.413
628.61	10.434
628.94	10.441
629.27	10.499
629.60	10.546
629.92	10.569
630.25	10.587
630.58	10.621
630.91	10.604
631.23	10.600
631.56	10.618
631.89	10.607
632.21	10.626
632.54	10.647
632.87	10.624
633.19	10.630
633.52	10.637
633.85	10.658
634.18	10.642
634.50	10.679
634.83	10.644
635.16	10.639
635.48	10.656
635.81	10.678
636.14	10.711
636.46	10.746
636.79	10.775
637.11	10.804
637.44	10.798
637.77	10.828
638.09	10.832
638.42	10.907
638.75	10.927
639.07	10.928
639.40	10.920
639.73	10.923
640.05	10.958
640.38	10.978
640.70	10.962
641.03	11.029
641.36	11.066
641.68	11.086
642.01	11.104
642.33	11.120
642.66	11.154
642.98	11.195
643.31	11.184
643.64	11.200
643.96	11.198
644.29	11.234
644.61	11.233
644.94	11.221
645.26	11.236
645.59	11.251
645.91	11.259
646.24	11.242
646.56	11.205
646.89	11.231
647.22	11.223
647.54	11.237
647.87	11.226
648.19	11.233
648.52	11.204
648.84	11.183
649.17	11.167
649.49	11.177
649.82	11.208
650.14	11.244
650.47	11.242
650.79	11.253
651.11	11.236
651.44	11.256
651.76	11.240
652.09	11.253
652.41	11.257
652.74	11.278
653.06	11.319
653.39	11.361
653.71	11.381
654.04	11.400
654.36	11.381
654.68	11.373
655.01	11.358
655.33	11.328
655.66	11.367
655.98	11.404
656.30	11.391
656.63	11.381
656.95	11.360
657.28	11.343
657.60	11.343
657.92	11.364
658.25	11.408
658.57	11.439
658.90	11.462
659.22	11.460
659.54	11.457
659.87	11.500
660.19	11.508
660.51	11.508
660.84	11.548
661.16	11.568
661.48	11.620
661.81	11.599
662.13	11.573
662.45	11.635
662.78	11.674
663.10	11.724
663.42	11.704
663.75	11.742
664.07	11.811
664.39	11.796
664.72	11.832
665.04	11.789
665.36	11.819
665.69	11.885
666.01	11.905
666.33	11.909
666.65	11.886
666.98	11.863
667.30	11.846
667.62	11.793
667.94	11.824
668.27	11.826
668.59	11.901
668.91	11.941
669.23	11.925
669.56	11.916
669.88	11.918
670.20	11.962
670.52	12.034
670.85	12.053
671.17	12.122
671.49	12.142
671.81	12.135
672.13	12.131
672.46	12.166
672.78	12.215
673.10	12.239
673.42	12.309
673.74	12.313
674.07	12.346
674.39	12.399
674.71	12.431
675.03	12.455
675.35	12.560
675.67	12.613
676.00	12.643
676.32	12.605
676.64	12.621
676.96	12.624
677.28	12.648
677.60	12.654
677.92	12.660
678.25	12.705
678.57	12.729
678.89	12.680
679.21	12.661
679.53	12.613
679.85	12.690
680.17	12.710
680.49	12.721
680.81	12.775
681.13	12.821
681.46	12.896
681.78	12.885
682.10	12.968
682.42	13.079
682.74	13.151
683.06	13.312
683.38	13.336
683.70	13.402
684.02	13.538
684.34	13.611
684.66	13.684
684.98	13.745
685.30	13.881
685.62	13.972
685.94	13.979
686.26	14.055
686.58	14.086
686.90	14.163
687.22	14.224
687.54	14.197
687.86	14.187
688.18	14.239
688.50	14.256
688.82	14.244
689.14	14.232
689.46	14.290
689.78	14.297
690.10	14.339
690.42	14.420
690.74	14.430
691.06	14.489
691.38	14.571
691.70	14.630
692.02	14.724
692.34	14.800
692.66	14.909
692.98	14.959
693.30	15.026
693.62	15.045
693.94	15.036
694.26	15.099
694.57	15.142
694.89	15.150
695.21	15.154
695.53	15.154
695.85	15.122
696.17	15.094
696.49	15.127
696.81	15.174
697.13	15.210
697.44	15.258
697.76	15.293
698.08	15.322
698.40	15.451
698.72	15.496
699.04	15.552
699.36	15.655
699.67	15.719
699.99	15.777
700.31	15.864
700.63	16.005
700.95	16.135
701.27	16.274
701.58	16.415
701.90	16.404
702.22	16.562
702.54	16.624
702.86	16.754
703.17	16.929
703.49	17.038
703.81	17.035
704.13	17.111
704.45	17.157
704.76	17.188
705.08	17.191
705.40	17.221
705.72	17.176
706.03	17.216
706.35	17.208
706.67	17.161
706.99	17.151
707.30	17.232
707.62	17.207
707.94	17.223
708.26	17.191
708.57	17.273
708.89	17.277
709.21	17.369
709.53	17.438
709.84	17.484
710.16	17.472
710.48	17.514
710.79	17.536
711.11	17.552
711.43	17.586
711.74	17.655
712.06	17.607
712.38	17.680
712.69	17.696
713.01	17.659
713.33	17.689
713.64	17.764
713.96	17.812
714.28	17.905
714.59	18.013
714.91	18.060
715.23	18.149
715.54	18.200
715.86	18.296
716.17	18.381
716.49	18.478
716.81	18.456
717.12	18.657
717.44	18.752
717.76	18.781
718.07	18.754
718.39	18.832
718.70	18.805
719.02	18.915
719.33	18.876
719.65	18.840
719.97	18.815
720.28	18.924
720.60	18.885
720.91	18.897
721.23	18.803
721.54	18.902
721.86	18.912
722.17	19.004
722.49	19.067
722.81	19.210
723.12	19.376
723.44	19.467
723.75	19.519
724.07	19.452
724.38	19.508
724.70	19.644
725.01	19.657
725.33	19.616
725.64	19.695
725.96	19.732
726.27	19.763
726.59	19.696
726.90	19.747
727.22	19.701
727.53	19.815
727.84	19.810
728.16	19.866
728.47	19.912
728.79	19.917
729.10	19.921
729.42	19.936
729.73	19.929
730.05	19.959
730.36	19.981
730.67	20.123
730.99	20.146
731.30	20.261
731.62	20.311
731.93	20.313
732.24	20.418
732.56	20.479
732.87	20.497
733.19	20.552
733.50	20.581
733.81	20.670
734.13	20.692
734.44	20.776
734.76	20.754
735.07	20.782
735.38	20.665
735.70	20.694
736.01	20.671
736.32	20.706
736.64	20.759
736.95	20.735
737.26	20.714
737.58	20.653
737.89	20.614
738.20	20.688
738.52	20.683
738.83	20.846
739.14	20.876
739.45	20.951
739.77	20.945
740.08	20.973
740.39	20.980
740.71	21.012
741.02	21.090
741.33	21.107
741.64	21.032
741.96	21.151
742.27	21.168
742.58	21.317
742.90	21.337
743.21	21.455
743.52	21.456
743.83	21.570
744.14	21.594
744.46	21.612
744.77	21.587
745.08	21.690
745.39	21.606
745.71	21.671
746.02	21.632
746.33	21.699
746.64	21.744
746.95	21.662
747.27	21.748
747.58	21.745
747.89	21.861
748.20	21.826
748.51	21.904
748.82	21.979
749.14	22.098
749.45	21.902
749.76	21.920
750.07	21.859
750.38	21.898
750.69	21.978
751.01	22.160
751.32	22.096
751.63	22.179
751.94	22.011
752.25	22.064
752.56	21.869
752.87	22.127
753.18	22.091
753.49	22.170
753.81	22.195
754.12	22.176
754.43	21.973
754.74	21.923
755.05	22.098
755.36	22.319
755.67	22.213
755.98	22.392
756.29	22.381
756.60	22.475
756.91	22.493
757.22	22.561
757.53	22.533
757.84	22.710
758.15	22.969
758.46	22.907
758.77	22.908
759.09	23.107
759.40	23.118
759.71	23.122
760.02	23.129
760.33	23.196
760.64	23.189
760.95	23.297
761.26	23.285
761.57	23.237
761.88	23.242
762.18	23.205
762.49	23.138
762.80	23.160
763.11	23.149
763.42	23.170
763.73	23.189
764.04	23.344
764.35	23.395
764.66	23.419
764.97	23.450
765.28	23.553
765.59	23.619
765.90	23.715
766.21	23.752
766.52	23.967
766.83	23.851
767.14	23.638
767.44	23.658
767.75	23.581
768.06	23.369
768.37	23.375
768.68	23.347
768.99	23.354
769.30	23.342
769.61	23.429
769.91	23.277
770.22	23.481
770.53	23.698
770.84	23.580
771.15	23.544
771.46	23.861
771.77	23.983
772.07	23.972
772.38	23.987
772.69	23.898
773.00	24.034
773.31	24.041
773.61	23.934
773.92	23.894
774.23	24.019
774.54	24.088
774.85	24.100
775.15	24.113
775.46	24.282
775.77	24.631
776.08	24.811
776.39	24.764
776.69	24.826
777.00	24.926
777.31	25.063
777.62	24.912
777.92	24.970
778.23	24.928
778.54	24.773
778.85	24.599
779.15	24.486
779.46	24.643
779.77	24.615
780.07	24.880
780.38	25.095
780.69	25.120
781.00	25.461
781.30	25.480
781.61	25.726
781.92	25.741
782.22	25.862
782.53	25.803
782.84	25.678
783.14	25.821
783.45	25.725
783.76	25.468
784.06	25.360
784.37	24.988
784.68	24.897
784.98	24.935
785.29	25.022
785.60	25.138
785.90	25.136
786.21	25.207
786.51	25.047
786.82	24.977
787.13	25.275
787.43	25.696
787.74	25.746
788.04	26.003
788.35	26.078
788.66	26.175
788.96	26.023
789.27	26.199
789.57	26.164
789.88	26.332
790.19	26.315
790.49	26.038
790.80	25.808
791.10	26.048
791.41	25.910
791.71	25.823
792.02	25.878
792.32	26.161
792.63	25.983
792.93	25.942
793.24	26.091
793.54	26.137
793.85	26.166
794.15	26.293
794.46	26.323
794.76	26.418
795.07	26.268
795.37	26.167
795.68	26.400
795.98	26.360
796.29	26.495
796.59	26.286
796.90	26.686
797.20	26.867
797.51	26.871
797.81	26.783
798.12	26.951
798.42	27.110
798.72	27.247
799.03	26.801
799.33	26.827
799.64	26.867
799.94	26.843
800.25	26.693
800.55	26.900
800.85	27.055
801.16	27.347
801.46	27.041
801.77	27.372
802.07	27.651
802.37	28.096
802.68	28.280
802.98	28.273
803.28	28.410
803.59	28.372
803.89	28.236
804.20	27.926
804.50	27.805
804.80	28.012
805.11	27.966
805.41	28.018
805.71	27.616
806.02	27.624
806.32	27.847
806.62	27.704
806.93	27.921
807.23	27.948
807.53	28.212
807.83	28.229
808.14	28.358
808.44	28.208
808.74	28.378
809.05	28.529
809.35	28.832
809.65	28.701
809.95	28.950
810.26	28.933
810.56	29.152
810.86	29.211
811.16	29.198
811.47	29.093
811.77	29.110
812.07	29.057
812.37	29.329
812.68	29.092
812.98	29.233
813.28	29.661
813.58	29.556
813.88	29.527
814.19	29.079
814.49	29.610
814.79	29.640
815.09	29.484
815.39	29.161
815.70	29.162
816.00	29.542
816.30	29.510
816.60	29.335
816.90	29.602
817.20	29.904
817.50	30.283
817.81	30.085
818.11	30.091
818.41	30.242
818.71	30.183
819.01	30.070
819.31	29.806
819.61	29.753
819.92	29.579
820.22	29.455
820.52	29.393
820.82	29.287
821.12	29.180
821.42	29.156
821.72	29.059
822.02	29.053
822.32	29.093
822.62	29.092
822.92	29.109
823.22	29.156
823.52	29.225
823.83	29.174
824.13	29.345
824.43	29.448
824.73	29.517
825.03	29.605
825.33	29.591
825.63	29.533
825.93	29.645
826.23	29.764
826.53	29.745
826.83	29.667
827.13	29.800
827.43	29.663
827.73	29.659
828.03	29.597
828.33	29.679
828.63	29.812
828.93	29.957
829.23	30.128
829.53	30.158
829.83	30.362
830.13	30.727
830.42	30.728
830.72	30.944
831.02	30.888
831.32	31.019
831.62	30.894
831.92	30.698
832.22	30.613
832.52	30.745
832.82	30.504
833.12	30.489
833.42	30.311
833.72	30.270
834.01	29.881
834.31	29.929
834.61	29.796
834.91	29.811
835.21	29.809
835.51	29.868
835.81	29.605
836.11	29.843
836.40	30.386
836.70	30.706
837.00	30.895
837.30	31.563
837.60	31.729
837.90	31.934
838.19	32.280
838.49	32.774
838.79	33.129
839.09	32.954
839.39	32.568
839.68	32.088
839.98	32.491
840.28	32.631
840.58	32.726
840.88	33.282
841.17	33.454
841.47	33.643
841.77	34.024
842.07	34.272
842.36	34.885
842.66	35.789
842.96	36.041
843.26	35.698
843.55	35.628
843.85	36.138
844.15	35.199
844.45	34.832
844.74	35.207
845.04	35.152
845.34	34.203
845.63	34.169
845.93	34.124
846.23	33.832
846.53	33.030
846.82	34.071
847.12	34.122
847.42	34.259
847.71	34.727
848.01	34.365
848.31	33.915
848.60	34.533
848.90	33.500
849.19	32.613
849.49	32.526
849.79	33.824
850.08	33.205
850.38	33.253
850.68	35.074
850.97	36.038
851.27	36.100
851.56	35.803
851.86	35.730
852.16	37.393
852.45	37.453
852.75	38.736
853.04	38.755
853.34	38.739
853.64	39.057
853.93	37.603
854.23	34.908
854.52	34.319
854.82	33.512
855.11	33.445
855.41	33.749
855.70	34.580
856.00	34.056
856.30	34.370
856.59	35.086
856.89	34.793
857.18	33.982
857.48	36.114
857.77	37.437
858.07	38.895
858.36	39.178
858.66	38.212
858.95	39.364
859.25	38.662
859.54	37.733
859.84	36.644
860.13	35.405
860.42	36.650
860.72	36.769
861.01	36.009
861.31	35.352
861.60	36.139
861.90	37.350
862.19	36.677
862.49	37.757
862.78	37.865
863.07	38.725
863.37	38.752
863.66	39.466
863.96	39.576
864.25	39.258
864.54	40.568
864.84	39.114
865.13	39.340
865.43	38.640
865.72	34.045
866.01	43.612
866.31	35.007
866.60	49.998
866.89	36.105
>>>>>End Spectral Data<<<<<
