OOIBase32 Version 2.0.0.6 Data File
++++++++++++++++++++++++++++++++++++
Date: 01-19-2012, 15:43:34
User: Valued Ocean Optics Customer
Spectrometer Serial Number: USB2E2917
Spectrometer Channel: Master
Integration Time (msec): 5
Spectra Averaged: 10
Boxcar Smoothing: 5
Correct for Electrical Dark: Enabled
Time Normalized: Disabled
Dual-beam Reference: Disabled
Reference Channel: Master
Temperature: Not acquired
Spectrometer Type: S2000
ADC Type: USB2000
Number of Pixels in File: 2048
Graph Title: 
>>>>>Begin Spectral Data<<<<<
180.30	0.000
180.67	0.000
181.03	-204.771
181.40	68.465
181.77	-108.460
182.14	17.076
182.51	-12.040
182.88	46.075
183.25	15.916
183.62	63.957
183.99	-7302.951
184.36	-562.306
184.73	-397.721
185.10	121.468
185.46	7.190
185.83	247.870
186.20	96.405
186.57	79.750
186.94	-57.887
187.31	131.097
187.68	-67.938
188.05	-8.591
188.42	1.525
188.78	5.600
189.15	30.952
189.52	43.546
189.89	46.789
190.26	11.682
190.63	32.821
191.00	34.427
191.37	37.751
191.73	30.752
192.10	56.717
192.47	54.433
192.84	51.046
193.21	45.039
193.58	26.767
193.94	25.490
194.31	44.945
194.68	49.261
195.05	58.919
195.42	56.801
195.79	52.021
196.15	47.410
196.52	39.821
196.89	42.286
197.26	58.879
197.63	47.045
198.00	68.718
198.36	48.240
198.73	39.975
199.10	40.396
199.47	77.985
199.84	70.788
200.20	51.837
200.57	74.673
200.94	64.972
201.31	58.141
201.68	74.912
202.04	57.745
202.41	71.671
202.78	63.046
203.15	51.972
203.51	41.430
203.88	45.922
204.25	38.354
204.62	21.967
204.98	22.750
205.35	26.256
205.72	24.714
206.09	33.762
206.46	14.602
206.82	32.328
207.19	39.386
207.56	58.526
207.92	51.031
208.29	57.293
208.66	57.856
209.03	67.614
209.39	57.440
209.76	51.061
210.13	38.577
210.50	37.004
210.86	28.693
211.23	-0.667
211.60	-38.886
211.96	-21.133
212.33	-25.334
212.70	-49.774
213.07	-76.686
213.43	-60.564
213.80	-33.086
214.17	-8.325
214.53	-2.530
214.90	-33.574
215.27	-13.891
215.63	0.074
216.00	-6.420
216.37	-3.040
216.74	-7.184
217.10	5.392
217.47	9.847
217.84	4.315
218.20	9.584
218.57	13.919
218.94	29.717
219.30	43.219
219.67	45.675
220.04	46.793
220.40	45.134
220.77	55.239
221.13	50.677
221.50	42.970
221.87	41.840
222.23	32.939
222.60	30.268
222.97	25.159
223.33	21.417
223.70	14.740
224.07	13.477
224.43	13.317
224.80	9.794
225.16	8.170
225.53	10.099
225.90	7.628
226.26	7.925
226.63	5.983
226.99	5.046
227.36	5.080
227.73	5.765
228.09	5.623
228.46	7.691
228.82	7.929
229.19	8.035
229.56	6.870
229.92	9.544
230.29	8.643
230.65	9.719
231.02	9.931
231.38	9.931
231.75	10.480
232.12	10.147
232.48	8.617
232.85	10.458
233.21	11.606
233.58	12.686
233.94	11.350
234.31	11.865
234.68	10.310
235.04	9.896
235.41	9.126
235.77	8.930
236.14	10.087
236.50	10.331
236.87	8.780
237.23	6.985
237.60	7.261
237.96	7.867
238.33	8.445
238.69	8.940
239.06	8.871
239.42	8.745
239.79	8.194
240.15	7.419
240.52	6.386
240.88	6.566
241.25	6.808
241.61	6.420
241.98	6.797
242.34	6.107
242.71	6.777
243.07	7.081
243.44	7.401
243.80	7.263
244.17	7.376
244.53	7.645
244.90	7.495
245.26	7.376
245.63	7.223
245.99	6.946
246.36	6.911
246.72	6.424
247.09	6.356
247.45	6.102
247.81	6.394
248.18	6.766
248.54	6.788
248.91	6.377
249.27	6.449
249.64	6.473
250.00	6.595
250.36	7.168
250.73	7.146
251.09	6.739
251.46	6.985
251.82	7.282
252.19	7.330
252.55	7.051
252.91	7.855
253.28	7.898
253.64	8.338
254.01	8.029
254.37	7.304
254.73	7.219
255.10	7.242
255.46	6.601
255.83	6.338
256.19	6.116
256.55	6.333
256.92	6.351
257.28	6.628
257.65	6.500
258.01	6.651
258.37	6.928
258.74	7.065
259.10	7.356
259.46	7.480
259.83	7.450
260.19	7.678
260.55	7.695
260.92	7.356
261.28	7.112
261.64	7.164
262.01	6.992
262.37	6.558
262.73	6.341
263.10	6.220
263.46	6.353
263.82	6.401
264.19	6.102
264.55	6.236
264.91	6.451
265.28	6.381
265.64	6.528
266.00	6.332
266.37	6.657
266.73	7.009
267.09	6.735
267.46	6.362
267.82	6.361
268.18	6.487
268.54	6.484
268.91	6.691
269.27	6.742
269.63	6.659
270.00	6.844
270.36	6.691
270.72	6.410
271.08	6.383
271.45	6.683
271.81	6.696
272.17	6.628
272.53	6.817
272.90	6.902
273.26	6.802
273.62	6.751
273.98	6.751
274.35	6.866
274.71	6.780
275.07	6.760
275.43	6.632
275.80	6.680
276.16	6.389
276.52	6.056
276.88	6.282
277.25	6.538
277.61	6.596
277.97	6.562
278.33	6.613
278.69	6.893
279.06	6.984
279.42	6.708
279.78	6.748
280.14	7.005
280.50	6.975
280.87	6.786
281.23	6.727
281.59	6.755
281.95	6.766
282.31	6.661
282.68	6.592
283.04	6.658
283.40	6.853
283.76	6.782
284.12	6.838
284.48	7.091
284.85	6.848
285.21	6.753
285.57	6.714
285.93	6.543
286.29	6.578
286.65	6.563
287.02	6.492
287.38	6.717
287.74	6.793
288.10	6.697
288.46	6.609
288.82	6.585
289.18	6.613
289.54	6.772
289.91	7.036
290.27	7.188
290.63	7.238
290.99	7.127
291.35	6.983
291.71	6.849
292.07	6.867
292.43	7.017
292.79	7.302
293.16	7.341
293.52	7.467
293.88	7.655
294.24	7.576
294.60	7.402
294.96	7.828
295.32	7.851
295.68	7.698
296.04	7.563
296.40	7.632
296.76	7.636
297.12	7.643
297.49	7.555
297.85	7.530
298.21	7.475
298.57	7.694
298.93	7.496
299.29	7.506
299.65	7.847
300.01	8.012
300.37	7.810
300.73	7.934
301.09	8.021
301.45	7.946
301.81	7.868
302.17	8.121
302.53	8.242
302.89	8.570
303.25	8.715
303.61	8.807
303.97	8.860
304.33	8.930
304.69	9.023
305.05	9.149
305.41	9.309
305.77	9.427
306.13	9.264
306.49	9.029
306.85	8.665
307.21	8.486
307.57	8.434
307.93	8.500
308.29	8.409
308.65	8.220
309.01	8.142
309.37	8.102
309.73	8.063
310.09	8.089
310.45	8.275
310.81	8.494
311.17	8.711
311.53	8.680
311.89	8.643
312.25	8.730
312.61	8.922
312.96	9.132
313.32	9.027
313.68	8.903
314.04	8.826
314.40	8.666
314.76	8.472
315.12	8.349
315.48	8.270
315.84	8.202
316.20	8.263
316.56	8.269
316.92	8.104
317.27	8.178
317.63	8.255
317.99	8.238
318.35	8.314
318.71	8.318
319.07	8.421
319.43	8.411
319.79	8.513
320.15	8.630
320.50	8.565
320.86	8.741
321.22	8.810
321.58	8.895
321.94	9.070
322.30	9.070
322.66	9.225
323.01	9.149
323.37	9.418
323.73	9.556
324.09	9.490
324.45	9.596
324.81	9.629
325.17	9.789
325.52	9.788
325.88	9.780
326.24	9.998
326.60	10.036
326.96	10.147
327.31	10.035
327.67	10.054
328.03	10.153
328.39	10.233
328.75	10.234
329.11	10.246
329.46	10.454
329.82	10.612
330.18	10.488
330.54	10.536
330.90	10.669
331.25	10.859
331.61	10.858
331.97	10.902
332.33	11.074
332.68	11.193
333.04	11.111
333.40	11.049
333.76	11.134
334.11	11.300
334.47	11.378
334.83	11.290
335.19	11.335
335.54	11.322
335.90	11.385
336.26	11.303
336.62	11.268
336.97	11.309
337.33	11.481
337.69	11.445
338.05	11.427
338.40	11.375
338.76	11.453
339.12	11.413
339.48	11.493
339.83	11.519
340.19	11.591
340.55	11.638
340.90	11.634
341.26	11.493
341.62	11.444
341.97	11.495
342.33	11.583
342.69	11.549
343.04	11.618
343.40	11.614
343.76	11.505
344.12	11.327
344.47	11.155
344.83	11.218
345.19	11.236
345.54	11.244
345.90	11.252
346.26	11.033
346.61	11.249
346.97	11.233
347.32	11.288
347.68	11.315
348.04	11.271
348.39	11.425
348.75	11.399
349.11	11.384
349.46	11.484
349.82	11.364
350.18	11.477
350.53	11.364
350.89	11.288
351.24	11.153
351.60	11.200
351.96	11.219
352.31	11.135
352.67	11.076
353.02	11.142
353.38	11.099
353.74	11.252
354.09	11.220
354.45	11.220
354.80	11.257
355.16	11.313
355.52	11.270
355.87	11.437
356.23	11.534
356.58	11.683
356.94	11.660
357.29	11.677
357.65	11.701
358.00	11.765
358.36	11.804
358.72	11.845
359.07	11.908
359.43	11.934
359.78	11.966
360.14	12.050
360.49	12.034
360.85	11.983
361.20	11.932
361.56	11.872
361.91	11.919
362.27	11.868
362.62	11.912
362.98	11.935
363.33	11.936
363.69	11.817
364.04	11.659
364.40	11.680
364.75	11.756
365.11	11.764
365.46	11.735
365.82	11.681
366.17	11.750
366.53	11.806
366.88	11.817
367.24	11.840
367.59	11.954
367.95	12.008
368.30	12.070
368.66	12.131
369.01	12.255
369.37	12.366
369.72	12.501
370.08	12.514
370.43	12.535
370.78	12.560
371.14	12.587
371.49	12.637
371.85	12.779
372.20	12.790
372.56	12.896
372.91	12.928
373.26	13.003
373.62	13.010
373.97	13.086
374.33	13.141
374.68	13.240
375.03	13.349
375.39	13.416
375.74	13.473
376.10	13.484
376.45	13.464
376.80	13.578
377.16	13.620
377.51	13.759
377.87	13.885
378.22	13.976
378.57	14.036
378.93	14.244
379.28	14.378
379.63	14.519
379.99	14.674
380.34	14.873
380.70	15.036
381.05	15.224
381.40	15.358
381.76	15.505
382.11	15.571
382.46	15.803
382.82	15.858
383.17	15.974
383.52	16.093
383.88	16.229
384.23	16.261
384.58	16.319
384.94	16.411
385.29	16.488
385.64	16.526
385.99	16.676
386.35	16.734
386.70	16.780
387.05	17.001
387.41	17.111
387.76	17.252
388.11	17.416
388.47	17.610
388.82	17.713
389.17	17.817
389.52	18.008
389.88	18.253
390.23	18.431
390.58	18.656
390.93	18.719
391.29	18.851
391.64	18.977
391.99	19.060
392.34	19.100
392.70	19.227
393.05	19.396
393.40	19.376
393.75	19.420
394.11	19.457
394.46	19.527
394.81	19.562
395.16	19.583
395.52	19.573
395.87	19.573
396.22	19.574
396.57	19.548
396.92	19.510
397.28	19.563
397.63	19.533
397.98	19.564
398.33	19.648
398.68	19.691
399.04	19.778
399.39	19.836
399.74	19.925
400.09	20.023
400.44	20.134
400.80	20.198
401.15	20.341
401.50	20.429
401.85	20.483
402.20	20.538
402.55	20.642
402.90	20.688
403.26	20.814
403.61	20.889
403.96	20.956
404.31	21.050
404.66	21.165
405.01	21.172
405.36	21.255
405.72	21.345
406.07	21.418
406.42	21.433
406.77	21.514
407.12	21.529
407.47	21.611
407.82	21.705
408.17	21.762
408.53	21.783
408.88	21.881
409.23	21.873
409.58	21.903
409.93	21.891
410.28	21.944
410.63	21.929
410.98	22.002
411.33	22.034
411.68	22.098
412.03	22.090
412.38	22.172
412.73	22.281
413.09	22.383
413.44	22.459
413.79	22.544
414.14	22.663
414.49	22.823
414.84	22.880
415.19	23.021
415.54	23.095
415.89	23.180
416.24	23.252
416.59	23.322
416.94	23.388
417.29	23.472
417.64	23.546
417.99	23.570
418.34	23.609
418.69	23.686
419.04	23.715
419.39	23.729
419.74	23.786
420.09	23.826
420.44	23.829
420.79	23.843
421.14	23.846
421.49	23.883
421.84	23.920
422.19	23.906
422.54	23.917
422.89	23.912
423.24	23.917
423.59	23.915
423.94	23.888
424.29	23.871
424.64	23.847
424.99	23.813
425.34	23.732
425.68	23.684
426.03	23.661
426.38	23.629
426.73	23.575
427.08	23.541
427.43	23.559
427.78	23.605
428.13	23.575
428.48	23.653
428.83	23.726
429.18	23.770
429.53	23.823
429.87	23.835
430.22	23.818
430.57	23.869
430.92	23.921
431.27	23.900
431.62	23.888
431.97	23.940
432.32	23.927
432.67	23.919
433.01	23.943
433.36	23.912
433.71	23.920
434.06	23.987
434.41	23.990
434.76	23.988
435.11	23.996
435.45	24.014
435.80	24.001
436.15	24.051
436.50	24.083
436.85	24.106
437.20	24.152
437.54	24.236
437.89	24.238
438.24	24.299
438.59	24.319
438.94	24.337
439.29	24.344
439.63	24.361
439.98	24.355
440.33	24.302
440.68	24.260
441.03	24.237
441.37	24.192
441.72	24.181
442.07	24.139
442.42	24.145
442.76	24.148
443.11	24.156
443.46	24.170
443.81	24.160
444.16	24.176
444.50	24.178
444.85	24.177
445.20	24.140
445.55	24.067
445.89	24.038
446.24	23.995
446.59	23.925
446.94	23.829
447.28	23.706
447.63	23.612
447.98	23.522
448.32	23.448
448.67	23.342
449.02	23.246
449.37	23.225
449.71	23.114
450.06	23.060
450.41	23.053
450.75	23.047
451.10	23.063
451.45	23.022
451.79	23.016
452.14	23.002
452.49	22.946
452.84	22.979
453.18	22.958
453.53	23.009
453.88	23.009
454.22	23.023
454.57	23.084
454.92	23.151
455.26	23.244
455.61	23.347
455.95	23.469
456.30	23.607
456.65	23.696
456.99	23.782
457.34	23.841
457.69	23.911
458.03	23.966
458.38	24.004
458.73	24.052
459.07	24.061
459.42	24.056
459.76	24.022
460.11	24.006
460.46	23.993
460.80	23.975
461.15	23.993
461.49	23.969
461.84	23.965
462.19	23.972
462.53	23.962
462.88	23.958
463.22	23.990
463.57	24.036
463.91	24.094
464.26	24.126
464.61	24.169
464.95	24.212
465.30	24.296
465.64	24.357
465.99	24.408
466.33	24.454
466.68	24.509
467.02	24.526
467.37	24.575
467.71	24.622
468.06	24.707
468.41	24.745
468.75	24.765
469.10	24.765
469.44	24.750
469.79	24.759
470.13	24.780
470.48	24.809
470.82	24.849
471.17	24.820
471.51	24.806
471.86	24.752
472.20	24.743
472.55	24.722
472.89	24.734
473.23	24.766
473.58	24.757
473.92	24.769
474.27	24.750
474.61	24.729
474.96	24.742
475.30	24.774
475.65	24.778
475.99	24.813
476.34	24.826
476.68	24.794
477.02	24.769
477.37	24.776
477.71	24.812
478.06	24.910
478.40	25.069
478.75	25.326
479.09	25.598
479.43	25.936
479.78	26.253
480.12	26.581
480.47	26.887
480.81	27.169
481.15	27.442
481.50	27.658
481.84	27.880
482.19	28.082
482.53	28.243
482.87	28.379
483.22	28.450
483.56	28.487
483.90	28.498
484.25	28.485
484.59	28.449
484.94	28.405
485.28	28.348
485.62	28.250
485.97	28.146
486.31	28.059
486.65	27.986
487.00	27.937
487.34	27.906
487.68	27.855
488.03	27.831
488.37	27.846
488.71	27.843
489.06	27.859
489.40	27.886
489.74	27.913
490.09	27.902
490.43	27.858
490.77	27.825
491.11	27.790
491.46	27.773
491.80	27.758
492.14	27.720
492.49	27.689
492.83	27.661
493.17	27.644
493.51	27.627
493.86	27.669
494.20	27.733
494.54	27.849
494.88	27.983
495.23	28.132
495.57	28.279
495.91	28.422
496.25	28.545
496.60	28.703
496.94	28.856
497.28	29.015
497.62	29.182
497.97	29.310
498.31	29.461
498.65	29.599
498.99	29.763
499.33	29.941
499.68	30.108
500.02	30.316
500.36	30.510
500.70	30.684
501.04	30.852
501.39	31.002
501.73	31.212
502.07	31.400
502.41	31.596
502.75	31.791
503.09	31.989
503.44	32.230
503.78	32.424
504.12	32.642
504.46	32.886
504.80	33.166
505.14	33.388
505.49	33.639
505.83	33.856
506.17	34.111
506.51	34.333
506.85	34.579
507.19	34.767
507.53	34.996
507.87	35.210
508.22	35.431
508.56	35.592
508.90	35.817
509.24	36.005
509.58	36.157
509.92	36.303
510.26	36.452
510.60	36.571
510.94	36.723
511.28	36.880
511.63	36.975
511.97	37.105
512.31	37.256
512.65	37.397
512.99	37.561
513.33	37.755
513.67	38.002
514.01	38.264
514.35	38.502
514.69	38.732
515.03	38.968
515.37	39.238
515.71	39.457
516.05	39.658
516.39	39.876
516.73	40.035
517.07	40.220
517.41	40.316
517.75	40.380
518.09	40.490
518.43	40.597
518.77	40.669
519.11	40.661
519.45	40.676
519.79	40.666
520.13	40.686
520.47	40.786
520.81	40.856
521.15	40.960
521.49	41.137
521.83	41.262
522.17	41.426
522.51	41.630
522.85	41.948
523.19	42.286
523.53	42.764
523.87	43.188
524.21	43.629
524.55	44.069
524.89	44.482
525.23	44.838
525.57	45.189
525.91	45.516
526.25	45.780
526.58	46.001
526.92	46.202
527.26	46.327
527.60	46.425
527.94	46.440
528.28	46.423
528.62	46.410
528.96	46.397
529.30	46.339
529.64	46.243
529.97	46.143
530.31	46.090
530.65	46.012
530.99	45.973
531.33	45.918
531.67	45.929
532.01	45.938
532.35	45.975
532.68	45.954
533.02	45.932
533.36	45.915
533.70	45.901
534.04	45.857
534.38	45.808
534.71	45.713
535.05	45.683
535.39	45.635
535.73	45.626
536.07	45.589
536.41	45.626
536.74	45.791
537.08	45.944
537.42	46.113
537.76	46.342
538.10	46.559
538.43	46.791
538.77	46.983
539.11	47.198
539.45	47.379
539.79	47.509
540.12	47.660
540.46	47.718
540.80	47.771
541.14	47.778
541.47	47.720
541.81	47.674
542.15	47.624
542.49	47.565
542.82	47.454
543.16	47.340
543.50	47.253
543.84	47.112
544.17	47.026
544.51	46.945
544.85	46.940
545.18	46.937
545.52	46.900
545.86	46.839
546.20	46.784
546.53	46.727
546.87	46.700
547.21	46.658
547.54	46.607
547.88	46.543
548.22	46.510
548.55	46.448
548.89	46.406
549.23	46.406
549.56	46.449
549.90	46.513
550.24	46.592
550.57	46.600
550.91	46.611
551.25	46.669
551.58	46.705
551.92	46.787
552.26	46.832
552.59	46.888
552.93	46.953
553.27	46.944
553.60	46.912
553.94	46.892
554.27	46.964
554.61	47.041
554.95	47.083
555.28	47.139
555.62	47.168
555.95	47.268
556.29	47.293
556.63	47.355
556.96	47.454
557.30	47.555
557.63	47.672
557.97	47.737
558.31	47.804
558.64	47.929
558.98	48.039
559.31	48.137
559.65	48.202
559.98	48.263
560.32	48.321
560.65	48.438
560.99	48.553
561.33	48.621
561.66	48.791
562.00	48.920
562.33	48.973
562.67	49.076
563.00	49.227
563.34	49.361
563.67	49.531
564.01	49.698
564.34	49.800
564.68	49.905
565.01	50.028
565.35	50.080
565.68	50.130
566.02	50.265
566.35	50.319
566.69	50.310
567.02	50.363
567.36	50.426
567.69	50.465
568.03	50.538
568.36	50.647
568.69	50.727
569.03	50.794
569.36	50.911
569.70	51.001
570.03	51.118
570.37	51.240
570.70	51.332
571.04	51.424
571.37	51.515
571.70	51.596
572.04	51.680
572.37	51.737
572.71	51.862
573.04	51.917
573.37	51.957
573.71	52.040
574.04	52.092
574.38	52.165
574.71	52.188
575.04	52.206
575.38	52.191
575.71	52.197
576.05	52.216
576.38	52.164
576.71	52.108
577.05	52.125
577.38	52.084
577.71	52.047
578.05	52.015
578.38	51.970
578.71	51.986
579.05	52.066
579.38	52.061
579.71	52.123
580.05	52.189
580.38	52.298
580.71	52.296
581.05	52.309
581.38	52.348
581.71	52.384
582.05	52.491
582.38	52.537
582.71	52.559
583.04	52.598
583.38	52.651
583.71	52.689
584.04	52.756
584.38	52.860
584.71	52.998
585.04	53.151
585.37	53.248
585.71	53.359
586.04	53.458
586.37	53.547
586.70	53.686
587.04	53.707
587.37	53.817
587.70	53.952
588.03	54.087
588.37	54.132
588.70	54.195
589.03	54.254
589.36	54.265
589.69	54.345
590.03	54.436
590.36	54.475
590.69	54.593
591.02	54.701
591.35	54.793
591.69	54.821
592.02	54.951
592.35	55.022
592.68	55.147
593.01	55.321
593.35	55.424
593.68	55.587
594.01	55.664
594.34	55.778
594.67	55.807
595.00	55.799
595.34	55.910
595.67	55.997
596.00	56.077
596.33	56.087
596.66	56.095
596.99	56.111
597.32	56.059
597.65	56.120
597.99	56.141
598.32	56.169
598.65	56.208
598.98	56.235
599.31	56.227
599.64	56.267
599.97	56.409
600.30	56.548
600.63	56.633
600.96	56.754
601.30	56.818
601.63	56.910
601.96	57.001
602.29	57.112
602.62	57.167
602.95	57.229
603.28	57.312
603.61	57.372
603.94	57.434
604.27	57.441
604.60	57.467
604.93	57.590
605.26	57.551
605.59	57.631
605.92	57.683
606.25	57.714
606.58	57.739
606.91	57.749
607.24	57.744
607.57	57.695
607.90	57.766
608.23	57.750
608.56	57.737
608.89	57.824
609.22	57.755
609.55	57.737
609.88	57.756
610.21	57.746
610.54	57.739
610.87	57.626
611.20	57.578
611.53	57.494
611.86	57.479
612.19	57.395
612.52	57.329
612.85	57.339
613.18	57.345
613.51	57.312
613.84	57.317
614.17	57.327
614.49	57.408
614.82	57.427
615.15	57.403
615.48	57.403
615.81	57.417
616.14	57.421
616.47	57.415
616.80	57.394
617.13	57.392
617.46	57.493
617.78	57.458
618.11	57.478
618.44	57.464
618.77	57.596
619.10	57.619
619.43	57.566
619.76	57.679
620.09	57.657
620.41	57.683
620.74	57.691
621.07	57.656
621.40	57.798
621.73	57.900
622.06	57.953
622.38	57.928
622.71	58.034
623.04	58.152
623.37	58.242
623.70	58.450
624.02	58.532
624.35	58.609
624.68	58.700
625.01	58.741
625.34	58.748
625.66	58.777
625.99	58.834
626.32	58.814
626.65	58.864
626.98	58.829
627.30	58.752
627.63	58.693
627.96	58.684
628.29	58.631
628.61	58.497
628.94	58.404
629.27	58.487
629.60	58.452
629.92	58.439
630.25	58.420
630.58	58.396
630.91	58.373
631.23	58.425
631.56	58.430
631.89	58.407
632.21	58.463
632.54	58.533
632.87	58.499
633.19	58.503
633.52	58.552
633.85	58.516
634.18	58.514
634.50	58.495
634.83	58.526
635.16	58.473
635.48	58.505
635.81	58.403
636.14	58.353
636.46	58.315
636.79	58.398
637.11	58.408
637.44	58.476
637.77	58.412
638.09	58.506
638.42	58.333
638.75	58.285
639.07	58.276
639.40	58.376
639.73	58.372
640.05	58.392
640.38	58.313
640.70	58.283
641.03	58.174
641.36	58.167
641.68	58.164
642.01	58.269
642.33	58.388
642.66	58.376
642.98	58.376
643.31	58.383
643.64	58.354
643.96	58.341
644.29	58.333
644.61	58.365
644.94	58.391
645.26	58.371
645.59	58.319
645.91	58.258
646.24	58.104
646.56	58.117
646.89	58.135
647.22	58.144
647.54	58.169
647.87	58.138
648.19	58.189
648.52	58.201
648.84	58.165
649.17	58.253
649.49	58.273
649.82	58.414
650.14	58.415
650.47	58.487
650.79	58.492
651.11	58.449
651.44	58.524
651.76	58.497
652.09	58.511
652.41	58.544
652.74	58.491
653.06	58.551
653.39	58.527
653.71	58.566
654.04	58.602
654.36	58.676
654.68	58.850
655.01	58.864
655.33	58.930
655.66	58.968
655.98	58.937
656.30	59.007
656.63	59.116
656.95	59.192
657.28	59.236
657.60	59.174
657.92	59.168
658.25	59.097
658.57	59.065
658.90	58.998
659.22	58.909
659.54	58.913
659.87	58.814
660.19	58.615
660.51	58.457
660.84	58.312
661.16	58.214
661.48	58.127
661.81	58.055
662.13	57.931
662.45	57.846
662.78	57.768
663.10	57.622
663.42	57.607
663.75	57.560
664.07	57.553
664.39	57.509
664.72	57.501
665.04	57.466
665.36	57.443
665.69	57.456
666.01	57.422
666.33	57.478
666.65	57.559
666.98	57.586
667.30	57.595
667.62	57.619
667.94	57.602
668.27	57.579
668.59	57.451
668.91	57.403
669.23	57.266
669.56	57.127
669.88	57.140
670.20	57.014
670.52	56.785
670.85	56.671
671.17	56.527
671.49	56.422
671.81	56.442
672.13	56.431
672.46	56.437
672.78	56.455
673.10	56.569
673.42	56.510
673.74	56.521
674.07	56.580
674.39	56.711
674.71	56.898
675.03	56.918
675.35	56.870
675.67	57.008
676.00	56.842
676.32	56.864
676.64	56.794
676.96	56.815
677.28	56.869
677.60	56.955
677.92	56.854
678.25	56.787
678.57	56.814
678.89	56.791
679.21	56.718
679.53	56.765
679.85	56.780
680.17	56.741
680.49	56.639
680.81	56.453
681.13	56.358
681.46	56.286
681.78	56.214
682.10	56.086
682.42	55.998
682.74	55.827
683.06	55.720
683.38	55.597
683.70	55.633
684.02	55.590
684.34	55.641
684.66	55.623
684.98	55.567
685.30	55.572
685.62	55.571
685.94	55.536
686.26	55.545
686.58	55.597
686.90	55.610
687.22	55.536
687.54	55.497
687.86	55.446
688.18	55.409
688.50	55.350
688.82	55.186
689.14	55.141
689.46	55.114
689.78	55.098
690.10	55.025
690.42	54.901
690.74	54.903
691.06	54.847
691.38	54.882
691.70	54.773
692.02	54.834
692.34	54.854
692.66	54.759
692.98	54.744
693.30	54.733
693.62	54.692
693.94	54.719
694.26	54.771
694.57	54.749
694.89	54.750
695.21	54.908
695.53	54.989
695.85	55.090
696.17	55.255
696.49	55.335
696.81	55.308
697.13	55.347
697.44	55.459
697.76	55.382
698.08	55.452
698.40	55.254
698.72	55.129
699.04	54.943
699.36	54.844
699.67	54.707
699.99	54.557
700.31	54.359
700.63	54.183
700.95	53.818
701.27	53.547
701.58	53.212
701.90	53.208
702.22	52.917
702.54	52.826
702.86	52.523
703.17	52.199
703.49	51.917
703.81	51.819
704.13	51.712
704.45	51.546
704.76	51.624
705.08	51.587
705.40	51.557
705.72	51.520
706.03	51.337
706.35	51.249
706.67	51.313
706.99	51.278
707.30	51.256
707.62	51.183
707.94	51.337
708.26	51.204
708.57	51.127
708.89	51.048
709.21	50.931
709.53	50.991
709.84	50.962
710.16	50.888
710.48	50.890
710.79	50.861
711.11	50.897
711.43	50.763
711.74	50.776
712.06	50.830
712.38	50.820
712.69	50.995
713.01	50.935
713.33	51.040
713.64	50.972
713.96	50.872
714.28	50.941
714.59	50.790
714.91	50.838
715.23	50.766
715.54	50.698
715.86	50.612
716.17	50.442
716.49	50.405
716.81	50.240
717.12	50.188
717.44	50.221
717.76	49.947
718.07	49.743
718.39	49.458
718.70	49.444
719.02	49.346
719.33	49.315
719.65	49.156
719.97	48.953
720.28	48.918
720.60	48.817
720.91	48.705
721.23	48.875
721.54	48.818
721.86	48.882
722.17	48.504
722.49	48.371
722.81	48.154
723.12	48.161
723.44	48.185
723.75	48.093
724.07	48.099
724.38	47.830
724.70	47.718
725.01	47.844
725.33	47.847
725.64	47.974
725.96	48.066
726.27	48.102
726.59	48.023
726.90	47.906
727.22	47.850
727.53	47.849
727.84	47.910
728.16	47.774
728.47	47.595
728.79	47.464
729.10	47.472
729.42	47.114
729.73	46.911
730.05	46.870
730.36	46.951
730.67	46.860
730.99	46.790
731.30	46.742
731.62	46.638
731.93	46.704
732.24	46.732
732.56	46.510
732.87	46.550
733.19	46.558
733.50	46.445
733.81	46.354
734.13	46.271
734.44	46.103
734.76	46.118
735.07	45.958
735.38	45.735
735.70	45.537
736.01	45.638
736.32	45.716
736.64	45.636
736.95	45.573
737.26	45.357
737.58	45.261
737.89	45.090
738.20	44.809
738.52	44.854
738.83	44.914
739.14	44.754
739.45	44.426
739.77	44.187
740.08	43.904
740.39	43.776
740.71	43.742
741.02	43.513
741.33	43.502
741.64	43.491
741.96	43.274
742.27	42.964
742.58	42.770
742.90	42.829
743.21	42.850
743.52	42.976
743.83	42.817
744.14	42.648
744.46	42.528
744.77	42.565
745.08	42.522
745.39	42.364
745.71	42.274
746.02	42.399
746.33	42.090
746.64	41.776
746.95	41.568
747.27	41.648
747.58	41.535
747.89	41.605
748.20	41.297
748.51	41.352
748.82	41.359
749.14	41.388
749.45	41.020
749.76	41.138
750.07	41.078
750.38	40.989
750.69	40.929
751.01	41.043
751.32	41.076
751.63	41.090
751.94	40.701
752.25	40.475
752.56	40.475
752.87	40.980
753.18	41.004
753.49	41.105
753.81	41.028
754.12	41.032
754.43	40.758
754.74	40.614
755.05	40.668
755.36	40.896
755.67	41.223
755.98	41.173
756.29	40.973
756.60	40.932
756.91	41.138
757.22	41.412
757.53	41.480
757.84	41.979
758.15	42.399
758.46	42.743
758.77	42.690
759.09	42.587
759.40	42.579
759.71	42.662
760.02	42.692
760.33	42.708
760.64	42.755
760.95	42.696
761.26	42.565
761.57	42.376
761.88	42.045
762.18	42.033
762.49	42.003
762.80	41.987
763.11	41.878
763.42	41.845
763.73	41.764
764.04	41.598
764.35	41.449
764.66	41.102
764.97	40.925
765.28	40.885
765.59	40.650
765.90	40.472
766.21	40.262
766.52	39.770
766.83	39.311
767.14	38.764
767.44	38.434
767.75	38.044
768.06	38.009
768.37	37.604
768.68	37.022
768.99	36.764
769.30	36.490
769.61	36.233
769.91	36.206
770.22	36.249
770.53	36.196
770.84	36.138
771.15	35.962
771.46	35.799
771.77	35.754
772.07	35.964
772.38	36.031
772.69	35.791
773.00	35.956
773.31	35.986
773.61	36.005
773.92	36.000
774.23	35.582
774.54	35.819
774.85	35.516
775.15	35.514
775.46	35.817
775.77	35.788
776.08	35.841
776.39	35.889
776.69	35.897
777.00	35.693
777.31	35.813
777.62	35.902
777.92	36.030
778.23	36.154
778.54	36.291
778.85	35.832
779.15	35.960
779.46	36.106
779.77	35.613
780.07	35.424
780.38	35.102
780.69	34.839
781.00	35.040
781.30	34.551
781.61	34.478
781.92	34.166
782.22	33.963
782.53	33.784
782.84	33.413
783.14	33.591
783.45	33.814
783.76	34.362
784.06	34.456
784.37	34.480
784.68	34.643
784.98	34.689
785.29	34.857
785.60	35.531
785.90	35.605
786.21	35.872
786.51	35.842
786.82	36.029
787.13	35.723
787.43	35.868
787.74	36.048
788.04	36.329
788.35	36.506
788.66	36.604
788.96	36.018
789.27	35.762
789.57	35.909
789.88	35.925
790.19	35.515
790.49	35.473
790.80	34.939
791.10	34.477
791.41	33.868
791.71	33.766
792.02	33.507
792.32	33.744
792.63	33.906
792.93	33.734
793.24	33.786
793.54	34.065
793.85	34.225
794.15	34.235
794.46	34.380
794.76	34.547
795.07	34.459
795.37	34.238
795.68	34.091
795.98	33.831
796.29	33.840
796.59	33.707
796.90	33.543
797.20	33.507
797.51	33.957
797.81	34.086
798.12	34.367
798.42	34.098
798.72	34.464
799.03	34.494
799.33	34.524
799.64	34.537
799.94	34.721
800.25	34.743
800.55	34.386
800.85	34.226
801.16	34.083
801.46	34.143
801.77	34.464
802.07	34.311
802.37	34.121
802.68	34.479
802.98	33.926
803.28	33.843
803.59	33.952
803.89	34.287
804.20	34.270
804.50	34.087
804.80	33.577
805.11	33.488
805.41	33.386
805.71	32.956
806.02	32.994
806.32	33.518
806.62	32.854
806.93	32.794
807.23	32.737
807.53	32.428
807.83	32.663
808.14	32.939
808.44	33.378
808.74	33.532
809.05	34.253
809.35	33.561
809.65	32.977
809.95	33.633
810.26	33.904
810.56	34.121
810.86	34.242
811.16	33.537
811.47	34.128
811.77	33.522
812.07	33.642
812.37	33.944
812.68	34.056
812.98	34.202
813.28	34.797
813.58	34.301
813.88	33.731
814.19	33.861
814.49	34.262
814.79	33.380
815.09	33.532
815.39	33.445
815.70	33.146
816.00	33.801
816.30	34.423
816.60	33.849
816.90	34.349
817.20	34.997
817.50	35.468
817.81	35.577
818.11	35.946
818.41	36.176
818.71	36.352
819.01	36.468
819.31	36.574
819.61	36.589
819.92	36.955
820.22	37.010
820.52	37.140
820.82	37.176
821.12	37.293
821.42	37.369
821.72	37.412
822.02	37.519
822.32	37.571
822.62	37.599
822.92	37.688
823.22	37.550
823.52	37.595
823.83	37.514
824.13	37.479
824.43	37.508
824.73	37.429
825.03	37.412
825.33	37.124
825.63	37.059
825.93	36.859
826.23	36.631
826.53	36.628
826.83	36.397
827.13	36.280
827.43	36.262
827.73	36.053
828.03	36.132
828.33	35.958
828.63	36.057
828.93	35.952
829.23	35.935
829.53	35.613
829.83	35.404
830.13	35.471
830.42	35.188
830.72	35.301
831.02	35.282
831.32	35.166
831.62	35.012
831.92	35.137
832.22	35.135
832.52	35.202
832.82	35.496
833.12	35.242
833.42	34.993
833.72	35.184
834.01	34.737
834.31	34.687
834.61	34.559
834.91	34.586
835.21	34.456
835.51	34.386
835.81	34.295
836.11	33.948
836.40	34.295
836.70	33.616
837.00	33.065
837.30	33.140
837.60	33.033
837.90	32.276
838.19	32.249
838.49	31.963
838.79	31.906
839.09	31.773
839.39	31.947
839.68	31.537
839.98	32.284
840.28	32.467
840.58	32.297
840.88	32.456
841.17	32.754
841.47	32.782
841.77	33.157
842.07	32.250
842.36	32.157
842.66	32.097
842.96	31.820
843.26	30.877
843.55	29.733
843.85	28.470
844.15	27.314
844.45	26.203
844.74	24.864
845.04	23.394
845.34	22.732
845.63	23.336
845.93	23.977
846.23	23.469
846.53	23.766
846.82	22.875
847.12	23.857
847.42	23.848
847.71	24.400
848.01	23.002
848.31	23.948
848.60	26.090
848.90	25.328
849.19	24.554
849.49	25.498
849.79	25.865
850.08	27.867
850.38	26.995
850.68	27.904
850.97	28.934
851.27	30.579
851.56	29.863
851.86	28.756
852.16	28.347
852.45	29.146
852.75	27.004
853.04	27.581
853.34	27.593
853.64	29.135
853.93	28.417
854.23	26.185
854.52	25.848
854.82	26.163
855.11	26.711
855.41	26.985
855.70	24.852
856.00	27.289
856.30	26.515
856.59	26.391
856.89	24.141
857.18	24.524
857.48	25.093
857.77	24.863
858.07	25.356
858.36	24.528
858.66	23.855
858.95	25.175
859.25	23.480
859.54	25.548
859.84	24.107
860.13	25.101
860.42	24.413
860.72	25.001
861.01	27.717
861.31	26.014
861.60	25.585
861.90	26.513
862.19	28.054
862.49	30.103
862.78	29.844
863.07	31.522
863.37	32.789
863.66	31.896
863.96	31.859
864.25	30.757
864.54	32.811
864.84	34.144
865.13	32.965
865.43	31.646
865.72	28.659
866.01	39.509
866.31	33.172
866.60	17.743
866.89	27.249
>>>>>End Spectral Data<<<<<
