OOIBase32 Version 2.0.0.6 Data File
++++++++++++++++++++++++++++++++++++
Date: 01-23-2012, 22:19:10
User: Valued Ocean Optics Customer
Spectrometer Serial Number: USB2E2917
Spectrometer Channel: Master
Integration Time (msec): 5
Spectra Averaged: 10
Boxcar Smoothing: 5
Correct for Electrical Dark: Enabled
Time Normalized: Disabled
Dual-beam Reference: Disabled
Reference Channel: Master
Temperature: Not acquired
Spectrometer Type: S2000
ADC Type: USB2000
Number of Pixels in File: 2048
Graph Title: 
>>>>>Begin Spectral Data<<<<<
180.30	0.000
180.67	0.000
181.03	208.318
181.40	-262.760
181.77	-300.600
182.14	-24.684
182.51	12.348
182.88	1724.100
183.25	289.165
183.62	-43.178
183.99	26.787
184.36	-9.956
184.73	-62.116
185.10	39.708
185.46	149.881
185.83	-6.342
186.20	140.957
186.57	722.125
186.94	138.922
187.31	241.358
187.68	-13.425
188.05	-63.852
188.42	-15.893
188.78	-1.704
189.15	16.163
189.52	42.335
189.89	38.007
190.26	17.693
190.63	30.947
191.00	29.157
191.37	30.726
191.73	36.844
192.10	37.574
192.47	32.613
192.84	33.232
193.21	33.258
193.58	26.662
193.94	27.574
194.31	24.500
194.68	26.192
195.05	19.915
195.42	-1.505
195.79	-7.512
196.15	-1.443
196.52	-2.586
196.89	-12.654
197.26	-13.371
197.63	-16.217
198.00	-15.045
198.36	-4.027
198.73	-7.752
199.10	-0.847
199.47	12.455
199.84	11.092
200.20	15.543
200.57	-1.205
200.94	-1.213
201.31	-3.423
201.68	9.940
202.04	7.530
202.41	12.134
202.78	10.779
203.15	20.428
203.51	10.888
203.88	22.756
204.25	17.393
204.62	26.237
204.98	45.447
205.35	55.396
205.72	56.468
206.09	37.404
206.46	17.460
206.82	20.495
207.19	2.793
207.56	4.708
207.92	-11.304
208.29	-11.182
208.66	-6.923
209.03	-10.576
209.39	-22.333
209.76	-28.267
210.13	-8.507
210.50	2.546
210.86	14.659
211.23	33.810
211.60	33.632
211.96	39.444
212.33	40.176
212.70	38.401
213.07	28.107
213.43	31.700
213.80	32.041
214.17	20.669
214.53	22.019
214.90	14.524
215.27	6.202
215.63	2.203
216.00	-4.814
216.37	-0.282
216.74	-6.676
217.10	-0.883
217.47	-10.874
217.84	-17.455
218.20	2.294
218.57	2.777
218.94	-5.800
219.30	-11.397
219.67	-11.490
220.04	-7.105
220.40	-14.467
220.77	-24.712
221.13	-27.885
221.50	-26.194
221.87	-18.804
222.23	-21.964
222.60	-19.226
222.97	-13.159
223.33	-8.770
223.70	-4.893
224.07	-1.318
224.43	1.126
224.80	6.297
225.16	6.024
225.53	7.029
225.90	3.906
226.26	1.585
226.63	2.188
226.99	3.493
227.36	2.401
227.73	1.726
228.09	-1.975
228.46	-1.054
228.82	-0.263
229.19	-0.753
229.56	-3.585
229.92	-2.192
230.29	-0.583
230.65	-0.885
231.02	-1.427
231.38	-1.012
231.75	-0.606
232.12	2.510
232.48	3.537
232.85	1.575
233.21	3.714
233.58	5.033
233.94	5.415
234.31	1.911
234.68	-0.168
235.04	-2.101
235.41	-2.131
235.77	-1.173
236.14	-0.325
236.50	-1.852
236.87	0.270
237.23	-0.993
237.60	0.162
237.96	-0.155
238.33	2.684
238.69	3.363
239.06	3.979
239.42	4.207
239.79	4.107
240.15	4.039
240.52	4.297
240.88	4.023
241.25	4.665
241.61	4.253
241.98	4.595
242.34	3.812
242.71	4.086
243.07	4.189
243.44	4.283
243.80	4.121
244.17	4.100
244.53	4.060
244.90	3.654
245.26	3.676
245.63	3.608
245.99	3.474
246.36	3.587
246.72	3.046
247.09	2.871
247.45	2.554
247.81	2.321
248.18	1.920
248.54	1.786
248.91	1.923
249.27	1.866
249.64	1.620
250.00	1.892
250.36	1.943
250.73	2.443
251.09	2.831
251.46	3.000
251.82	3.352
252.19	3.712
252.55	3.438
252.91	3.135
253.28	2.338
253.64	2.964
254.01	2.478
254.37	2.210
254.73	2.652
255.10	2.344
255.46	2.316
255.83	1.940
256.19	2.096
256.55	2.090
256.92	2.461
257.28	2.845
257.65	2.942
258.01	3.243
258.37	3.191
258.74	3.310
259.10	3.388
259.46	3.536
259.83	3.838
260.19	3.679
260.55	3.759
260.92	3.595
261.28	3.253
261.64	2.935
262.01	2.575
262.37	2.734
262.73	2.167
263.10	2.143
263.46	2.132
263.82	2.060
264.19	1.975
264.55	2.226
264.91	2.271
265.28	2.653
265.64	2.809
266.00	2.921
266.37	2.800
266.73	3.068
267.09	3.046
267.46	3.310
267.82	3.584
268.18	3.926
268.54	3.722
268.91	3.827
269.27	3.835
269.63	3.937
270.00	3.824
270.36	3.763
270.72	3.638
271.08	3.422
271.45	3.097
271.81	2.905
272.17	2.853
272.53	2.852
272.90	2.633
273.26	2.397
273.62	2.206
273.98	2.121
274.35	2.148
274.71	2.366
275.07	2.645
275.43	2.796
275.80	2.890
276.16	2.916
276.52	2.912
276.88	3.015
277.25	2.966
277.61	3.111
277.97	3.077
278.33	2.811
278.69	2.494
279.06	2.739
279.42	2.406
279.78	2.347
280.14	2.274
280.50	2.204
280.87	2.361
281.23	2.612
281.59	2.471
281.95	2.513
282.31	2.804
282.68	2.957
283.04	2.782
283.40	2.908
283.76	2.680
284.12	2.756
284.48	2.972
284.85	2.820
285.21	2.622
285.57	2.834
285.93	2.923
286.29	2.783
286.65	2.749
287.02	2.772
287.38	2.765
287.74	3.102
288.10	3.050
288.46	3.009
288.82	3.039
289.18	3.082
289.54	2.788
289.91	2.699
290.27	2.769
290.63	2.709
290.99	2.399
291.35	2.438
291.71	2.464
292.07	2.386
292.43	2.434
292.79	2.567
293.16	2.567
293.52	2.732
293.88	2.868
294.24	3.050
294.60	3.079
294.96	3.256
295.32	3.266
295.68	2.889
296.04	2.997
296.40	2.827
296.76	2.829
297.12	2.843
297.49	2.886
297.85	2.955
298.21	2.875
298.57	2.935
298.93	2.941
299.29	3.029
299.65	3.245
300.01	3.225
300.37	3.249
300.73	3.503
301.09	3.711
301.45	3.769
301.81	3.773
302.17	3.754
302.53	3.785
302.89	3.814
303.25	3.808
303.61	4.015
303.97	4.045
304.33	4.126
304.69	3.836
305.05	3.826
305.41	3.747
305.77	3.703
306.13	3.677
306.49	3.812
306.85	3.924
307.21	3.984
307.57	3.892
307.93	3.876
308.29	3.964
308.65	3.958
309.01	3.866
309.37	3.960
309.73	4.021
310.09	4.149
310.45	4.039
310.81	3.984
311.17	3.828
311.53	3.854
311.89	4.027
312.25	4.006
312.61	4.048
312.96	4.105
313.32	4.129
313.68	3.932
314.04	3.819
314.40	3.712
314.76	3.708
315.12	3.879
315.48	3.970
315.84	3.795
316.20	3.937
316.56	4.068
316.92	4.164
317.27	4.027
317.63	4.172
317.99	4.230
318.35	4.387
318.71	4.436
319.07	4.451
319.43	4.495
319.79	4.647
320.15	4.651
320.50	4.662
320.86	4.720
321.22	5.014
321.58	5.131
321.94	5.197
322.30	5.306
322.66	5.482
323.01	5.603
323.37	5.654
323.73	5.696
324.09	5.842
324.45	5.986
324.81	6.117
325.17	6.024
325.52	6.203
325.88	6.330
326.24	6.515
326.60	6.742
326.96	6.996
327.31	7.119
327.67	7.365
328.03	7.512
328.39	7.613
328.75	7.691
329.11	7.988
329.46	8.084
329.82	8.338
330.18	8.468
330.54	8.508
330.90	8.591
331.25	8.765
331.61	8.890
331.97	9.088
332.33	9.303
332.68	9.399
333.04	9.442
333.40	9.611
333.76	9.698
334.11	9.736
334.47	9.784
334.83	9.727
335.19	9.810
335.54	9.899
335.90	9.939
336.26	10.040
336.62	10.170
336.97	10.239
337.33	10.190
337.69	10.186
338.05	10.224
338.40	10.348
338.76	10.504
339.12	10.480
339.48	10.537
339.83	10.474
340.19	10.375
340.55	10.400
340.90	10.385
341.26	10.280
341.62	10.210
341.97	10.322
342.33	10.356
342.69	10.287
343.04	10.336
343.40	10.172
343.76	10.176
344.12	10.275
344.47	10.244
344.83	10.261
345.19	10.375
345.54	10.489
345.90	10.509
346.26	10.417
346.61	10.536
346.97	10.561
347.32	10.665
347.68	10.643
348.04	10.609
348.39	10.711
348.75	10.831
349.11	10.846
349.46	10.809
349.82	10.721
350.18	10.773
350.53	10.746
350.89	10.802
351.24	10.815
351.60	10.902
351.96	10.969
352.31	10.989
352.67	10.896
353.02	10.968
353.38	11.012
353.74	11.021
354.09	10.967
354.45	11.068
354.80	11.034
355.16	11.068
355.52	11.047
355.87	11.011
356.23	10.967
356.58	11.083
356.94	11.090
357.29	11.067
357.65	11.069
358.00	11.210
358.36	11.098
358.72	11.188
359.07	11.261
359.43	11.307
359.78	11.329
360.14	11.337
360.49	11.333
360.85	11.310
361.20	11.403
361.56	11.481
361.91	11.512
362.27	11.589
362.62	11.523
362.98	11.511
363.33	11.536
363.69	11.592
364.04	11.632
364.40	11.686
364.75	11.741
365.11	11.773
365.46	11.825
365.82	11.884
366.17	11.933
366.53	12.097
366.88	12.121
367.24	12.144
367.59	12.195
367.95	12.242
368.30	12.275
368.66	12.345
369.01	12.388
369.37	12.447
369.72	12.441
370.08	12.497
370.43	12.505
370.78	12.529
371.14	12.570
371.49	12.643
371.85	12.723
372.20	12.804
372.56	12.920
372.91	13.006
373.26	13.034
373.62	13.020
373.97	13.088
374.33	13.133
374.68	13.230
375.03	13.318
375.39	13.321
375.74	13.346
376.10	13.373
376.45	13.431
376.80	13.502
377.16	13.599
377.51	13.769
377.87	13.808
378.22	13.921
378.57	13.998
378.93	14.087
379.28	14.280
379.63	14.410
379.99	14.504
380.34	14.595
380.70	14.708
381.05	14.840
381.40	14.909
381.76	15.026
382.11	15.068
382.46	15.169
382.82	15.266
383.17	15.310
383.52	15.411
383.88	15.508
384.23	15.652
384.58	15.725
384.94	15.796
385.29	15.935
385.64	16.065
385.99	16.252
386.35	16.388
386.70	16.500
387.05	16.584
387.41	16.705
387.76	16.844
388.11	16.858
388.47	16.970
388.82	17.057
389.17	17.112
389.52	17.168
389.88	17.243
390.23	17.272
390.58	17.357
390.93	17.428
391.29	17.507
391.64	17.579
391.99	17.711
392.34	17.796
392.70	17.893
393.05	17.998
393.40	18.117
393.75	18.196
394.11	18.351
394.46	18.470
394.81	18.633
395.16	18.758
395.52	18.862
395.87	18.928
396.22	19.002
396.57	19.115
396.92	19.227
397.28	19.336
397.63	19.392
397.98	19.486
398.33	19.599
398.68	19.661
399.04	19.737
399.39	19.818
399.74	19.935
400.09	20.056
400.44	20.135
400.80	20.175
401.15	20.275
401.50	20.391
401.85	20.462
402.20	20.535
402.55	20.643
402.90	20.727
403.26	20.871
403.61	20.921
403.96	21.011
404.31	21.067
404.66	21.168
405.01	21.232
405.36	21.311
405.72	21.403
406.07	21.506
406.42	21.566
406.77	21.645
407.12	21.671
407.47	21.797
407.82	21.866
408.17	21.943
408.53	22.050
408.88	22.145
409.23	22.219
409.58	22.319
409.93	22.372
410.28	22.459
410.63	22.538
410.98	22.628
411.33	22.643
411.68	22.696
412.03	22.800
412.38	22.834
412.73	22.815
413.09	22.857
413.44	22.823
413.79	22.826
414.14	22.824
414.49	22.816
414.84	22.810
415.19	22.850
415.54	22.847
415.89	22.820
416.24	22.794
416.59	22.829
416.94	22.812
417.29	22.832
417.64	22.840
417.99	22.849
418.34	22.855
418.69	22.863
419.04	22.879
419.39	22.907
419.74	22.926
420.09	22.971
420.44	22.992
420.79	23.019
421.14	23.050
421.49	23.083
421.84	23.147
422.19	23.206
422.54	23.284
422.89	23.329
423.24	23.385
423.59	23.431
423.94	23.482
424.29	23.564
424.64	23.642
424.99	23.753
425.34	23.861
425.68	23.934
426.03	24.056
426.38	24.141
426.73	24.260
427.08	24.356
427.43	24.486
427.78	24.533
428.13	24.630
428.48	24.695
428.83	24.744
429.18	24.724
429.53	24.757
429.87	24.763
430.22	24.742
430.57	24.744
430.92	24.748
431.27	24.759
431.62	24.832
431.97	24.836
432.32	24.873
432.67	24.894
433.01	24.986
433.36	25.016
433.71	25.056
434.06	25.088
434.41	25.141
434.76	25.205
435.11	25.290
435.45	25.312
435.80	25.314
436.15	25.327
436.50	25.321
436.85	25.322
437.20	25.347
437.54	25.381
437.89	25.437
438.24	25.447
438.59	25.430
438.94	25.428
439.29	25.434
439.63	25.455
439.98	25.517
440.33	25.549
440.68	25.564
441.03	25.572
441.37	25.524
441.72	25.525
442.07	25.518
442.42	25.522
442.76	25.483
443.11	25.456
443.46	25.429
443.81	25.384
444.16	25.374
444.50	25.360
444.85	25.352
445.20	25.386
445.55	25.367
445.89	25.411
446.24	25.419
446.59	25.461
446.94	25.526
447.28	25.596
447.63	25.671
447.98	25.711
448.32	25.780
448.67	25.843
449.02	25.893
449.37	25.966
449.71	25.969
450.06	26.032
450.41	26.067
450.75	26.080
451.10	26.084
451.45	26.089
451.79	26.121
452.14	26.139
452.49	26.149
452.84	26.172
453.18	26.190
453.53	26.223
453.88	26.267
454.22	26.274
454.57	26.273
454.92	26.328
455.26	26.353
455.61	26.382
455.95	26.394
456.30	26.422
456.65	26.423
456.99	26.426
457.34	26.438
457.69	26.441
458.03	26.471
458.38	26.522
458.73	26.523
459.07	26.555
459.42	26.584
459.76	26.613
460.11	26.651
460.46	26.743
460.80	26.855
461.15	26.937
461.49	27.032
461.84	27.111
462.19	27.205
462.53	27.321
462.88	27.418
463.22	27.484
463.57	27.590
463.91	27.662
464.26	27.705
464.61	27.733
464.95	27.764
465.30	27.830
465.64	27.905
465.99	27.954
466.33	27.984
466.68	28.035
467.02	28.112
467.37	28.144
467.71	28.214
468.06	28.250
468.41	28.296
468.75	28.344
469.10	28.356
469.44	28.366
469.79	28.411
470.13	28.468
470.48	28.464
470.82	28.497
471.17	28.540
471.51	28.562
471.86	28.586
472.20	28.614
472.55	28.670
472.89	28.680
473.23	28.693
473.58	28.685
473.92	28.682
474.27	28.716
474.61	28.706
474.96	28.698
475.30	28.677
475.65	28.678
475.99	28.681
476.34	28.680
476.68	28.707
477.02	28.718
477.37	28.735
477.71	28.732
478.06	28.749
478.40	28.804
478.75	28.958
479.09	29.115
479.43	29.296
479.78	29.553
480.12	29.863
480.47	30.209
480.81	30.593
481.15	30.983
481.50	31.402
481.84	31.930
482.19	32.484
482.53	32.918
482.87	33.139
483.22	33.085
483.56	32.758
483.90	32.259
484.25	31.652
484.59	31.084
484.94	30.659
485.28	30.259
485.62	29.707
485.97	29.118
486.31	28.596
486.65	28.311
487.00	28.288
487.34	28.503
487.68	28.848
488.03	29.260
488.37	29.598
488.71	29.737
489.06	29.778
489.40	29.832
489.74	29.849
490.09	29.894
490.43	29.887
490.77	29.907
491.11	29.919
491.46	29.952
491.80	29.997
492.14	30.039
492.49	30.079
492.83	30.137
493.17	30.159
493.51	30.220
493.86	30.291
494.20	30.407
494.54	30.529
494.88	30.652
495.23	30.733
495.57	30.828
495.91	30.902
496.25	30.962
496.60	31.023
496.94	31.137
497.28	31.235
497.62	31.331
497.97	31.420
498.31	31.486
498.65	31.564
498.99	31.682
499.33	31.773
499.68	31.889
500.02	32.023
500.36	32.101
500.70	32.189
501.04	32.317
501.39	32.413
501.73	32.526
502.07	32.640
502.41	32.733
502.75	32.849
503.09	32.969
503.44	33.078
503.78	33.177
504.12	33.322
504.46	33.433
504.80	33.509
505.14	33.592
505.49	33.694
505.83	33.788
506.17	33.911
506.51	33.957
506.85	34.036
507.19	34.120
507.53	34.205
507.87	34.302
508.22	34.371
508.56	34.456
508.90	34.567
509.24	34.696
509.58	34.793
509.92	34.869
510.26	34.995
510.60	35.097
510.94	35.193
511.28	35.290
511.63	35.413
511.97	35.531
512.31	35.667
512.65	35.766
512.99	35.829
513.33	35.939
513.67	36.078
514.01	36.177
514.35	36.265
514.69	36.364
515.03	36.453
515.37	36.501
515.71	36.588
516.05	36.628
516.39	36.710
516.73	36.757
517.07	36.807
517.41	36.863
517.75	36.912
518.09	36.992
518.43	37.050
518.77	37.121
519.11	37.222
519.45	37.301
519.79	37.409
520.13	37.494
520.47	37.622
520.81	37.729
521.15	37.784
521.49	37.871
521.83	37.910
522.17	37.994
522.51	38.042
522.85	38.066
523.19	38.168
523.53	38.308
523.87	38.482
524.21	38.654
524.55	38.816
524.89	38.992
525.23	39.140
525.57	39.287
525.91	39.410
526.25	39.543
526.58	39.672
526.92	39.729
527.26	39.756
527.60	39.739
527.94	39.690
528.28	39.645
528.62	39.577
528.96	39.512
529.30	39.457
529.64	39.390
529.97	39.314
530.31	39.226
530.65	39.195
530.99	39.168
531.33	39.183
531.67	39.217
532.01	39.264
532.35	39.303
532.68	39.326
533.02	39.329
533.36	39.355
533.70	39.352
534.04	39.408
534.38	39.410
534.71	39.466
535.05	39.488
535.39	39.516
535.73	39.536
536.07	39.584
536.41	39.682
536.74	39.779
537.08	39.855
537.42	39.975
537.76	40.019
538.10	40.105
538.43	40.156
538.77	40.212
539.11	40.270
539.45	40.331
539.79	40.367
540.12	40.380
540.46	40.360
540.80	40.357
541.14	40.323
541.47	40.301
541.81	40.309
542.15	40.302
542.49	40.276
542.82	40.250
543.16	40.229
543.50	40.231
543.84	40.258
544.17	40.337
544.51	40.410
544.85	40.496
545.18	40.554
545.52	40.586
545.86	40.640
546.20	40.730
546.53	40.815
546.87	40.906
547.21	41.018
547.54	41.105
547.88	41.181
548.22	41.236
548.55	41.316
548.89	41.414
549.23	41.511
549.56	41.580
549.90	41.625
550.24	41.696
550.57	41.742
550.91	41.735
551.25	41.757
551.58	41.807
551.92	41.871
552.26	41.903
552.59	41.944
552.93	41.975
553.27	42.046
553.60	42.141
553.94	42.200
554.27	42.271
554.61	42.361
554.95	42.413
555.28	42.457
555.62	42.492
555.95	42.549
556.29	42.639
556.63	42.684
556.96	42.685
557.30	42.715
557.63	42.774
557.97	42.778
558.31	42.785
558.64	42.832
558.98	42.849
559.31	42.895
559.65	42.893
559.98	42.909
560.32	42.921
560.65	42.906
560.99	42.896
561.33	42.891
561.66	42.934
562.00	42.972
562.33	42.991
562.67	43.034
563.00	43.037
563.34	43.075
563.67	43.065
564.01	43.094
564.34	43.113
564.68	43.125
565.01	43.106
565.35	43.111
565.68	43.133
566.02	43.184
566.35	43.214
566.69	43.236
567.02	43.275
567.36	43.321
567.69	43.368
568.03	43.454
568.36	43.473
568.69	43.513
569.03	43.540
569.36	43.560
569.70	43.549
570.03	43.546
570.37	43.552
570.70	43.570
571.04	43.581
571.37	43.569
571.70	43.588
572.04	43.627
572.37	43.711
572.71	43.749
573.04	43.793
573.37	43.844
573.71	43.910
574.04	43.975
574.38	44.033
574.71	44.106
575.04	44.234
575.38	44.263
575.71	44.366
576.05	44.431
576.38	44.528
576.71	44.611
577.05	44.674
577.38	44.748
577.71	44.827
578.05	44.898
578.38	44.961
578.71	45.000
579.05	45.090
579.38	45.143
579.71	45.158
580.05	45.176
580.38	45.179
580.71	45.245
581.05	45.295
581.38	45.303
581.71	45.358
582.05	45.410
582.38	45.423
582.71	45.476
583.04	45.483
583.38	45.521
583.71	45.524
584.04	45.567
584.38	45.548
584.71	45.533
585.04	45.566
585.37	45.544
585.71	45.527
586.04	45.549
586.37	45.543
586.70	45.505
587.04	45.491
587.37	45.503
587.70	45.509
588.03	45.544
588.37	45.579
588.70	45.577
589.03	45.601
589.36	45.596
589.69	45.597
590.03	45.565
590.36	45.581
590.69	45.596
591.02	45.636
591.35	45.640
591.69	45.584
592.02	45.515
592.35	45.462
592.68	45.430
593.01	45.387
593.35	45.335
593.68	45.325
594.01	45.292
594.34	45.233
594.67	45.169
595.00	45.142
595.34	45.110
595.67	45.082
596.00	45.076
596.33	45.027
596.66	45.013
596.99	45.031
597.32	45.092
597.65	45.142
597.99	45.165
598.32	45.173
598.65	45.202
598.98	45.247
599.31	45.314
599.64	45.367
599.97	45.413
600.30	45.397
600.63	45.365
600.96	45.256
601.30	45.163
601.63	45.143
601.96	45.108
602.29	45.052
602.62	44.985
602.95	44.940
603.28	44.858
603.61	44.818
603.94	44.844
604.27	44.818
604.60	44.823
604.93	44.868
605.26	44.867
605.59	44.845
605.92	44.825
606.25	44.863
606.58	44.870
606.91	44.902
607.24	44.878
607.57	44.784
607.90	44.739
608.23	44.699
608.56	44.658
608.89	44.661
609.22	44.670
609.55	44.683
609.88	44.663
610.21	44.662
610.54	44.654
610.87	44.662
611.20	44.752
611.53	44.812
611.86	44.850
612.19	44.939
612.52	44.941
612.85	44.963
613.18	45.001
613.51	44.980
613.84	44.957
614.17	44.948
614.49	44.987
614.82	44.985
615.15	44.968
615.48	44.964
615.81	44.931
616.14	44.860
616.47	44.873
616.80	44.836
617.13	44.835
617.46	44.800
617.78	44.741
618.11	44.659
618.44	44.604
618.77	44.552
619.10	44.505
619.43	44.440
619.76	44.424
620.09	44.397
620.41	44.381
620.74	44.327
621.07	44.333
621.40	44.345
621.73	44.317
622.06	44.283
622.38	44.199
622.71	44.156
623.04	44.026
623.37	43.949
623.70	43.855
624.02	43.704
624.35	43.673
624.68	43.509
625.01	43.431
625.34	43.366
625.66	43.280
625.99	43.238
626.32	43.139
626.65	43.191
626.98	43.190
627.30	43.178
627.63	43.202
627.96	43.206
628.29	43.312
628.61	43.275
628.94	43.240
629.27	43.166
629.60	43.184
629.92	43.157
630.25	43.096
630.58	43.052
630.91	42.992
631.23	42.925
631.56	42.879
631.89	42.783
632.21	42.763
632.54	42.701
632.87	42.720
633.19	42.604
633.52	42.590
633.85	42.548
634.18	42.482
634.50	42.431
634.83	42.407
635.16	42.340
635.48	42.294
635.81	42.218
636.14	42.293
636.46	42.276
636.79	42.319
637.11	42.327
637.44	42.294
637.77	42.287
638.09	42.251
638.42	42.227
638.75	42.194
639.07	42.165
639.40	42.173
639.73	42.112
640.05	42.113
640.38	42.059
640.70	41.956
641.03	41.913
641.36	41.864
641.68	41.846
642.01	41.806
642.33	41.778
642.66	41.684
642.98	41.636
643.31	41.503
643.64	41.373
643.96	41.285
644.29	41.283
644.61	41.196
644.94	41.178
645.26	41.034
645.59	40.924
645.91	40.841
646.24	40.822
646.56	40.783
646.89	40.678
647.22	40.719
647.54	40.678
647.87	40.573
648.19	40.548
648.52	40.463
648.84	40.451
649.17	40.434
649.49	40.438
649.82	40.374
650.14	40.266
650.47	40.251
650.79	40.084
651.11	40.023
651.44	40.020
651.76	39.965
652.09	39.843
652.41	39.791
652.74	39.697
653.06	39.539
653.39	39.494
653.71	39.433
654.04	39.389
654.36	39.428
654.68	39.317
655.01	39.197
655.33	39.066
655.66	39.006
655.98	38.935
656.30	38.874
656.63	38.771
656.95	38.681
657.28	38.586
657.60	38.496
657.92	38.352
658.25	38.286
658.57	38.205
658.90	38.184
659.22	38.128
659.54	38.085
659.87	37.955
660.19	37.934
660.51	37.951
660.84	37.945
661.16	37.934
661.48	37.837
661.81	37.833
662.13	37.807
662.45	37.754
662.78	37.736
663.10	37.651
663.42	37.714
663.75	37.640
664.07	37.544
664.39	37.411
664.72	37.299
665.04	37.219
665.36	37.109
665.69	37.049
666.01	36.925
666.33	36.879
666.65	36.752
666.98	36.712
667.30	36.642
667.62	36.518
667.94	36.540
668.27	36.522
668.59	36.530
668.91	36.517
669.23	36.392
669.56	36.376
669.88	36.244
670.20	36.237
670.52	36.117
670.85	36.105
671.17	36.021
671.49	35.918
671.81	35.860
672.13	35.777
672.46	35.712
672.78	35.707
673.10	35.666
673.42	35.681
673.74	35.712
674.07	35.614
674.39	35.543
674.71	35.417
675.03	35.374
675.35	35.202
675.67	35.165
676.00	35.077
676.32	34.959
676.64	34.829
676.96	34.719
677.28	34.617
677.60	34.566
677.92	34.463
678.25	34.432
678.57	34.301
678.89	34.256
679.21	34.177
679.53	34.151
679.85	34.155
680.17	34.116
680.49	34.024
680.81	33.924
681.13	33.912
681.46	33.888
681.78	33.924
682.10	33.950
682.42	33.952
682.74	33.861
683.06	33.767
683.38	33.707
683.70	33.696
684.02	33.674
684.34	33.620
684.66	33.524
684.98	33.443
685.30	33.411
685.62	33.271
685.94	33.219
686.26	33.161
686.58	33.149
686.90	33.103
687.22	33.032
687.54	32.956
687.86	32.933
688.18	32.880
688.50	32.811
688.82	32.612
689.14	32.641
689.46	32.579
689.78	32.586
690.10	32.541
690.42	32.416
690.74	32.345
691.06	32.329
691.38	32.228
691.70	32.199
692.02	32.175
692.34	32.159
692.66	32.040
692.98	31.907
693.30	31.792
693.62	31.641
693.94	31.504
694.26	31.481
694.57	31.369
694.89	31.244
695.21	31.198
695.53	31.088
695.85	31.089
696.17	30.988
696.49	30.912
696.81	30.848
697.13	30.748
697.44	30.788
697.76	30.605
698.08	30.533
698.40	30.527
698.72	30.380
699.04	30.286
699.36	30.129
699.67	30.058
699.99	30.050
700.31	29.954
700.63	29.928
700.95	29.852
701.27	29.868
701.58	29.814
701.90	29.694
702.22	29.689
702.54	29.720
702.86	29.653
703.17	29.574
703.49	29.445
703.81	29.348
704.13	29.339
704.45	29.335
704.76	29.270
705.08	29.231
705.40	29.204
705.72	29.115
706.03	28.999
706.35	29.008
706.67	29.061
706.99	29.019
707.30	29.026
707.62	28.990
707.94	28.842
708.26	28.762
708.57	28.679
708.89	28.543
709.21	28.517
709.53	28.501
709.84	28.475
710.16	28.354
710.48	28.374
710.79	28.301
711.11	28.224
711.43	28.094
711.74	28.050
712.06	28.038
712.38	28.132
712.69	28.100
713.01	28.094
713.33	27.970
713.64	28.031
713.96	27.958
714.28	28.039
714.59	27.958
714.91	28.014
715.23	27.969
715.54	27.958
715.86	27.867
716.17	27.865
716.49	27.815
716.81	27.877
717.12	27.701
717.44	27.690
717.76	27.607
718.07	27.606
718.39	27.553
718.70	27.514
719.02	27.327
719.33	27.292
719.65	27.204
719.97	27.224
720.28	27.167
720.60	27.203
720.91	27.053
721.23	26.952
721.54	26.916
721.86	26.968
722.17	27.020
722.49	27.066
722.81	27.016
723.12	26.902
723.44	26.746
723.75	26.691
724.07	26.559
724.38	26.644
724.70	26.602
725.01	26.654
725.33	26.570
725.64	26.509
725.96	26.500
726.27	26.404
726.59	26.429
726.90	26.465
727.22	26.381
727.53	26.508
727.84	26.395
728.16	26.274
728.47	26.184
728.79	26.126
729.10	26.084
729.42	26.008
729.73	25.958
730.05	25.944
730.36	25.848
730.67	25.846
730.99	25.677
731.30	25.626
731.62	25.477
731.93	25.444
732.24	25.340
732.56	25.229
732.87	25.125
733.19	25.061
733.50	24.961
733.81	24.918
734.13	24.840
734.44	24.799
734.76	24.786
735.07	24.844
735.38	24.776
735.70	24.738
736.01	24.746
736.32	24.807
736.64	25.039
736.95	24.896
737.26	24.785
737.58	24.635
737.89	24.707
738.20	24.520
738.52	24.444
738.83	24.162
739.14	24.091
739.45	23.967
739.77	23.984
740.08	23.722
740.39	23.655
740.71	23.716
741.02	23.881
741.33	23.820
741.64	23.812
741.96	23.746
742.27	23.824
742.58	23.810
742.90	23.763
743.21	23.516
743.52	23.474
743.83	23.651
744.14	23.490
744.46	23.140
744.77	23.005
745.08	23.074
745.39	23.118
745.71	23.177
746.02	23.176
746.33	23.213
746.64	23.308
746.95	23.252
747.27	23.154
747.58	23.152
747.89	23.378
748.20	23.282
748.51	23.208
748.82	23.314
749.14	23.247
749.45	23.275
749.76	23.193
750.07	23.065
750.38	23.070
750.69	23.129
751.01	23.073
751.32	22.871
751.63	22.781
751.94	22.761
752.25	22.698
752.56	22.710
752.87	22.492
753.18	22.438
753.49	22.482
753.81	22.271
754.12	22.250
754.43	22.378
754.74	22.555
755.05	22.721
755.36	22.753
755.67	22.773
755.98	22.789
756.29	23.014
756.60	23.224
756.91	23.396
757.22	23.659
757.53	23.699
757.84	23.773
758.15	23.864
758.46	24.219
758.77	24.388
759.09	24.564
759.40	24.727
759.71	24.975
760.02	25.062
760.33	25.075
760.64	25.098
760.95	25.124
761.26	25.108
761.57	25.093
761.88	24.911
762.18	24.795
762.49	24.641
762.80	24.493
763.11	24.139
763.42	23.952
763.73	23.768
764.04	23.563
764.35	23.518
764.66	23.211
764.97	22.963
765.28	22.877
765.59	22.867
765.90	22.784
766.21	22.802
766.52	22.714
766.83	22.682
767.14	22.678
767.44	22.652
767.75	22.350
768.06	22.384
768.37	22.430
768.68	22.163
768.99	21.774
769.30	21.498
769.61	20.956
769.91	20.907
770.22	20.800
770.53	20.562
770.84	20.449
771.15	20.462
771.46	20.379
771.77	20.193
772.07	20.317
772.38	20.311
772.69	20.351
773.00	20.380
773.31	20.503
773.61	20.210
773.92	20.263
774.23	20.447
774.54	20.341
774.85	20.446
775.15	20.507
775.46	20.216
775.77	20.170
776.08	20.107
776.39	20.187
776.69	20.326
777.00	20.511
777.31	20.678
777.62	20.558
777.92	20.477
778.23	20.564
778.54	20.502
778.85	20.627
779.15	20.766
779.46	21.111
779.77	21.244
780.07	21.085
780.38	21.032
780.69	20.867
781.00	20.844
781.30	20.922
781.61	20.852
781.92	20.884
782.22	20.645
782.53	20.531
782.84	20.351
783.14	20.453
783.45	20.302
783.76	20.376
784.06	20.367
784.37	20.728
784.68	20.661
784.98	20.866
785.29	21.062
785.60	21.225
785.90	21.446
786.21	21.398
786.51	21.430
786.82	21.376
787.13	21.652
787.43	21.934
787.74	21.972
788.04	22.061
788.35	21.777
788.66	21.426
788.96	21.529
789.27	21.625
789.57	21.773
789.88	21.873
790.19	22.034
790.49	21.688
790.80	21.722
791.10	21.425
791.41	21.339
791.71	21.578
792.02	22.057
792.32	21.927
792.63	22.024
792.93	21.921
793.24	21.528
793.54	21.536
793.85	21.747
794.15	21.268
794.46	21.079
794.76	21.013
795.07	20.966
795.37	20.499
795.68	20.517
795.98	20.314
796.29	20.076
796.59	20.437
796.90	20.288
797.20	20.276
797.51	20.512
797.81	20.717
798.12	20.733
798.42	20.288
798.72	20.114
799.03	20.214
799.33	19.930
799.64	20.033
799.94	19.591
800.25	19.870
800.55	19.685
800.85	19.731
801.16	19.588
801.46	19.615
801.77	19.977
802.07	20.069
802.37	19.761
802.68	19.811
802.98	19.835
803.28	20.130
803.59	19.945
803.89	19.985
804.20	20.194
804.50	20.129
804.80	19.791
805.11	19.671
805.41	19.995
805.71	20.138
806.02	20.252
806.32	20.044
806.62	20.126
806.93	20.068
807.23	20.094
807.53	19.441
807.83	19.697
808.14	20.162
808.44	20.152
808.74	20.295
809.05	20.567
809.35	20.860
809.65	21.124
809.95	20.998
810.26	21.175
810.56	21.429
810.86	21.860
811.16	21.397
811.47	21.451
811.77	21.811
812.07	21.439
812.37	21.035
812.68	20.822
812.98	21.476
813.28	21.703
813.58	21.506
813.88	21.034
814.19	20.973
814.49	21.393
814.79	21.497
815.09	21.248
815.39	21.803
815.70	22.043
816.00	21.879
816.30	21.395
816.60	21.291
816.90	21.573
817.20	21.908
817.50	22.066
817.81	22.255
818.11	22.372
818.41	22.606
818.71	22.548
819.01	22.579
819.31	22.653
819.61	22.719
819.92	22.686
820.22	22.650
820.52	22.659
820.82	22.618
821.12	22.536
821.42	22.475
821.72	22.446
822.02	22.286
822.32	22.244
822.62	22.202
822.92	22.168
823.22	22.117
823.52	22.112
823.83	22.021
824.13	22.021
824.43	22.008
824.73	21.941
825.03	21.847
825.33	21.999
825.63	22.035
825.93	22.075
826.23	22.052
826.53	21.982
826.83	21.993
827.13	21.903
827.43	21.754
827.73	21.633
828.03	21.609
828.33	21.495
828.63	21.441
828.93	21.266
829.23	21.135
829.53	20.804
829.83	21.172
830.13	20.931
830.42	20.980
830.72	21.177
831.02	21.456
831.32	21.398
831.62	21.531
831.92	21.487
832.22	21.481
832.52	21.353
832.82	21.573
833.12	21.173
833.42	21.129
833.72	21.343
834.01	21.287
834.31	21.053
834.61	21.161
834.91	21.261
835.21	21.340
835.51	21.445
835.81	21.617
836.11	21.659
836.40	21.765
836.70	22.167
837.00	21.794
837.30	21.346
837.60	21.390
837.90	21.402
838.19	20.940
838.49	20.632
838.79	20.361
839.09	20.286
839.39	20.418
839.68	20.462
839.98	19.974
840.28	19.805
840.58	19.995
840.88	20.041
841.17	19.416
841.47	19.242
841.77	19.003
842.07	18.313
842.36	17.464
842.66	15.981
842.96	16.293
843.26	16.012
843.55	15.874
843.85	15.864
844.15	15.132
844.45	15.870
844.74	16.313
845.04	16.383
845.34	17.810
845.63	17.466
845.93	18.785
846.23	18.795
846.53	18.518
846.82	17.991
847.12	17.468
847.42	16.283
847.71	14.853
848.01	14.330
848.31	15.387
848.60	14.696
848.90	14.921
849.19	14.331
849.49	13.643
849.79	13.365
850.08	15.094
850.38	16.200
850.68	17.519
850.97	18.435
851.27	18.784
851.56	17.919
851.86	17.988
852.16	19.576
852.45	21.072
852.75	21.321
853.04	21.304
853.34	21.746
853.64	20.785
853.93	22.153
854.23	22.419
854.52	22.220
854.82	22.340
855.11	21.616
855.41	19.631
855.70	18.341
856.00	19.031
856.30	19.395
856.59	17.243
856.89	18.067
857.18	17.288
857.48	17.793
857.77	16.290
858.07	16.769
858.36	16.661
858.66	17.409
858.95	17.278
859.25	17.299
859.54	17.886
859.84	18.301
860.13	17.807
860.42	19.193
860.72	18.750
861.01	19.948
861.31	19.126
861.60	19.884
861.90	18.932
862.19	17.661
862.49	16.073
862.78	17.418
863.07	17.717
863.37	16.914
863.66	15.168
863.96	14.827
864.25	14.836
864.54	15.734
864.84	15.109
865.13	15.689
865.43	16.822
865.72	16.837
866.01	23.644
866.31	13.666
866.60	7.790
866.89	23.606
>>>>>End Spectral Data<<<<<
