OOIBase32 Version 2.0.0.6 Data File
++++++++++++++++++++++++++++++++++++
Date: 01-23-2012, 22:18:56
User: Valued Ocean Optics Customer
Spectrometer Serial Number: USB2E2917
Spectrometer Channel: Master
Integration Time (msec): 5
Spectra Averaged: 10
Boxcar Smoothing: 5
Correct for Electrical Dark: Enabled
Time Normalized: Disabled
Dual-beam Reference: Disabled
Reference Channel: Master
Temperature: Not acquired
Spectrometer Type: S2000
ADC Type: USB2000
Number of Pixels in File: 2048
Graph Title: 
>>>>>Begin Spectral Data<<<<<
180.30	0.000
180.67	0.000
181.03	261.994
181.40	-131.115
181.77	12198.467
182.14	-60.950
182.51	55.487
182.88	-3988.189
183.25	-137.232
183.62	76.808
183.99	51.908
184.36	56.522
184.73	136.604
185.10	-138.386
185.46	-38.432
185.83	199.596
186.20	0.367
186.57	385.016
186.94	34.213
187.31	81.381
187.68	-203.865
188.05	20.754
188.42	24.814
188.78	28.153
189.15	20.463
189.52	11.527
189.89	6.361
190.26	-21.141
190.63	4.688
191.00	1.787
191.37	6.389
191.73	7.476
192.10	4.104
192.47	-3.493
192.84	1.208
193.21	5.761
193.58	12.165
193.94	14.872
194.31	11.095
194.68	7.776
195.05	6.366
195.42	0.899
195.79	-4.352
196.15	4.351
196.52	16.937
196.89	10.706
197.26	4.494
197.63	0.982
198.00	-8.164
198.36	1.543
198.73	-3.832
199.10	-4.868
199.47	4.937
199.84	4.252
200.20	3.693
200.57	-30.510
200.94	-28.220
201.31	-21.011
201.68	-3.705
202.04	2.931
202.41	7.055
202.78	3.808
203.15	11.612
203.51	-20.455
203.88	-25.445
204.25	-29.260
204.62	-7.439
204.98	3.585
205.35	4.887
205.72	6.428
206.09	1.589
206.46	1.925
206.82	-10.669
207.19	-19.463
207.56	-5.572
207.92	-5.488
208.29	-5.535
208.66	-4.758
209.03	-12.005
209.39	-29.452
209.76	-39.478
210.13	-36.688
210.50	-41.243
210.86	-23.232
211.23	-8.092
211.60	-3.118
211.96	13.723
212.33	5.577
212.70	9.805
213.07	6.436
213.43	21.913
213.80	27.416
214.17	18.755
214.53	15.593
214.90	18.701
215.27	12.609
215.63	5.671
216.00	-12.447
216.37	-6.675
216.74	-21.671
217.10	-21.084
217.47	-33.840
217.84	-46.982
218.20	-25.648
218.57	-21.544
218.94	-21.982
219.30	-15.146
219.67	-12.043
220.04	-8.728
220.40	-10.800
220.77	-0.380
221.13	2.253
221.50	-2.800
221.87	4.040
222.23	-1.797
222.60	1.005
222.97	-6.920
223.33	-17.061
223.70	-11.696
224.07	-2.769
224.43	0.893
224.80	1.463
225.16	1.724
225.53	4.159
225.90	0.292
226.26	-1.467
226.63	-3.808
226.99	-1.345
227.36	0.746
227.73	-0.642
228.09	-4.401
228.46	-4.273
228.82	-3.585
229.19	-4.479
229.56	-6.807
229.92	-4.441
230.29	-1.529
230.65	0.572
231.02	-0.600
231.38	-2.083
231.75	-1.372
232.12	0.799
232.48	1.194
232.85	0.812
233.21	3.162
233.58	4.822
233.94	6.114
234.31	4.178
234.68	3.034
235.04	2.819
235.41	3.574
235.77	3.241
236.14	3.612
236.50	1.680
236.87	1.538
237.23	-0.480
237.60	-1.001
237.96	-1.844
238.33	0.015
238.69	0.985
239.06	1.038
239.42	1.531
239.79	1.936
240.15	1.633
240.52	1.992
240.88	2.170
241.25	3.036
241.61	3.435
241.98	4.194
242.34	3.567
242.71	4.058
243.07	4.542
243.44	4.699
243.80	4.801
244.17	5.184
244.53	5.386
244.90	5.011
245.26	5.063
245.63	4.844
245.99	4.681
246.36	4.847
246.72	4.437
247.09	4.310
247.45	4.251
247.81	3.891
248.18	3.608
248.54	3.307
248.91	3.259
249.27	3.290
249.64	3.500
250.00	3.491
250.36	3.678
250.73	3.595
251.09	3.829
251.46	3.569
251.82	4.018
252.19	3.952
252.55	4.155
252.91	4.539
253.28	4.059
253.64	4.040
254.01	3.999
254.37	3.957
254.73	4.773
255.10	4.791
255.46	4.600
255.83	4.223
256.19	4.215
256.55	4.142
256.92	3.974
257.28	3.902
257.65	4.102
258.01	4.207
258.37	4.115
258.74	3.988
259.10	3.816
259.46	3.870
259.83	3.964
260.19	3.918
260.55	3.859
260.92	3.888
261.28	3.936
261.64	3.540
262.01	3.429
262.37	3.206
262.73	2.804
263.10	3.281
263.46	3.907
263.82	4.002
264.19	3.851
264.55	4.038
264.91	4.053
265.28	4.426
265.64	4.774
266.00	4.472
266.37	4.400
266.73	4.651
267.09	4.255
267.46	3.872
267.82	3.730
268.18	3.881
268.54	3.707
268.91	3.881
269.27	3.712
269.63	3.562
270.00	3.613
270.36	3.723
270.72	3.471
271.08	3.281
271.45	3.160
271.81	3.420
272.17	3.358
272.53	3.284
272.90	3.188
273.26	3.026
273.62	2.996
273.98	3.062
274.35	3.037
274.71	3.277
275.07	3.509
275.43	3.691
275.80	3.589
276.16	3.951
276.52	3.960
276.88	3.633
277.25	3.678
277.61	3.715
277.97	3.577
278.33	3.369
278.69	3.161
279.06	3.508
279.42	3.226
279.78	3.077
280.14	2.807
280.50	2.979
280.87	3.309
281.23	3.539
281.59	3.536
281.95	3.464
282.31	3.669
282.68	3.848
283.04	3.556
283.40	3.730
283.76	3.701
284.12	3.798
284.48	3.825
284.85	3.758
285.21	3.635
285.57	3.683
285.93	3.693
286.29	3.681
286.65	3.682
287.02	3.765
287.38	3.885
287.74	3.915
288.10	3.790
288.46	3.563
288.82	3.377
289.18	3.344
289.54	3.153
289.91	3.426
290.27	3.505
290.63	3.461
290.99	3.355
291.35	3.324
291.71	3.519
292.07	3.469
292.43	3.723
292.79	4.005
293.16	4.015
293.52	4.118
293.88	4.040
294.24	3.909
294.60	3.845
294.96	3.876
295.32	3.841
295.68	3.602
296.04	3.834
296.40	3.873
296.76	3.870
297.12	3.962
297.49	4.056
297.85	4.103
298.21	4.225
298.57	4.272
298.93	4.309
299.29	4.355
299.65	4.421
300.01	4.338
300.37	4.103
300.73	4.328
301.09	4.216
301.45	4.244
301.81	4.295
302.17	4.206
302.53	4.300
302.89	4.202
303.25	4.006
303.61	4.170
303.97	4.110
304.33	4.231
304.69	3.974
305.05	4.106
305.41	3.834
305.77	3.679
306.13	3.661
306.49	3.729
306.85	3.880
307.21	4.110
307.57	4.022
307.93	4.042
308.29	4.094
308.65	4.040
309.01	3.972
309.37	4.302
309.73	4.403
310.09	4.510
310.45	4.443
310.81	4.463
311.17	4.345
311.53	4.345
311.89	4.464
312.25	4.437
312.61	4.538
312.96	4.549
313.32	4.438
313.68	4.332
314.04	4.278
314.40	4.208
314.76	4.185
315.12	4.243
315.48	4.321
315.84	4.131
316.20	4.128
316.56	4.115
316.92	4.047
317.27	4.006
317.63	4.091
317.99	4.073
318.35	4.043
318.71	3.945
319.07	3.963
319.43	4.024
319.79	4.154
320.15	4.117
320.50	3.953
320.86	4.026
321.22	4.079
321.58	4.101
321.94	4.062
322.30	4.175
322.66	4.345
323.01	4.274
323.37	4.105
323.73	4.042
324.09	4.139
324.45	4.346
324.81	4.335
325.17	4.318
325.52	4.335
325.88	4.362
326.24	4.396
326.60	4.419
326.96	4.581
327.31	4.692
327.67	4.886
328.03	4.931
328.39	4.873
328.75	5.007
329.11	5.105
329.46	5.132
329.82	5.109
330.18	5.040
330.54	4.973
330.90	4.921
331.25	4.929
331.61	4.824
331.97	4.840
332.33	4.923
332.68	4.853
333.04	4.763
333.40	4.745
333.76	4.844
334.11	4.839
334.47	4.810
334.83	4.773
335.19	4.881
335.54	4.966
335.90	4.963
336.26	4.955
336.62	5.015
336.97	4.993
337.33	4.960
337.69	4.960
338.05	5.000
338.40	4.993
338.76	5.007
339.12	4.902
339.48	4.907
339.83	4.844
340.19	4.805
340.55	4.707
340.90	4.740
341.26	4.735
341.62	4.721
341.97	4.816
342.33	4.912
342.69	4.934
343.04	5.044
343.40	4.967
343.76	5.070
344.12	5.229
344.47	5.358
344.83	5.293
345.19	5.337
345.54	5.321
345.90	5.318
346.26	5.209
346.61	5.284
346.97	5.189
347.32	5.235
347.68	5.159
348.04	5.047
348.39	4.957
348.75	5.074
349.11	5.075
349.46	5.116
349.82	5.104
350.18	5.242
350.53	5.180
350.89	5.220
351.24	5.240
351.60	5.248
351.96	5.235
352.31	5.312
352.67	5.273
353.02	5.325
353.38	5.252
353.74	5.171
354.09	5.130
354.45	5.174
354.80	5.156
355.16	5.165
355.52	5.183
355.87	5.159
356.23	5.126
356.58	5.219
356.94	5.234
357.29	5.306
357.65	5.376
358.00	5.377
358.36	5.353
358.72	5.436
359.07	5.427
359.43	5.443
359.78	5.487
360.14	5.500
360.49	5.466
360.85	5.446
361.20	5.491
361.56	5.511
361.91	5.527
362.27	5.529
362.62	5.456
362.98	5.397
363.33	5.404
363.69	5.367
364.04	5.366
364.40	5.369
364.75	5.355
365.11	5.394
365.46	5.382
365.82	5.348
366.17	5.325
366.53	5.385
366.88	5.464
367.24	5.497
367.59	5.565
367.95	5.618
368.30	5.614
368.66	5.657
369.01	5.660
369.37	5.668
369.72	5.659
370.08	5.720
370.43	5.767
370.78	5.737
371.14	5.683
371.49	5.695
371.85	5.672
372.20	5.706
372.56	5.701
372.91	5.631
373.26	5.640
373.62	5.690
373.97	5.715
374.33	5.686
374.68	5.699
375.03	5.791
375.39	5.748
375.74	5.735
376.10	5.742
376.45	5.770
376.80	5.827
377.16	5.830
377.51	5.846
377.87	5.795
378.22	5.811
378.57	5.902
378.93	5.897
379.28	5.981
379.63	6.033
379.99	6.075
380.34	6.110
380.70	6.130
381.05	6.191
381.40	6.222
381.76	6.283
382.11	6.289
382.46	6.231
382.82	6.249
383.17	6.264
383.52	6.259
383.88	6.239
384.23	6.259
384.58	6.282
384.94	6.276
385.29	6.331
385.64	6.384
385.99	6.441
386.35	6.528
386.70	6.546
387.05	6.509
387.41	6.531
387.76	6.523
388.11	6.477
388.47	6.491
388.82	6.482
389.17	6.454
389.52	6.403
389.88	6.379
390.23	6.376
390.58	6.396
390.93	6.406
391.29	6.430
391.64	6.499
391.99	6.531
392.34	6.520
392.70	6.522
393.05	6.519
393.40	6.576
393.75	6.602
394.11	6.547
394.46	6.509
394.81	6.517
395.16	6.476
395.52	6.472
395.87	6.434
396.22	6.421
396.57	6.436
396.92	6.439
397.28	6.428
397.63	6.384
397.98	6.420
398.33	6.412
398.68	6.445
399.04	6.473
399.39	6.443
399.74	6.473
400.09	6.453
400.44	6.469
400.80	6.446
401.15	6.404
401.50	6.404
401.85	6.431
402.20	6.445
402.55	6.442
402.90	6.407
403.26	6.409
403.61	6.421
403.96	6.451
404.31	6.438
404.66	6.489
405.01	6.524
405.36	6.568
405.72	6.504
406.07	6.523
406.42	6.513
406.77	6.544
407.12	6.540
407.47	6.545
407.82	6.553
408.17	6.522
408.53	6.498
408.88	6.489
409.23	6.475
409.58	6.493
409.93	6.467
410.28	6.454
410.63	6.422
410.98	6.440
411.33	6.434
411.68	6.425
412.03	6.443
412.38	6.440
412.73	6.441
413.09	6.437
413.44	6.415
413.79	6.419
414.14	6.403
414.49	6.410
414.84	6.370
415.19	6.355
415.54	6.338
415.89	6.335
416.24	6.312
416.59	6.285
416.94	6.256
417.29	6.253
417.64	6.236
417.99	6.234
418.34	6.217
418.69	6.188
419.04	6.159
419.39	6.150
419.74	6.135
420.09	6.127
420.44	6.123
420.79	6.108
421.14	6.095
421.49	6.090
421.84	6.088
422.19	6.090
422.54	6.113
422.89	6.099
423.24	6.080
423.59	6.069
423.94	6.068
424.29	6.059
424.64	6.045
424.99	6.061
425.34	6.041
425.68	6.039
426.03	6.040
426.38	6.017
426.73	6.070
427.08	6.060
427.43	6.050
427.78	6.037
428.13	6.034
428.48	6.058
428.83	6.048
429.18	6.071
429.53	6.067
429.87	6.065
430.22	6.070
430.57	6.049
430.92	6.063
431.27	6.073
431.62	6.073
431.97	6.068
432.32	6.070
432.67	6.055
433.01	6.043
433.36	6.049
433.71	6.052
434.06	6.058
434.41	6.077
434.76	6.088
435.11	6.078
435.45	6.082
435.80	6.080
436.15	6.078
436.50	6.095
436.85	6.092
437.20	6.079
437.54	6.081
437.89	6.073
438.24	6.057
438.59	6.041
438.94	6.041
439.29	6.033
439.63	6.031
439.98	6.032
440.33	6.016
440.68	5.998
441.03	5.992
441.37	5.954
441.72	5.931
442.07	5.899
442.42	5.899
442.76	5.889
443.11	5.871
443.46	5.870
443.81	5.844
444.16	5.828
444.50	5.807
444.85	5.799
445.20	5.794
445.55	5.793
445.89	5.788
446.24	5.762
446.59	5.747
446.94	5.749
447.28	5.739
447.63	5.729
447.98	5.717
448.32	5.730
448.67	5.712
449.02	5.716
449.37	5.705
449.71	5.696
450.06	5.686
450.41	5.692
450.75	5.680
451.10	5.654
451.45	5.670
451.79	5.675
452.14	5.668
452.49	5.668
452.84	5.659
453.18	5.640
453.53	5.647
453.88	5.668
454.22	5.658
454.57	5.649
454.92	5.664
455.26	5.666
455.61	5.662
455.95	5.679
456.30	5.697
456.65	5.699
456.99	5.727
457.34	5.747
457.69	5.767
458.03	5.772
458.38	5.791
458.73	5.791
459.07	5.799
459.42	5.819
459.76	5.814
460.11	5.809
460.46	5.833
460.80	5.862
461.15	5.861
461.49	5.848
461.84	5.866
462.19	5.884
462.53	5.919
462.88	5.936
463.22	5.962
463.57	6.005
463.91	6.042
464.26	6.069
464.61	6.069
464.95	6.108
465.30	6.146
465.64	6.178
465.99	6.191
466.33	6.204
466.68	6.231
467.02	6.257
467.37	6.275
467.71	6.288
468.06	6.289
468.41	6.308
468.75	6.318
469.10	6.313
469.44	6.321
469.79	6.334
470.13	6.359
470.48	6.333
470.82	6.312
471.17	6.322
471.51	6.303
471.86	6.303
472.20	6.302
472.55	6.307
472.89	6.331
473.23	6.333
473.58	6.327
473.92	6.298
474.27	6.314
474.61	6.317
474.96	6.297
475.30	6.286
475.65	6.272
475.99	6.252
476.34	6.234
476.68	6.218
477.02	6.193
477.37	6.184
477.71	6.201
478.06	6.194
478.40	6.232
478.75	6.268
479.09	6.343
479.43	6.413
479.78	6.493
480.12	6.579
480.47	6.677
480.81	6.796
481.15	6.910
481.50	7.014
481.84	7.148
482.19	7.284
482.53	7.407
482.87	7.462
483.22	7.461
483.56	7.402
483.90	7.291
484.25	7.150
484.59	7.017
484.94	6.925
485.28	6.837
485.62	6.718
485.97	6.578
486.31	6.458
486.65	6.397
487.00	6.390
487.34	6.440
487.68	6.537
488.03	6.648
488.37	6.740
488.71	6.781
489.06	6.804
489.40	6.825
489.74	6.849
490.09	6.868
490.43	6.883
490.77	6.907
491.11	6.929
491.46	6.948
491.80	6.979
492.14	6.998
492.49	7.028
492.83	7.061
493.17	7.107
493.51	7.162
493.86	7.228
494.20	7.294
494.54	7.358
494.88	7.425
495.23	7.503
495.57	7.578
495.91	7.660
496.25	7.730
496.60	7.811
496.94	7.910
497.28	8.004
497.62	8.102
497.97	8.222
498.31	8.352
498.65	8.484
498.99	8.635
499.33	8.795
499.68	8.958
500.02	9.123
500.36	9.300
500.70	9.478
501.04	9.657
501.39	9.860
501.73	10.060
502.07	10.274
502.41	10.487
502.75	10.673
503.09	10.898
503.44	11.133
503.78	11.373
504.12	11.634
504.46	11.901
504.80	12.167
505.14	12.426
505.49	12.684
505.83	12.942
506.17	13.216
506.51	13.498
506.85	13.778
507.19	14.063
507.53	14.374
507.87	14.676
508.22	14.954
508.56	15.277
508.90	15.597
509.24	15.934
509.58	16.285
509.92	16.648
510.26	17.017
510.60	17.394
510.94	17.767
511.28	18.142
511.63	18.533
511.97	18.949
512.31	19.357
512.65	19.779
512.99	20.215
513.33	20.663
513.67	21.132
514.01	21.618
514.35	22.061
514.69	22.498
515.03	22.924
515.37	23.328
515.71	23.715
516.05	24.068
516.39	24.399
516.73	24.733
517.07	25.073
517.41	25.389
517.75	25.691
518.09	26.023
518.43	26.357
518.77	26.704
519.11	27.073
519.45	27.445
519.79	27.849
520.13	28.293
520.47	28.749
520.81	29.177
521.15	29.600
521.49	30.012
521.83	30.385
522.17	30.783
522.51	31.156
522.85	31.523
523.19	31.978
523.53	32.442
523.87	32.960
524.21	33.408
524.55	33.822
524.89	34.203
525.23	34.586
525.57	34.911
525.91	35.234
526.25	35.547
526.58	35.812
526.92	36.032
527.26	36.206
527.60	36.324
527.94	36.454
528.28	36.598
528.62	36.717
528.96	36.826
529.30	36.973
529.64	37.054
529.97	37.140
530.31	37.240
530.65	37.365
530.99	37.543
531.33	37.722
531.67	37.914
532.01	38.080
532.35	38.245
532.68	38.379
533.02	38.503
533.36	38.673
533.70	38.809
534.04	38.956
534.38	39.084
534.71	39.230
535.05	39.376
535.39	39.485
535.73	39.624
536.07	39.776
536.41	39.986
536.74	40.169
537.08	40.315
537.42	40.469
537.76	40.632
538.10	40.783
538.43	40.924
538.77	41.056
539.11	41.177
539.45	41.281
539.79	41.353
540.12	41.393
540.46	41.428
540.80	41.463
541.14	41.474
541.47	41.490
541.81	41.528
542.15	41.555
542.49	41.566
542.82	41.585
543.16	41.605
543.50	41.667
543.84	41.715
544.17	41.779
544.51	41.854
544.85	41.964
545.18	42.026
545.52	42.103
545.86	42.173
546.20	42.233
546.53	42.303
546.87	42.393
547.21	42.465
547.54	42.535
547.88	42.633
548.22	42.714
548.55	42.798
548.89	42.890
549.23	42.916
549.56	42.928
549.90	42.990
550.24	43.027
550.57	43.021
550.91	43.044
551.25	43.071
551.58	43.083
551.92	43.109
552.26	43.109
552.59	43.159
552.93	43.230
553.27	43.317
553.60	43.335
553.94	43.386
554.27	43.411
554.61	43.452
554.95	43.504
555.28	43.522
555.62	43.554
555.95	43.615
556.29	43.631
556.63	43.654
556.96	43.588
557.30	43.653
557.63	43.660
557.97	43.703
558.31	43.686
558.64	43.685
558.98	43.676
559.31	43.667
559.65	43.618
559.98	43.614
560.32	43.590
560.65	43.562
560.99	43.483
561.33	43.465
561.66	43.415
562.00	43.441
562.33	43.423
562.67	43.400
563.00	43.368
563.34	43.372
563.67	43.368
564.01	43.311
564.34	43.275
564.68	43.278
565.01	43.243
565.35	43.236
565.68	43.204
566.02	43.170
566.35	43.175
566.69	43.163
567.02	43.158
567.36	43.093
567.69	43.073
568.03	43.086
568.36	43.050
568.69	43.017
569.03	43.020
569.36	42.983
569.70	42.970
570.03	42.923
570.37	42.884
570.70	42.854
571.04	42.852
571.37	42.843
571.70	42.860
572.04	42.828
572.37	42.817
572.71	42.745
573.04	42.710
573.37	42.719
573.71	42.725
574.04	42.741
574.38	42.736
574.71	42.754
575.04	42.795
575.38	42.737
575.71	42.769
576.05	42.803
576.38	42.858
576.71	42.885
577.05	42.860
577.38	42.861
577.71	42.835
578.05	42.813
578.38	42.769
578.71	42.721
579.05	42.756
579.38	42.742
579.71	42.727
580.05	42.687
580.38	42.706
580.71	42.693
581.05	42.656
581.38	42.658
581.71	42.640
582.05	42.650
582.38	42.619
582.71	42.623
583.04	42.576
583.38	42.539
583.71	42.514
584.04	42.428
584.38	42.401
584.71	42.381
585.04	42.306
585.37	42.271
585.71	42.222
586.04	42.147
586.37	42.029
586.70	41.972
587.04	41.880
587.37	41.835
587.70	41.776
588.03	41.735
588.37	41.648
588.70	41.627
589.03	41.559
589.36	41.510
589.69	41.462
590.03	41.399
590.36	41.327
590.69	41.327
591.02	41.264
591.35	41.223
591.69	41.115
592.02	41.047
592.35	40.943
592.68	40.839
593.01	40.733
593.35	40.681
593.68	40.608
594.01	40.546
594.34	40.432
594.67	40.347
595.00	40.251
595.34	40.132
595.67	40.079
596.00	40.043
596.33	39.989
596.66	39.939
596.99	39.900
597.32	39.891
597.65	39.857
597.99	39.865
598.32	39.846
598.65	39.851
598.98	39.845
599.31	39.793
599.64	39.711
599.97	39.690
600.30	39.590
600.63	39.453
600.96	39.318
601.30	39.232
601.63	39.102
601.96	39.003
602.29	38.928
602.62	38.860
602.95	38.796
603.28	38.722
603.61	38.655
603.94	38.647
604.27	38.620
604.60	38.616
604.93	38.611
605.26	38.581
605.59	38.533
605.92	38.486
606.25	38.462
606.58	38.413
606.91	38.384
607.24	38.329
607.57	38.254
607.90	38.227
608.23	38.179
608.56	38.091
608.89	38.067
609.22	38.044
609.55	37.987
609.88	37.951
610.21	37.956
610.54	37.989
610.87	37.984
611.20	38.041
611.53	38.034
611.86	38.031
612.19	38.044
612.52	38.020
612.85	37.999
613.18	37.967
613.51	37.915
613.84	37.873
614.17	37.772
614.49	37.710
614.82	37.605
615.15	37.509
615.48	37.462
615.81	37.418
616.14	37.349
616.47	37.296
616.80	37.246
617.13	37.202
617.46	37.137
617.78	37.106
618.11	37.095
618.44	37.071
618.77	37.029
619.10	36.981
619.43	36.904
619.76	36.904
620.09	36.875
620.41	36.851
620.74	36.847
621.07	36.789
621.40	36.730
621.73	36.627
622.06	36.532
622.38	36.518
622.71	36.390
623.04	36.269
623.37	36.140
623.70	36.026
624.02	35.944
624.35	35.884
624.68	35.782
625.01	35.687
625.34	35.641
625.66	35.578
625.99	35.484
626.32	35.510
626.65	35.559
626.98	35.569
627.30	35.548
627.63	35.520
627.96	35.481
628.29	35.501
628.61	35.500
628.94	35.454
629.27	35.442
629.60	35.471
629.92	35.375
630.25	35.319
630.58	35.248
630.91	35.214
631.23	35.160
631.56	35.061
631.89	35.047
632.21	34.995
632.54	34.950
632.87	34.956
633.19	34.888
633.52	34.887
633.85	34.821
634.18	34.758
634.50	34.719
634.83	34.709
635.16	34.742
635.48	34.694
635.81	34.650
636.14	34.640
636.46	34.571
636.79	34.587
637.11	34.562
637.44	34.553
637.77	34.583
638.09	34.533
638.42	34.459
638.75	34.400
639.07	34.354
639.40	34.311
639.73	34.285
640.05	34.276
640.38	34.165
640.70	34.133
641.03	34.128
641.36	34.101
641.68	34.098
642.01	34.104
642.33	34.067
642.66	34.014
642.98	33.964
643.31	33.911
643.64	33.810
643.96	33.793
644.29	33.701
644.61	33.614
644.94	33.554
645.26	33.464
645.59	33.453
645.91	33.411
646.24	33.431
646.56	33.431
646.89	33.423
647.22	33.393
647.54	33.295
647.87	33.270
648.19	33.215
648.52	33.134
648.84	33.119
649.17	32.995
649.49	32.922
649.82	32.790
650.14	32.761
650.47	32.647
650.79	32.600
651.11	32.585
651.44	32.535
651.76	32.517
652.09	32.438
652.41	32.424
652.74	32.383
653.06	32.325
653.39	32.306
653.71	32.250
654.04	32.200
654.36	32.174
654.68	32.126
655.01	32.029
655.33	31.920
655.66	31.868
655.98	31.808
656.30	31.724
656.63	31.722
656.95	31.661
657.28	31.577
657.60	31.519
657.92	31.430
658.25	31.391
658.57	31.344
658.90	31.386
659.22	31.360
659.54	31.307
659.87	31.281
660.19	31.251
660.51	31.237
660.84	31.266
661.16	31.301
661.48	31.316
661.81	31.263
662.13	31.336
662.45	31.284
662.78	31.268
663.10	31.275
663.42	31.309
663.75	31.273
664.07	31.207
664.39	31.152
664.72	31.080
665.04	31.000
665.36	30.961
665.69	30.894
666.01	30.845
666.33	30.828
666.65	30.765
666.98	30.735
667.30	30.680
667.62	30.608
667.94	30.506
668.27	30.541
668.59	30.535
668.91	30.535
669.23	30.581
669.56	30.511
669.88	30.507
670.20	30.419
670.52	30.329
670.85	30.320
671.17	30.360
671.49	30.377
671.81	30.320
672.13	30.283
672.46	30.208
672.78	30.016
673.10	29.966
673.42	29.910
673.74	29.959
674.07	29.912
674.39	29.797
674.71	29.704
675.03	29.733
675.35	29.641
675.67	29.632
676.00	29.562
676.32	29.614
676.64	29.643
676.96	29.640
677.28	29.570
677.60	29.588
677.92	29.583
678.25	29.558
678.57	29.466
678.89	29.446
679.21	29.357
679.53	29.388
679.85	29.348
680.17	29.312
680.49	29.248
680.81	29.259
681.13	29.286
681.46	29.358
681.78	29.440
682.10	29.491
682.42	29.491
682.74	29.485
683.06	29.438
683.38	29.420
683.70	29.465
684.02	29.491
684.34	29.550
684.66	29.529
684.98	29.404
685.30	29.306
685.62	29.226
685.94	29.188
686.26	29.186
686.58	29.208
686.90	29.154
687.22	29.034
687.54	29.032
687.86	28.945
688.18	28.917
688.50	28.916
688.82	28.895
689.14	28.850
689.46	28.886
689.78	28.905
690.10	28.857
690.42	28.931
690.74	28.972
691.06	28.899
691.38	28.819
691.70	28.771
692.02	28.721
692.34	28.765
692.66	28.810
692.98	28.732
693.30	28.690
693.62	28.655
693.94	28.537
694.26	28.450
694.57	28.312
694.89	28.247
695.21	28.192
695.53	28.122
695.85	28.015
696.17	27.939
696.49	27.887
696.81	27.836
697.13	27.779
697.44	27.786
697.76	27.743
698.08	27.748
698.40	27.734
698.72	27.674
699.04	27.657
699.36	27.650
699.67	27.598
699.99	27.536
700.31	27.471
700.63	27.478
700.95	27.446
701.27	27.473
701.58	27.453
701.90	27.366
702.22	27.345
702.54	27.380
702.86	27.290
703.17	27.206
703.49	27.213
703.81	27.199
704.13	27.210
704.45	27.101
704.76	26.944
705.08	26.835
705.40	26.837
705.72	26.798
706.03	26.701
706.35	26.740
706.67	26.728
706.99	26.665
707.30	26.588
707.62	26.485
707.94	26.491
708.26	26.426
708.57	26.447
708.89	26.432
709.21	26.352
709.53	26.331
709.84	26.277
710.16	26.257
710.48	26.270
710.79	26.279
711.11	26.346
711.43	26.282
711.74	26.353
712.06	26.480
712.38	26.499
712.69	26.518
713.01	26.515
713.33	26.488
713.64	26.496
713.96	26.563
714.28	26.721
714.59	26.707
714.91	26.782
715.23	26.938
715.54	26.914
715.86	27.048
716.17	27.171
716.49	27.199
716.81	27.248
717.12	27.182
717.44	27.093
717.76	27.006
718.07	26.959
718.39	26.833
718.70	26.640
719.02	26.568
719.33	26.397
719.65	26.248
719.97	26.246
720.28	26.204
720.60	26.202
720.91	26.251
721.23	26.102
721.54	26.090
721.86	26.125
722.17	26.077
722.49	26.055
722.81	26.042
723.12	25.987
723.44	25.971
723.75	25.991
724.07	26.073
724.38	26.046
724.70	26.081
725.01	26.033
725.33	26.086
725.64	26.131
725.96	26.044
726.27	25.951
726.59	26.004
726.90	25.896
727.22	25.735
727.53	25.740
727.84	25.612
728.16	25.494
728.47	25.532
728.79	25.495
729.10	25.450
729.42	25.481
729.73	25.422
730.05	25.478
730.36	25.454
730.67	25.439
730.99	25.304
731.30	25.259
731.62	25.165
731.93	24.953
732.24	24.806
732.56	24.644
732.87	24.369
733.19	24.310
733.50	24.210
733.81	24.222
734.13	24.143
734.44	24.101
734.76	24.149
735.07	24.054
735.38	24.110
735.70	24.069
736.01	24.015
736.32	24.240
736.64	24.277
736.95	24.006
737.26	23.865
737.58	23.797
737.89	23.676
738.20	23.497
738.52	23.508
738.83	23.385
739.14	23.330
739.45	23.366
739.77	23.189
740.08	23.187
740.39	23.239
740.71	23.294
741.02	23.448
741.33	23.545
741.64	23.427
741.96	23.299
742.27	23.200
742.58	23.140
742.90	23.118
743.21	22.983
743.52	22.935
743.83	23.015
744.14	22.902
744.46	22.663
744.77	22.540
745.08	22.663
745.39	22.645
745.71	22.709
746.02	22.666
746.33	22.495
746.64	22.577
746.95	22.434
747.27	22.335
747.58	22.384
747.89	22.422
748.20	22.271
748.51	22.150
748.82	22.257
749.14	22.097
749.45	22.057
749.76	22.200
750.07	22.193
750.38	22.116
750.69	22.170
751.01	22.092
751.32	22.061
751.63	22.119
751.94	22.125
752.25	22.151
752.56	22.375
752.87	22.300
753.18	22.138
753.49	22.168
753.81	22.168
754.12	21.996
754.43	21.967
754.74	22.027
755.05	22.168
755.36	22.365
755.67	22.569
755.98	22.701
756.29	22.826
756.60	23.018
756.91	23.186
757.22	23.470
757.53	23.865
757.84	24.146
758.15	24.449
758.46	24.772
758.77	25.006
759.09	25.163
759.40	25.310
759.71	25.643
760.02	25.786
760.33	25.949
760.64	25.959
760.95	25.906
761.26	25.885
761.57	25.832
761.88	25.706
762.18	25.562
762.49	25.435
762.80	25.191
763.11	25.100
763.42	24.922
763.73	24.702
764.04	24.485
764.35	24.309
764.66	23.913
764.97	23.554
765.28	23.373
765.59	23.087
765.90	22.790
766.21	22.801
766.52	22.246
766.83	22.118
767.14	21.803
767.44	21.652
767.75	21.570
768.06	21.570
768.37	21.520
768.68	21.210
768.99	21.007
769.30	20.761
769.61	20.276
769.91	20.396
770.22	20.143
770.53	19.926
770.84	20.088
771.15	19.745
771.46	19.818
771.77	19.724
772.07	19.831
772.38	20.061
772.69	20.027
773.00	20.125
773.31	20.359
773.61	20.334
773.92	20.544
774.23	20.121
774.54	20.160
774.85	20.105
775.15	20.324
775.46	20.162
775.77	19.836
776.08	20.107
776.39	19.925
776.69	19.694
777.00	19.943
777.31	19.703
777.62	20.085
777.92	20.023
778.23	19.939
778.54	19.626
778.85	19.656
779.15	19.821
779.46	19.647
779.77	19.711
780.07	19.559
780.38	19.326
780.69	19.500
781.00	19.207
781.30	19.381
781.61	19.288
781.92	19.422
782.22	19.445
782.53	19.500
782.84	19.464
783.14	19.714
783.45	19.838
783.76	19.977
784.06	20.083
784.37	20.287
784.68	20.165
784.98	20.698
785.29	20.838
785.60	21.084
785.90	21.284
786.21	21.248
786.51	21.384
786.82	21.274
787.13	21.452
787.43	21.333
787.74	21.413
788.04	21.612
788.35	21.235
788.66	21.197
788.96	20.904
789.27	21.084
789.57	21.272
789.88	21.240
790.19	21.677
790.49	21.309
790.80	21.466
791.10	21.346
791.41	21.208
791.71	21.180
792.02	21.381
792.32	21.593
792.63	21.200
792.93	21.192
793.24	20.771
793.54	20.315
793.85	20.644
794.15	20.693
794.46	20.519
794.76	20.482
795.07	20.708
795.37	20.433
795.68	20.004
795.98	20.030
796.29	20.282
796.59	20.656
796.90	20.627
797.20	20.434
797.51	20.351
797.81	20.445
798.12	20.774
798.42	20.535
798.72	20.437
799.03	20.812
799.33	20.938
799.64	20.719
799.94	20.447
800.25	20.700
800.55	20.745
800.85	20.652
801.16	20.836
801.46	20.577
801.77	20.518
802.07	20.254
802.37	19.854
802.68	19.699
802.98	19.519
803.28	19.479
803.59	19.194
803.89	19.583
804.20	19.697
804.50	19.742
804.80	19.692
805.11	20.012
805.41	20.519
805.71	20.871
806.02	21.107
806.32	21.522
806.62	21.807
806.93	21.981
807.23	21.527
807.53	21.701
807.83	21.851
808.14	21.919
808.44	21.882
808.74	22.124
809.05	22.642
809.35	22.583
809.65	22.386
809.95	22.345
810.26	22.290
810.56	22.346
810.86	22.283
811.16	21.957
811.47	21.937
811.77	22.276
812.07	22.221
812.37	21.954
812.68	21.881
812.98	22.352
813.28	22.585
813.58	22.875
813.88	22.968
814.19	23.158
814.49	22.910
814.79	23.098
815.09	22.790
815.39	22.929
815.70	22.944
816.00	23.069
816.30	22.569
816.60	22.422
816.90	22.713
817.20	23.031
817.50	22.816
817.81	23.245
818.11	23.612
818.41	23.889
818.71	23.883
819.01	23.950
819.31	24.082
819.61	24.231
819.92	24.249
820.22	24.288
820.52	24.423
820.82	24.518
821.12	24.563
821.42	24.486
821.72	24.517
822.02	24.506
822.32	24.500
822.62	24.439
822.92	24.359
823.22	24.385
823.52	24.338
823.83	24.247
824.13	24.162
824.43	23.979
824.73	23.953
825.03	23.752
825.33	23.722
825.63	23.728
825.93	23.829
826.23	23.851
826.53	23.772
826.83	23.785
827.13	23.547
827.43	23.517
827.73	23.702
828.03	23.532
828.33	23.501
828.63	23.558
828.93	23.429
829.23	23.057
829.53	22.873
829.83	23.052
830.13	22.722
830.42	22.754
830.72	22.975
831.02	22.952
831.32	23.200
831.62	23.379
831.92	23.247
832.22	23.372
832.52	23.452
832.82	23.743
833.12	23.543
833.42	23.588
833.72	23.728
834.01	23.561
834.31	23.386
834.61	23.397
834.91	23.476
835.21	23.313
835.51	23.239
835.81	23.482
836.11	23.241
836.40	23.002
836.70	23.093
837.00	22.977
837.30	22.823
837.60	23.353
837.90	22.973
838.19	22.935
838.49	22.838
838.79	22.545
839.09	22.482
839.39	22.158
839.68	22.349
839.98	22.195
840.28	21.987
840.58	22.252
840.88	21.081
841.17	20.794
841.47	19.976
841.77	20.335
842.07	20.249
842.36	18.807
842.66	18.654
842.96	18.867
843.26	17.690
843.55	16.775
843.85	15.442
844.15	15.289
844.45	16.254
844.74	16.193
845.04	15.259
845.34	14.929
845.63	14.026
845.93	14.491
846.23	13.865
846.53	14.611
846.82	14.145
847.12	14.214
847.42	13.326
847.71	11.072
848.01	12.190
848.31	13.797
848.60	13.012
848.90	13.363
849.19	13.041
849.49	12.682
849.79	11.705
850.08	13.518
850.38	14.759
850.68	16.963
850.97	18.638
851.27	17.955
851.56	17.075
851.86	17.276
852.16	18.248
852.45	19.235
852.75	19.496
853.04	20.857
853.34	20.396
853.64	18.220
853.93	17.169
854.23	16.563
854.52	15.680
854.82	14.895
855.11	15.438
855.41	15.316
855.70	14.353
856.00	14.598
856.30	15.229
856.59	14.118
856.89	15.415
857.18	16.911
857.48	16.323
857.77	15.539
858.07	15.631
858.36	15.020
858.66	15.503
858.95	16.167
859.25	15.641
859.54	13.531
859.84	13.361
860.13	13.926
860.42	13.932
860.72	16.111
861.01	17.793
861.31	17.474
861.60	17.372
861.90	16.009
862.19	14.118
862.49	13.738
862.78	16.485
863.07	18.403
863.37	17.298
863.66	16.318
863.96	16.147
864.25	17.758
864.54	18.721
864.84	18.945
865.13	19.654
865.43	20.808
865.72	40.002
866.01	21.692
866.31	14.683
866.60	11.664
866.89	19.012
>>>>>End Spectral Data<<<<<
