OOIBase32 Version 2.0.0.6 Data File
++++++++++++++++++++++++++++++++++++
Date: 01-23-2012, 21:52:46
User: Valued Ocean Optics Customer
Spectrometer Serial Number: USB2E2917
Spectrometer Channel: Master
Integration Time (msec): 5
Spectra Averaged: 10
Boxcar Smoothing: 5
Correct for Electrical Dark: Enabled
Time Normalized: Disabled
Dual-beam Reference: Disabled
Reference Channel: Master
Temperature: Not acquired
Spectrometer Type: S2000
ADC Type: USB2000
Number of Pixels in File: 2048
Graph Title: 
>>>>>Begin Spectral Data<<<<<
180.30	0.000
180.67	0.000
181.03	84.902
181.40	172.547
181.77	1008.400
182.14	209.569
182.51	127.196
182.88	11021.557
183.25	410.526
183.62	-26.082
183.99	95.452
184.36	126.117
184.73	99.327
185.10	-100.226
185.46	100.302
185.83	244.052
186.20	62.890
186.57	367.318
186.94	-80.510
187.31	-109.662
187.68	-105.494
188.05	53.173
188.42	53.105
188.78	56.970
189.15	47.064
189.52	32.099
189.89	20.942
190.26	-2.118
190.63	16.091
191.00	19.821
191.37	22.099
191.73	20.090
192.10	21.947
192.47	12.372
192.84	3.471
193.21	-5.746
193.58	-1.678
193.94	1.729
194.31	11.690
194.68	10.636
195.05	-0.771
195.42	-20.280
195.79	-24.876
196.15	-21.781
196.52	-13.142
196.89	-9.389
197.26	-2.774
197.63	-12.225
198.00	-17.038
198.36	-20.784
198.73	-16.212
199.10	-10.548
199.47	-5.054
199.84	-8.784
200.20	0.303
200.57	-19.888
200.94	-15.321
201.31	-24.782
201.68	-2.253
202.04	10.816
202.41	26.620
202.78	23.300
203.15	30.607
203.51	27.438
203.88	25.271
204.25	14.025
204.62	23.153
204.98	25.852
205.35	27.917
205.72	26.177
206.09	20.682
206.46	18.256
206.82	29.147
207.19	10.752
207.56	11.815
207.92	6.968
208.29	13.252
208.66	12.079
209.03	12.535
209.39	4.642
209.76	-1.730
210.13	-5.524
210.50	-13.930
210.86	-17.473
211.23	3.839
211.60	12.174
211.96	20.389
212.33	10.930
212.70	21.535
213.07	16.263
213.43	25.272
213.80	25.140
214.17	16.075
214.53	15.619
214.90	17.116
215.27	9.884
215.63	-3.264
216.00	-9.370
216.37	0.233
216.74	-18.429
217.10	-25.848
217.47	-39.099
217.84	-40.355
218.20	-22.570
218.57	-23.482
218.94	-24.477
219.30	-23.450
219.67	-7.732
220.04	1.833
220.40	2.919
220.77	8.051
221.13	11.331
221.50	14.906
221.87	12.642
222.23	8.432
222.60	12.773
222.97	5.362
223.33	4.817
223.70	-4.558
224.07	-5.398
224.43	-4.498
224.80	-1.458
225.16	2.373
225.53	3.894
225.90	1.995
226.26	1.940
226.63	1.187
226.99	1.562
227.36	2.312
227.73	3.009
228.09	0.857
228.46	1.663
228.82	1.256
229.19	-0.348
229.56	-2.536
229.92	-0.353
230.29	1.610
230.65	1.623
231.02	4.139
231.38	2.940
231.75	5.445
232.12	8.383
232.48	7.154
232.85	8.845
233.21	11.830
233.58	13.335
233.94	14.762
234.31	13.473
234.68	12.078
235.04	10.518
235.41	10.103
235.77	8.416
236.14	6.146
236.50	4.013
236.87	2.995
237.23	1.587
237.60	1.938
237.96	1.346
238.33	1.859
238.69	2.606
239.06	3.100
239.42	3.690
239.79	4.273
240.15	5.017
240.52	5.860
240.88	5.673
241.25	5.753
241.61	5.586
241.98	6.251
242.34	6.010
242.71	6.241
243.07	6.124
243.44	6.136
243.80	6.042
244.17	6.159
244.53	6.295
244.90	6.374
245.26	6.352
245.63	6.166
245.99	5.715
246.36	5.782
246.72	5.493
247.09	5.443
247.45	5.134
247.81	4.832
248.18	4.481
248.54	4.367
248.91	4.103
249.27	4.159
249.64	4.068
250.00	3.873
250.36	3.923
250.73	4.128
251.09	4.215
251.46	4.486
251.82	4.901
252.19	5.229
252.55	4.957
252.91	5.109
253.28	4.519
253.64	5.211
254.01	5.357
254.37	4.917
254.73	5.169
255.10	5.159
255.46	4.766
255.83	4.246
256.19	4.082
256.55	4.069
256.92	4.256
257.28	4.641
257.65	4.574
258.01	4.669
258.37	4.639
258.74	4.603
259.10	4.761
259.46	5.013
259.83	5.300
260.19	5.374
260.55	5.346
260.92	5.191
261.28	4.805
261.64	4.485
262.01	4.399
262.37	4.209
262.73	3.707
263.10	3.286
263.46	3.377
263.82	3.080
264.19	2.619
264.55	2.633
264.91	2.906
265.28	3.425
265.64	3.497
266.00	3.355
266.37	3.538
266.73	3.932
267.09	4.165
267.46	4.113
267.82	4.200
268.18	4.478
268.54	4.332
268.91	4.190
269.27	3.931
269.63	4.152
270.00	4.257
270.36	4.462
270.72	4.265
271.08	3.843
271.45	3.705
271.81	3.927
272.17	4.131
272.53	4.257
272.90	4.314
273.26	4.318
273.62	4.204
273.98	4.089
274.35	3.900
274.71	4.264
275.07	4.574
275.43	4.719
275.80	4.574
276.16	4.608
276.52	4.500
276.88	4.227
277.25	4.349
277.61	4.515
277.97	4.659
278.33	4.569
278.69	4.432
279.06	4.743
279.42	4.616
279.78	4.653
280.14	4.614
280.50	4.781
280.87	4.887
281.23	4.967
281.59	4.818
281.95	4.679
282.31	4.891
282.68	4.832
283.04	4.640
283.40	4.735
283.76	4.519
284.12	4.386
284.48	4.406
284.85	4.329
285.21	4.252
285.57	4.346
285.93	4.491
286.29	4.265
286.65	4.305
287.02	4.245
287.38	4.154
287.74	4.330
288.10	4.370
288.46	4.178
288.82	4.092
289.18	3.862
289.54	3.814
289.91	3.898
290.27	4.030
290.63	4.033
290.99	3.982
291.35	4.152
291.71	4.391
292.07	4.303
292.43	4.544
292.79	4.937
293.16	5.054
293.52	5.147
293.88	5.132
294.24	5.083
294.60	4.882
294.96	4.858
295.32	4.870
295.68	4.522
296.04	4.688
296.40	4.645
296.76	4.481
297.12	4.602
297.49	4.621
297.85	4.591
298.21	4.800
298.57	4.948
298.93	5.011
299.29	4.991
299.65	5.078
300.01	5.043
300.37	4.958
300.73	5.044
301.09	5.141
301.45	5.216
301.81	5.037
302.17	4.744
302.53	4.617
302.89	4.610
303.25	4.470
303.61	4.625
303.97	4.497
304.33	4.486
304.69	4.535
305.05	4.413
305.41	4.216
305.77	4.369
306.13	4.537
306.49	4.831
306.85	4.842
307.21	4.938
307.57	4.936
307.93	5.039
308.29	5.128
308.65	4.962
309.01	4.919
309.37	5.051
309.73	5.071
310.09	5.115
310.45	4.976
310.81	5.000
311.17	4.814
311.53	4.690
311.89	4.680
312.25	4.599
312.61	4.793
312.96	4.882
313.32	4.814
313.68	4.728
314.04	4.716
314.40	4.699
314.76	4.641
315.12	4.797
315.48	4.881
315.84	4.799
316.20	4.924
316.56	4.834
316.92	4.765
317.27	4.744
317.63	4.667
317.99	4.535
318.35	4.488
318.71	4.430
319.07	4.377
319.43	4.423
319.79	4.424
320.15	4.229
320.50	4.114
320.86	4.142
321.22	4.042
321.58	4.121
321.94	4.153
322.30	4.170
322.66	4.303
323.01	4.363
323.37	4.233
323.73	4.289
324.09	4.497
324.45	4.539
324.81	4.419
325.17	4.560
325.52	4.647
325.88	4.665
326.24	4.749
326.60	4.840
326.96	4.923
327.31	5.064
327.67	5.146
328.03	5.124
328.39	5.195
328.75	5.374
329.11	5.336
329.46	5.346
329.82	5.399
330.18	5.467
330.54	5.421
330.90	5.454
331.25	5.430
331.61	5.398
331.97	5.399
332.33	5.529
332.68	5.422
333.04	5.421
333.40	5.421
333.76	5.382
334.11	5.229
334.47	5.192
334.83	5.047
335.19	5.104
335.54	5.172
335.90	5.188
336.26	5.058
336.62	5.200
336.97	5.201
337.33	5.241
337.69	5.277
338.05	5.384
338.40	5.401
338.76	5.560
339.12	5.567
339.48	5.516
339.83	5.517
340.19	5.508
340.55	5.339
340.90	5.317
341.26	5.177
341.62	5.181
341.97	5.240
342.33	5.346
342.69	5.270
343.04	5.264
343.40	5.311
343.76	5.382
344.12	5.473
344.47	5.675
344.83	5.694
345.19	5.737
345.54	5.747
345.90	5.752
346.26	5.630
346.61	5.631
346.97	5.562
347.32	5.563
347.68	5.466
348.04	5.488
348.39	5.420
348.75	5.531
349.11	5.589
349.46	5.624
349.82	5.620
350.18	5.590
350.53	5.587
350.89	5.728
351.24	5.703
351.60	5.731
351.96	5.698
352.31	5.742
352.67	5.684
353.02	5.674
353.38	5.665
353.74	5.602
354.09	5.639
354.45	5.701
354.80	5.619
355.16	5.579
355.52	5.575
355.87	5.556
356.23	5.496
356.58	5.599
356.94	5.601
357.29	5.637
357.65	5.686
358.00	5.741
358.36	5.702
358.72	5.739
359.07	5.780
359.43	5.777
359.78	5.765
360.14	5.776
360.49	5.640
360.85	5.649
361.20	5.648
361.56	5.658
361.91	5.656
362.27	5.655
362.62	5.651
362.98	5.649
363.33	5.682
363.69	5.678
364.04	5.679
364.40	5.788
364.75	5.797
365.11	5.822
365.46	5.848
365.82	5.868
366.17	5.897
366.53	5.901
366.88	5.879
367.24	5.918
367.59	5.955
367.95	6.035
368.30	5.994
368.66	5.991
369.01	5.993
369.37	6.020
369.72	6.011
370.08	6.052
370.43	6.100
370.78	6.152
371.14	6.154
371.49	6.201
371.85	6.208
372.20	6.244
372.56	6.309
372.91	6.287
373.26	6.286
373.62	6.320
373.97	6.339
374.33	6.329
374.68	6.360
375.03	6.393
375.39	6.374
375.74	6.389
376.10	6.364
376.45	6.389
376.80	6.382
377.16	6.380
377.51	6.395
377.87	6.386
378.22	6.390
378.57	6.430
378.93	6.464
379.28	6.531
379.63	6.571
379.99	6.692
380.34	6.731
380.70	6.854
381.05	6.904
381.40	6.922
381.76	6.987
382.11	7.078
382.46	7.068
382.82	7.056
383.17	7.072
383.52	7.109
383.88	7.071
384.23	7.115
384.58	7.112
384.94	7.165
385.29	7.249
385.64	7.284
385.99	7.326
386.35	7.461
386.70	7.516
387.05	7.544
387.41	7.551
387.76	7.604
388.11	7.585
388.47	7.623
388.82	7.588
389.17	7.568
389.52	7.572
389.88	7.581
390.23	7.593
390.58	7.628
390.93	7.648
391.29	7.695
391.64	7.723
391.99	7.739
392.34	7.778
392.70	7.851
393.05	7.885
393.40	7.962
393.75	7.993
394.11	7.989
394.46	8.015
394.81	8.044
395.16	8.048
395.52	8.094
395.87	8.135
396.22	8.119
396.57	8.144
396.92	8.220
397.28	8.161
397.63	8.154
397.98	8.187
398.33	8.234
398.68	8.299
399.04	8.335
399.39	8.372
399.74	8.421
400.09	8.482
400.44	8.520
400.80	8.540
401.15	8.639
401.50	8.696
401.85	8.766
402.20	8.779
402.55	8.802
402.90	8.822
403.26	8.865
403.61	8.914
403.96	8.991
404.31	9.028
404.66	9.058
405.01	9.092
405.36	9.150
405.72	9.169
406.07	9.221
406.42	9.263
406.77	9.341
407.12	9.333
407.47	9.379
407.82	9.363
408.17	9.382
408.53	9.429
408.88	9.468
409.23	9.482
409.58	9.462
409.93	9.494
410.28	9.551
410.63	9.593
410.98	9.678
411.33	9.647
411.68	9.700
412.03	9.749
412.38	9.778
412.73	9.787
413.09	9.805
413.44	9.826
413.79	9.854
414.14	9.856
414.49	9.849
414.84	9.850
415.19	9.904
415.54	9.922
415.89	9.916
416.24	9.910
416.59	9.913
416.94	9.918
417.29	9.941
417.64	9.936
417.99	9.949
418.34	9.955
418.69	9.965
419.04	9.982
419.39	9.988
419.74	10.014
420.09	10.030
420.44	10.049
420.79	10.054
421.14	10.063
421.49	10.083
421.84	10.095
422.19	10.093
422.54	10.117
422.89	10.107
423.24	10.118
423.59	10.133
423.94	10.149
424.29	10.163
424.64	10.212
424.99	10.254
425.34	10.286
425.68	10.319
426.03	10.413
426.38	10.425
426.73	10.489
427.08	10.514
427.43	10.549
427.78	10.569
428.13	10.608
428.48	10.630
428.83	10.651
429.18	10.659
429.53	10.676
429.87	10.663
430.22	10.667
430.57	10.676
430.92	10.689
431.27	10.708
431.62	10.734
431.97	10.732
432.32	10.734
432.67	10.743
433.01	10.761
433.36	10.803
433.71	10.810
434.06	10.861
434.41	10.890
434.76	10.930
435.11	10.942
435.45	10.963
435.80	10.974
436.15	10.991
436.50	10.982
436.85	10.985
437.20	10.957
437.54	10.963
437.89	10.943
438.24	10.940
438.59	10.959
438.94	10.953
439.29	10.951
439.63	10.960
439.98	10.969
440.33	10.980
440.68	10.999
441.03	11.025
441.37	11.030
441.72	11.053
442.07	11.052
442.42	11.036
442.76	11.050
443.11	11.056
443.46	11.062
443.81	11.076
444.16	11.063
444.50	11.052
444.85	11.065
445.20	11.074
445.55	11.067
445.89	11.088
446.24	11.084
446.59	11.101
446.94	11.113
447.28	11.129
447.63	11.139
447.98	11.192
448.32	11.221
448.67	11.215
449.02	11.249
449.37	11.280
449.71	11.266
450.06	11.295
450.41	11.299
450.75	11.325
451.10	11.348
451.45	11.353
451.79	11.361
452.14	11.380
452.49	11.414
452.84	11.432
453.18	11.438
453.53	11.486
453.88	11.520
454.22	11.543
454.57	11.563
454.92	11.597
455.26	11.612
455.61	11.659
455.95	11.694
456.30	11.716
456.65	11.729
456.99	11.759
457.34	11.783
457.69	11.800
458.03	11.821
458.38	11.849
458.73	11.865
459.07	11.917
459.42	11.932
459.76	11.949
460.11	11.975
460.46	12.018
460.80	12.070
461.15	12.099
461.49	12.148
461.84	12.224
462.19	12.282
462.53	12.363
462.88	12.412
463.22	12.460
463.57	12.559
463.91	12.631
464.26	12.703
464.61	12.752
464.95	12.826
465.30	12.894
465.64	12.945
465.99	12.992
466.33	13.013
466.68	13.063
467.02	13.108
467.37	13.124
467.71	13.149
468.06	13.187
468.41	13.231
468.75	13.273
469.10	13.283
469.44	13.297
469.79	13.332
470.13	13.408
470.48	13.426
470.82	13.466
471.17	13.512
471.51	13.568
471.86	13.568
472.20	13.609
472.55	13.655
472.89	13.708
473.23	13.733
473.58	13.749
473.92	13.740
474.27	13.775
474.61	13.814
474.96	13.829
475.30	13.818
475.65	13.843
475.99	13.861
476.34	13.858
476.68	13.877
477.02	13.921
477.37	13.963
477.71	13.999
478.06	14.048
478.40	14.112
478.75	14.240
479.09	14.396
479.43	14.549
479.78	14.718
480.12	14.914
480.47	15.134
480.81	15.356
481.15	15.590
481.50	15.844
481.84	16.144
482.19	16.465
482.53	16.713
482.87	16.851
483.22	16.860
483.56	16.738
483.90	16.522
484.25	16.239
484.59	15.977
484.94	15.782
485.28	15.588
485.62	15.332
485.97	15.047
486.31	14.807
486.65	14.694
487.00	14.710
487.34	14.852
487.68	15.056
488.03	15.319
488.37	15.533
488.71	15.650
489.06	15.728
489.40	15.796
489.74	15.854
490.09	15.931
490.43	15.982
490.77	16.046
491.11	16.094
491.46	16.169
491.80	16.240
492.14	16.305
492.49	16.381
492.83	16.462
493.17	16.550
493.51	16.656
493.86	16.759
494.20	16.873
494.54	16.972
494.88	17.090
495.23	17.205
495.57	17.288
495.91	17.412
496.25	17.510
496.60	17.623
496.94	17.736
497.28	17.851
497.62	17.974
497.97	18.106
498.31	18.260
498.65	18.401
498.99	18.545
499.33	18.714
499.68	18.876
500.02	19.049
500.36	19.205
500.70	19.346
501.04	19.514
501.39	19.651
501.73	19.810
502.07	19.964
502.41	20.105
502.75	20.269
503.09	20.425
503.44	20.576
503.78	20.721
504.12	20.881
504.46	21.069
504.80	21.202
505.14	21.375
505.49	21.509
505.83	21.650
506.17	21.809
506.51	21.951
506.85	22.078
507.19	22.236
507.53	22.383
507.87	22.520
508.22	22.645
508.56	22.775
508.90	22.911
509.24	23.059
509.58	23.191
509.92	23.333
510.26	23.461
510.60	23.644
510.94	23.759
511.28	23.899
511.63	24.062
511.97	24.217
512.31	24.382
512.65	24.532
512.99	24.659
513.33	24.823
513.67	24.984
514.01	25.150
514.35	25.259
514.69	25.406
515.03	25.533
515.37	25.621
515.71	25.719
516.05	25.824
516.39	25.910
516.73	26.018
517.07	26.101
517.41	26.169
517.75	26.266
518.09	26.353
518.43	26.451
518.77	26.543
519.11	26.672
519.45	26.774
519.79	26.898
520.13	27.037
520.47	27.172
520.81	27.303
521.15	27.440
521.49	27.542
521.83	27.646
522.17	27.730
522.51	27.840
522.85	27.922
523.19	28.069
523.53	28.244
523.87	28.432
524.21	28.622
524.55	28.814
524.89	28.975
525.23	29.134
525.57	29.289
525.91	29.412
526.25	29.559
526.58	29.680
526.92	29.770
527.26	29.815
527.60	29.836
527.94	29.821
528.28	29.790
528.62	29.774
528.96	29.749
529.30	29.720
529.64	29.692
529.97	29.633
530.31	29.590
530.65	29.542
530.99	29.528
531.33	29.548
531.67	29.592
532.01	29.624
532.35	29.642
532.68	29.657
533.02	29.673
533.36	29.712
533.70	29.714
534.04	29.722
534.38	29.753
534.71	29.777
535.05	29.780
535.39	29.793
535.73	29.820
536.07	29.859
536.41	29.934
536.74	30.018
537.08	30.059
537.42	30.135
537.76	30.201
538.10	30.265
538.43	30.331
538.77	30.389
539.11	30.445
539.45	30.497
539.79	30.547
540.12	30.555
540.46	30.525
540.80	30.509
541.14	30.486
541.47	30.463
541.81	30.457
542.15	30.454
542.49	30.424
542.82	30.386
543.16	30.365
543.50	30.312
543.84	30.279
544.17	30.321
544.51	30.384
544.85	30.424
545.18	30.467
545.52	30.489
545.86	30.499
546.20	30.524
546.53	30.564
546.87	30.603
547.21	30.653
547.54	30.701
547.88	30.739
548.22	30.743
548.55	30.792
548.89	30.850
549.23	30.867
549.56	30.868
549.90	30.884
550.24	30.885
550.57	30.880
550.91	30.886
551.25	30.906
551.58	30.860
551.92	30.894
552.26	30.908
552.59	30.905
552.93	30.942
553.27	30.958
553.60	30.991
553.94	31.068
554.27	31.104
554.61	31.142
554.95	31.162
555.28	31.224
555.62	31.224
555.95	31.239
556.29	31.258
556.63	31.250
556.96	31.251
557.30	31.232
557.63	31.207
557.97	31.210
558.31	31.175
558.64	31.184
558.98	31.169
559.31	31.188
559.65	31.173
559.98	31.162
560.32	31.119
560.65	31.090
560.99	31.097
561.33	31.074
561.66	31.023
562.00	31.043
562.33	31.002
562.67	30.978
563.00	30.934
563.34	30.919
563.67	30.873
564.01	30.871
564.34	30.843
564.68	30.794
565.01	30.764
565.35	30.779
565.68	30.730
566.02	30.738
566.35	30.755
566.69	30.728
567.02	30.702
567.36	30.689
567.69	30.669
568.03	30.689
568.36	30.681
568.69	30.641
569.03	30.592
569.36	30.580
569.70	30.509
570.03	30.434
570.37	30.409
570.70	30.357
571.04	30.346
571.37	30.296
571.70	30.265
572.04	30.269
572.37	30.261
572.71	30.237
573.04	30.223
573.37	30.235
573.71	30.236
574.04	30.226
574.38	30.227
574.71	30.204
575.04	30.218
575.38	30.217
575.71	30.222
576.05	30.230
576.38	30.255
576.71	30.264
577.05	30.245
577.38	30.267
577.71	30.265
578.05	30.267
578.38	30.257
578.71	30.279
579.05	30.278
579.38	30.229
579.71	30.209
580.05	30.173
580.38	30.139
580.71	30.140
581.05	30.068
581.38	30.036
581.71	30.006
582.05	29.957
582.38	29.890
582.71	29.831
583.04	29.788
583.38	29.747
583.71	29.712
584.04	29.678
584.38	29.620
584.71	29.582
585.04	29.546
585.37	29.497
585.71	29.484
586.04	29.487
586.37	29.428
586.70	29.376
587.04	29.339
587.37	29.296
587.70	29.223
588.03	29.185
588.37	29.140
588.70	29.095
589.03	29.050
589.36	29.000
589.69	28.926
590.03	28.867
590.36	28.828
590.69	28.796
591.02	28.717
591.35	28.649
591.69	28.566
592.02	28.508
592.35	28.385
592.68	28.304
593.01	28.226
593.35	28.158
593.68	28.103
594.01	28.004
594.34	27.910
594.67	27.852
595.00	27.822
595.34	27.775
595.67	27.711
596.00	27.727
596.33	27.675
596.66	27.642
596.99	27.606
597.32	27.573
597.65	27.580
597.99	27.558
598.32	27.542
598.65	27.493
598.98	27.433
599.31	27.395
599.64	27.283
599.97	27.211
600.30	27.129
600.63	27.048
600.96	26.966
601.30	26.864
601.63	26.760
601.96	26.682
602.29	26.636
602.62	26.615
602.95	26.582
603.28	26.554
603.61	26.557
603.94	26.528
604.27	26.470
604.60	26.464
604.93	26.448
605.26	26.451
605.59	26.415
605.92	26.382
606.25	26.328
606.58	26.296
606.91	26.273
607.24	26.218
607.57	26.179
607.90	26.164
608.23	26.103
608.56	26.099
608.89	26.049
609.22	26.036
609.55	26.020
609.88	25.989
610.21	25.960
610.54	25.946
610.87	25.924
611.20	25.905
611.53	25.914
611.86	25.921
612.19	25.874
612.52	25.890
612.85	25.909
613.18	25.885
613.51	25.845
613.84	25.780
614.17	25.744
614.49	25.721
614.82	25.701
615.15	25.626
615.48	25.544
615.81	25.531
616.14	25.425
616.47	25.365
616.80	25.328
617.13	25.322
617.46	25.306
617.78	25.247
618.11	25.201
618.44	25.120
618.77	25.088
619.10	25.098
619.43	25.066
619.76	25.063
620.09	25.008
620.41	24.949
620.74	24.917
621.07	24.901
621.40	24.831
621.73	24.764
622.06	24.702
622.38	24.624
622.71	24.524
623.04	24.417
623.37	24.376
623.70	24.288
624.02	24.229
624.35	24.140
624.68	24.029
625.01	24.003
625.34	23.973
625.66	23.963
625.99	23.955
626.32	23.939
626.65	23.957
626.98	23.950
627.30	23.954
627.63	23.917
627.96	23.900
628.29	23.930
628.61	23.906
628.94	23.878
629.27	23.848
629.60	23.828
629.92	23.790
630.25	23.755
630.58	23.705
630.91	23.640
631.23	23.630
631.56	23.610
631.89	23.582
632.21	23.526
632.54	23.454
632.87	23.403
633.19	23.367
633.52	23.353
633.85	23.332
634.18	23.262
634.50	23.235
634.83	23.200
635.16	23.190
635.48	23.135
635.81	23.141
636.14	23.167
636.46	23.186
636.79	23.190
637.11	23.186
637.44	23.164
637.77	23.152
638.09	23.146
638.42	23.144
638.75	23.099
639.07	23.096
639.40	23.065
639.73	23.050
640.05	23.042
640.38	22.992
640.70	22.976
641.03	22.918
641.36	22.898
641.68	22.858
642.01	22.815
642.33	22.807
642.66	22.767
642.98	22.731
643.31	22.665
643.64	22.602
643.96	22.563
644.29	22.441
644.61	22.391
644.94	22.378
645.26	22.308
645.59	22.241
645.91	22.158
646.24	22.131
646.56	22.077
646.89	22.032
647.22	21.996
647.54	21.979
647.87	21.979
648.19	21.935
648.52	21.921
648.84	21.933
649.17	21.951
649.49	21.973
649.82	21.974
650.14	22.015
650.47	22.012
650.79	21.964
651.11	21.931
651.44	21.871
651.76	21.858
652.09	21.791
652.41	21.758
652.74	21.685
653.06	21.633
653.39	21.546
653.71	21.512
654.04	21.501
654.36	21.454
654.68	21.389
655.01	21.376
655.33	21.328
655.66	21.281
655.98	21.203
656.30	21.174
656.63	21.132
656.95	21.075
657.28	20.992
657.60	20.884
657.92	20.849
658.25	20.784
658.57	20.762
658.90	20.725
659.22	20.709
659.54	20.736
659.87	20.655
660.19	20.625
660.51	20.669
660.84	20.675
661.16	20.754
661.48	20.746
661.81	20.811
662.13	20.804
662.45	20.856
662.78	20.915
663.10	20.952
663.42	21.003
663.75	20.996
664.07	20.970
664.39	20.976
664.72	20.938
665.04	20.951
665.36	20.876
665.69	20.906
666.01	20.845
666.33	20.815
666.65	20.732
666.98	20.732
667.30	20.723
667.62	20.644
667.94	20.588
668.27	20.582
668.59	20.537
668.91	20.503
669.23	20.477
669.56	20.471
669.88	20.399
670.20	20.361
670.52	20.275
670.85	20.260
671.17	20.249
671.49	20.292
671.81	20.308
672.13	20.355
672.46	20.416
672.78	20.343
673.10	20.268
673.42	20.249
673.74	20.305
674.07	20.343
674.39	20.241
674.71	20.233
675.03	20.135
675.35	20.003
675.67	19.927
676.00	19.875
676.32	19.876
676.64	19.878
676.96	19.816
677.28	19.751
677.60	19.705
677.92	19.719
678.25	19.690
678.57	19.670
678.89	19.635
679.21	19.614
679.53	19.583
679.85	19.545
680.17	19.553
680.49	19.530
680.81	19.474
681.13	19.453
681.46	19.460
681.78	19.472
682.10	19.455
682.42	19.502
682.74	19.465
683.06	19.443
683.38	19.425
683.70	19.397
684.02	19.389
684.34	19.387
684.66	19.367
684.98	19.275
685.30	19.252
685.62	19.264
685.94	19.219
686.26	19.218
686.58	19.236
686.90	19.290
687.22	19.241
687.54	19.247
687.86	19.243
688.18	19.219
688.50	19.249
688.82	19.271
689.14	19.291
689.46	19.270
689.78	19.265
690.10	19.175
690.42	19.115
690.74	19.173
691.06	19.176
691.38	19.139
691.70	19.133
692.02	19.115
692.34	19.012
692.66	18.845
692.98	18.834
693.30	18.862
693.62	18.857
693.94	18.750
694.26	18.635
694.57	18.500
694.89	18.489
695.21	18.469
695.53	18.426
695.85	18.417
696.17	18.396
696.49	18.356
696.81	18.269
697.13	18.217
697.44	18.203
697.76	18.142
698.08	18.202
698.40	18.216
698.72	18.177
699.04	18.150
699.36	18.116
699.67	18.151
699.99	18.116
700.31	18.085
700.63	18.098
700.95	18.119
701.27	18.173
701.58	18.142
701.90	18.091
702.22	18.197
702.54	18.241
702.86	18.253
703.17	18.193
703.49	18.202
703.81	18.217
704.13	18.204
704.45	18.226
704.76	18.150
705.08	18.117
705.40	18.019
705.72	17.904
706.03	17.869
706.35	17.870
706.67	17.870
706.99	17.845
707.30	17.836
707.62	17.837
707.94	17.780
708.26	17.769
708.57	17.754
708.89	17.787
709.21	17.711
709.53	17.615
709.84	17.549
710.16	17.602
710.48	17.664
710.79	17.543
711.11	17.507
711.43	17.481
711.74	17.465
712.06	17.480
712.38	17.495
712.69	17.471
713.01	17.549
713.33	17.535
713.64	17.433
713.96	17.379
714.28	17.507
714.59	17.484
714.91	17.471
715.23	17.474
715.54	17.423
715.86	17.468
716.17	17.615
716.49	17.555
716.81	17.569
717.12	17.545
717.44	17.502
717.76	17.429
718.07	17.508
718.39	17.548
718.70	17.654
719.02	17.638
719.33	17.514
719.65	17.337
719.97	17.410
720.28	17.409
720.60	17.479
720.91	17.591
721.23	17.539
721.54	17.527
721.86	17.490
722.17	17.345
722.49	17.323
722.81	17.342
723.12	17.339
723.44	17.189
723.75	17.174
724.07	17.142
724.38	16.974
724.70	17.086
725.01	17.030
725.33	17.020
725.64	17.117
725.96	17.155
726.27	17.051
726.59	17.120
726.90	17.258
727.22	17.229
727.53	17.284
727.84	17.330
728.16	17.191
728.47	17.120
728.79	17.113
729.10	17.045
729.42	17.072
729.73	17.253
730.05	17.267
730.36	17.164
730.67	17.175
730.99	17.166
731.30	17.065
731.62	17.083
731.93	17.203
732.24	17.217
732.56	17.207
732.87	17.042
733.19	16.911
733.50	16.869
733.81	16.926
734.13	16.907
734.44	16.777
734.76	16.871
735.07	16.818
735.38	16.705
735.70	16.606
736.01	16.601
736.32	16.728
736.64	16.737
736.95	16.661
737.26	16.582
737.58	16.542
737.89	16.625
738.20	16.560
738.52	16.516
738.83	16.510
739.14	16.679
739.45	16.557
739.77	16.499
740.08	16.492
740.39	16.400
740.71	16.513
741.02	16.624
741.33	16.612
741.64	16.620
741.96	16.661
742.27	16.565
742.58	16.259
742.90	16.390
743.21	16.441
743.52	16.462
743.83	16.727
744.14	16.661
744.46	16.391
744.77	16.466
745.08	16.530
745.39	16.608
745.71	16.625
746.02	16.758
746.33	16.629
746.64	16.544
746.95	16.564
747.27	16.581
747.58	16.515
747.89	16.812
748.20	16.650
748.51	16.553
748.82	16.521
749.14	16.600
749.45	16.610
749.76	16.737
750.07	16.798
750.38	16.857
750.69	16.802
751.01	16.849
751.32	16.618
751.63	16.678
751.94	16.739
752.25	16.644
752.56	16.628
752.87	16.536
753.18	16.509
753.49	16.483
753.81	16.418
754.12	16.261
754.43	16.278
754.74	16.422
755.05	16.419
755.36	16.307
755.67	16.456
755.98	16.424
756.29	16.443
756.60	16.448
756.91	16.522
757.22	16.484
757.53	16.652
757.84	16.769
758.15	16.774
758.46	16.746
758.77	16.916
759.09	16.945
759.40	16.920
759.71	17.093
760.02	17.115
760.33	17.138
760.64	17.196
760.95	17.088
761.26	16.909
761.57	16.925
761.88	16.934
762.18	17.003
762.49	17.021
762.80	17.166
763.11	17.059
763.42	17.078
763.73	16.984
764.04	16.711
764.35	16.701
764.66	16.711
764.97	16.647
765.28	16.696
765.59	16.537
765.90	16.536
766.21	16.373
766.52	16.250
766.83	16.325
767.14	16.370
767.44	16.643
767.75	16.650
768.06	16.809
768.37	16.812
768.68	17.087
768.99	17.125
769.30	16.777
769.61	16.636
769.91	16.670
770.22	16.378
770.53	16.404
770.84	16.645
771.15	16.791
771.46	16.709
771.77	16.521
772.07	16.297
772.38	16.014
772.69	16.231
773.00	16.269
773.31	16.642
773.61	16.665
773.92	16.591
774.23	16.254
774.54	16.243
774.85	16.273
775.15	16.589
775.46	16.383
775.77	16.476
776.08	16.498
776.39	16.380
776.69	16.223
777.00	16.380
777.31	16.364
777.62	16.477
777.92	16.536
778.23	16.623
778.54	16.370
778.85	16.333
779.15	16.648
779.46	16.747
779.77	17.072
780.07	17.164
780.38	17.198
780.69	17.235
781.00	17.126
781.30	16.971
781.61	16.820
781.92	17.154
782.22	17.133
782.53	17.135
782.84	17.056
783.14	17.089
783.45	17.172
783.76	17.183
784.06	17.196
784.37	17.591
784.68	17.702
784.98	17.816
785.29	17.480
785.60	17.630
785.90	17.385
786.21	17.575
786.51	17.510
786.82	17.184
787.13	17.459
787.43	17.607
787.74	17.498
788.04	17.365
788.35	17.073
788.66	17.212
788.96	17.109
789.27	17.483
789.57	17.356
789.88	17.382
790.19	17.636
790.49	17.182
790.80	17.057
791.10	16.962
791.41	17.008
791.71	17.088
792.02	17.237
792.32	17.259
792.63	16.935
792.93	17.188
793.24	16.882
793.54	16.407
793.85	16.814
794.15	16.770
794.46	16.630
794.76	16.534
795.07	16.710
795.37	16.685
795.68	16.734
795.98	17.012
796.29	16.697
796.59	17.079
796.90	17.200
797.20	17.244
797.51	17.532
797.81	17.489
798.12	17.706
798.42	17.665
798.72	17.793
799.03	17.706
799.33	17.263
799.64	17.473
799.94	17.583
800.25	18.148
800.55	17.685
800.85	17.328
801.16	17.518
801.46	17.413
801.77	17.224
802.07	17.012
802.37	17.284
802.68	17.695
802.98	17.390
803.28	17.045
803.59	16.388
803.89	16.628
804.20	16.892
804.50	17.045
804.80	16.846
805.11	17.458
805.41	17.508
805.71	17.364
806.02	17.062
806.32	17.519
806.62	17.606
806.93	18.173
807.23	18.149
807.53	17.804
807.83	17.771
808.14	17.949
808.44	17.762
808.74	18.305
809.05	18.582
809.35	18.880
809.65	18.636
809.95	18.733
810.26	18.792
810.56	18.751
810.86	18.912
811.16	18.723
811.47	18.901
811.77	18.874
812.07	18.034
812.37	17.452
812.68	17.371
812.98	17.575
813.28	17.275
813.58	17.001
813.88	16.560
814.19	16.794
814.49	16.456
814.79	16.423
815.09	16.056
815.39	16.384
815.70	16.580
816.00	16.326
816.30	16.083
816.60	16.102
816.90	16.224
817.20	16.375
817.50	16.448
817.81	16.631
818.11	16.555
818.41	16.805
818.71	16.532
819.01	16.618
819.31	16.632
819.61	16.586
819.92	16.614
820.22	16.596
820.52	16.597
820.82	16.540
821.12	16.517
821.42	16.513
821.72	16.440
822.02	16.489
822.32	16.441
822.62	16.446
822.92	16.478
823.22	16.492
823.52	16.464
823.83	16.518
824.13	16.552
824.43	16.621
824.73	16.615
825.03	16.680
825.33	16.720
825.63	16.779
825.93	16.860
826.23	16.811
826.53	16.717
826.83	16.813
827.13	16.687
827.43	16.651
827.73	16.745
828.03	16.684
828.33	16.346
828.63	16.366
828.93	16.159
829.23	15.929
829.53	15.855
829.83	16.175
830.13	15.829
830.42	16.120
830.72	16.235
831.02	15.935
831.32	16.122
831.62	16.299
831.92	16.114
832.22	16.245
832.52	16.308
832.82	16.531
833.12	16.182
833.42	16.346
833.72	16.457
834.01	16.509
834.31	16.658
834.61	16.817
834.91	17.281
835.21	17.513
835.51	17.844
835.81	18.071
836.11	18.275
836.40	18.487
836.70	18.915
837.00	18.582
837.30	18.347
837.60	18.446
837.90	18.378
838.19	18.046
838.49	17.463
838.79	17.432
839.09	17.383
839.39	16.990
839.68	16.983
839.98	16.765
840.28	16.885
840.58	17.387
840.88	16.888
841.17	16.080
841.47	16.535
841.77	17.425
842.07	16.787
842.36	16.914
842.66	16.916
842.96	18.122
843.26	17.597
843.55	17.492
843.85	17.701
844.15	18.237
844.45	19.612
844.74	19.045
845.04	19.513
845.34	20.573
845.63	19.494
845.93	20.905
846.23	20.313
846.53	20.791
846.82	20.703
847.12	19.705
847.42	18.468
847.71	19.363
848.01	19.208
848.31	19.616
848.60	18.800
848.90	19.109
849.19	17.043
849.49	16.512
849.79	16.336
850.08	17.557
850.38	18.257
850.68	20.547
850.97	18.916
851.27	18.588
851.56	17.921
851.86	18.420
852.16	19.787
852.45	21.293
852.75	22.416
853.04	23.215
853.34	22.796
853.64	20.419
853.93	20.042
854.23	20.506
854.52	22.455
854.82	21.971
855.11	21.544
855.41	21.498
855.70	21.369
856.00	21.289
856.30	21.297
856.59	22.001
856.89	23.955
857.18	23.199
857.48	22.858
857.77	20.681
858.07	20.481
858.36	20.713
858.66	19.552
858.95	19.888
859.25	20.532
859.54	20.662
859.84	19.714
860.13	20.266
860.42	20.137
860.72	20.926
861.01	21.718
861.31	22.033
861.60	21.141
861.90	19.336
862.19	18.307
862.49	16.805
862.78	16.490
863.07	16.260
863.37	15.135
863.66	15.178
863.96	13.817
864.25	13.381
864.54	15.213
864.84	16.154
865.13	16.132
865.43	14.834
865.72	14.053
866.01	32.693
866.31	20.789
866.60	-5.261
866.89	0.120
>>>>>End Spectral Data<<<<<
