OOIBase32 Version 2.0.0.6 Data File
++++++++++++++++++++++++++++++++++++
Date: 01-23-2012, 21:53:57
User: Valued Ocean Optics Customer
Spectrometer Serial Number: USB2E2917
Spectrometer Channel: Master
Integration Time (msec): 5
Spectra Averaged: 10
Boxcar Smoothing: 5
Correct for Electrical Dark: Enabled
Time Normalized: Disabled
Dual-beam Reference: Disabled
Reference Channel: Master
Temperature: Not acquired
Spectrometer Type: S2000
ADC Type: USB2000
Number of Pixels in File: 2048
Graph Title: 
>>>>>Begin Spectral Data<<<<<
180.30	0.000
180.67	0.000
181.03	173.112
181.40	-257.785
181.77	3565.267
182.14	174.796
182.51	109.502
182.88	-7123.358
183.25	170.499
183.62	33.637
183.99	47.741
184.36	-179.973
184.73	83.592
185.10	36.818
185.46	122.615
185.83	168.703
186.20	17.637
186.57	500.868
186.94	66.624
187.31	76.295
187.68	-165.388
188.05	21.217
188.42	15.126
188.78	16.999
189.15	15.799
189.52	12.639
189.89	8.897
190.26	-1.911
190.63	11.940
191.00	2.723
191.37	5.578
191.73	15.442
192.10	20.932
192.47	25.185
192.84	24.487
193.21	27.908
193.58	29.351
193.94	28.192
194.31	20.488
194.68	24.430
195.05	21.257
195.42	13.205
195.79	0.623
196.15	4.526
196.52	6.695
196.89	1.158
197.26	1.215
197.63	-5.442
198.00	-11.854
198.36	1.108
198.73	-4.573
199.10	-1.838
199.47	6.374
199.84	8.970
200.20	9.996
200.57	-11.561
200.94	-14.237
201.31	-17.727
201.68	7.087
202.04	9.011
202.41	13.753
202.78	7.490
203.15	10.063
203.51	-9.756
203.88	-12.057
204.25	-24.767
204.62	-7.632
204.98	7.704
205.35	13.425
205.72	3.625
206.09	10.486
206.46	14.565
206.82	10.073
207.19	2.210
207.56	4.444
207.92	9.333
208.29	12.143
208.66	11.524
209.03	2.684
209.39	-12.923
209.76	-16.030
210.13	-24.611
210.50	-27.908
210.86	-16.587
211.23	1.157
211.60	10.049
211.96	19.106
212.33	10.525
212.70	13.528
213.07	2.466
213.43	11.110
213.80	14.649
214.17	6.969
214.53	6.319
214.90	4.632
215.27	-2.393
215.63	-13.606
216.00	-22.957
216.37	-9.984
216.74	-16.696
217.10	-1.653
217.47	-8.953
217.84	-18.877
218.20	-0.110
218.57	-1.051
218.94	-2.130
219.30	-6.872
219.67	-3.325
220.04	-1.062
220.40	-8.536
220.77	-10.916
221.13	-10.161
221.50	-8.811
221.87	-4.389
222.23	-6.758
222.60	-4.542
222.97	-4.077
223.33	-4.046
223.70	-3.837
224.07	-1.494
224.43	0.620
224.80	5.308
225.16	5.502
225.53	8.429
225.90	3.210
226.26	0.092
226.63	-0.681
226.99	-0.345
227.36	0.407
227.73	1.457
228.09	-1.714
228.46	-2.132
228.82	-3.014
229.19	-3.945
229.56	-8.081
229.92	-4.614
230.29	-1.560
230.65	-1.066
231.02	-1.470
231.38	-2.264
231.75	-4.100
232.12	-3.118
232.48	-1.699
232.85	-3.494
233.21	-1.840
233.58	-0.437
233.94	1.518
234.31	-1.570
234.68	-2.388
235.04	-3.099
235.41	-3.650
235.77	-3.122
236.14	-3.681
236.50	-5.708
236.87	-4.234
237.23	-5.686
237.60	-4.079
237.96	-4.448
238.33	-2.387
238.69	-1.477
239.06	-1.586
239.42	-0.786
239.79	-0.563
240.15	0.217
240.52	0.353
240.88	0.195
241.25	0.796
241.61	0.417
241.98	0.056
242.34	-0.440
242.71	0.075
243.07	0.726
243.44	0.506
243.80	0.718
244.17	0.756
244.53	0.959
244.90	0.928
245.26	0.822
245.63	0.546
245.99	0.648
246.36	0.946
246.72	0.380
247.09	0.278
247.45	0.421
247.81	0.282
248.18	0.089
248.54	-0.235
248.91	-0.354
249.27	-0.109
249.64	0.108
250.00	0.140
250.36	0.557
250.73	0.978
251.09	1.070
251.46	1.065
251.82	1.276
252.19	1.620
252.55	2.010
252.91	1.913
253.28	1.199
253.64	1.050
254.01	1.129
254.37	0.503
254.73	0.636
255.10	0.816
255.46	1.169
255.83	1.114
256.19	1.174
256.55	1.180
256.92	1.399
257.28	1.613
257.65	2.003
258.01	2.090
258.37	2.047
258.74	1.872
259.10	1.908
259.46	1.766
259.83	1.793
260.19	1.645
260.55	1.672
260.92	1.419
261.28	1.406
261.64	0.865
262.01	0.513
262.37	0.389
262.73	0.315
263.10	0.072
263.46	0.289
263.82	0.199
264.19	0.228
264.55	0.299
264.91	0.613
265.28	0.686
265.64	0.995
266.00	0.864
266.37	0.765
266.73	0.984
267.09	1.085
267.46	1.052
267.82	0.818
268.18	0.824
268.54	0.578
268.91	0.458
269.27	0.528
269.63	0.519
270.00	0.784
270.36	0.968
270.72	0.828
271.08	0.216
271.45	0.175
271.81	0.643
272.17	0.794
272.53	0.804
272.90	0.864
273.26	0.696
273.62	0.681
273.98	0.559
274.35	0.400
274.71	0.491
275.07	0.862
275.43	0.982
275.80	0.982
276.16	1.192
276.52	1.315
276.88	1.111
277.25	1.142
277.61	1.223
277.97	1.336
278.33	1.197
278.69	1.319
279.06	1.604
279.42	1.146
279.78	0.879
280.14	0.676
280.50	0.658
280.87	0.923
281.23	1.005
281.59	0.999
281.95	0.962
282.31	1.087
282.68	0.941
283.04	0.995
283.40	1.353
283.76	1.270
284.12	1.280
284.48	1.323
284.85	1.173
285.21	1.184
285.57	1.212
285.93	1.285
286.29	1.262
286.65	1.453
287.02	1.306
287.38	1.350
287.74	1.591
288.10	1.535
288.46	1.617
288.82	1.592
289.18	1.480
289.54	1.350
289.91	1.417
290.27	1.632
290.63	1.566
290.99	1.488
291.35	1.444
291.71	1.627
292.07	1.571
292.43	1.727
292.79	2.319
293.16	2.446
293.52	2.598
293.88	2.709
294.24	2.864
294.60	2.947
294.96	3.195
295.32	3.277
295.68	3.082
296.04	3.480
296.40	3.463
296.76	3.317
297.12	3.501
297.49	3.752
297.85	3.909
298.21	4.001
298.57	4.015
298.93	4.162
299.29	4.370
299.65	4.765
300.01	4.730
300.37	4.804
300.73	5.202
301.09	5.529
301.45	5.747
301.81	6.017
302.17	6.363
302.53	6.818
302.89	7.149
303.25	7.201
303.61	7.496
303.97	7.718
304.33	8.033
304.69	8.190
305.05	8.279
305.41	8.453
305.77	8.620
306.13	8.757
306.49	9.002
306.85	9.230
307.21	9.636
307.57	9.829
307.93	10.204
308.29	10.410
308.65	10.508
309.01	10.734
309.37	11.063
309.73	11.232
310.09	11.268
310.45	11.302
310.81	11.416
311.17	11.307
311.53	11.298
311.89	11.271
312.25	11.426
312.61	11.539
312.96	11.665
313.32	11.622
313.68	11.509
314.04	11.595
314.40	11.667
314.76	11.665
315.12	11.903
315.48	12.077
315.84	12.058
316.20	12.188
316.56	12.120
316.92	12.137
317.27	11.957
317.63	11.956
317.99	12.005
318.35	11.982
318.71	11.897
319.07	11.797
319.43	11.782
319.79	11.755
320.15	11.571
320.50	11.499
320.86	11.425
321.22	11.537
321.58	11.615
321.94	11.412
322.30	11.412
322.66	11.490
323.01	11.501
323.37	11.376
323.73	11.474
324.09	11.546
324.45	11.506
324.81	11.443
325.17	11.211
325.52	11.222
325.88	11.158
326.24	11.106
326.60	11.157
326.96	11.212
327.31	11.122
327.67	10.988
328.03	10.806
328.39	10.782
328.75	10.794
329.11	10.939
329.46	10.825
329.82	10.918
330.18	10.923
330.54	10.790
330.90	10.771
331.25	10.756
331.61	10.715
331.97	10.695
332.33	10.714
332.68	10.490
333.04	10.278
333.40	10.325
333.76	10.278
334.11	10.102
334.47	9.948
334.83	9.729
335.19	9.734
335.54	9.744
335.90	9.776
336.26	9.754
336.62	9.844
336.97	9.980
337.33	9.812
337.69	9.717
338.05	9.798
338.40	9.847
338.76	9.875
339.12	9.760
339.48	9.733
339.83	9.633
340.19	9.526
340.55	9.385
340.90	9.294
341.26	9.262
341.62	9.308
341.97	9.294
342.33	9.240
342.69	9.129
343.04	9.122
343.40	8.945
343.76	8.861
344.12	8.958
344.47	8.954
344.83	8.854
345.19	8.841
345.54	8.807
345.90	8.736
346.26	8.715
346.61	8.810
346.97	8.746
347.32	8.816
347.68	8.800
348.04	8.734
348.39	8.812
348.75	8.882
349.11	8.819
349.46	8.783
349.82	8.720
350.18	8.705
350.53	8.569
350.89	8.626
351.24	8.575
351.60	8.624
351.96	8.547
352.31	8.506
352.67	8.390
353.02	8.330
353.38	8.232
353.74	8.212
354.09	8.178
354.45	8.213
354.80	8.120
355.16	8.034
355.52	7.916
355.87	7.875
356.23	7.766
356.58	7.817
356.94	7.811
357.29	7.808
357.65	7.726
358.00	7.655
358.36	7.620
358.72	7.626
359.07	7.652
359.43	7.688
359.78	7.683
360.14	7.649
360.49	7.579
360.85	7.546
361.20	7.514
361.56	7.546
361.91	7.491
362.27	7.413
362.62	7.305
362.98	7.238
363.33	7.172
363.69	7.110
364.04	7.073
364.40	7.062
364.75	7.050
365.11	7.046
365.46	7.016
365.82	7.036
366.17	7.038
366.53	7.093
366.88	7.090
367.24	7.116
367.59	7.204
367.95	7.212
368.30	7.157
368.66	7.118
369.01	7.128
369.37	7.121
369.72	7.089
370.08	7.118
370.43	7.076
370.78	6.985
371.14	6.957
371.49	6.880
371.85	6.868
372.20	6.869
372.56	6.878
372.91	6.763
373.26	6.709
373.62	6.602
373.97	6.565
374.33	6.517
374.68	6.519
375.03	6.473
375.39	6.357
375.74	6.300
376.10	6.218
376.45	6.182
376.80	6.166
377.16	6.142
377.51	6.196
377.87	6.107
378.22	6.076
378.57	6.097
378.93	6.064
379.28	6.087
379.63	6.092
379.99	6.107
380.34	6.075
380.70	6.093
381.05	6.103
381.40	6.051
381.76	6.011
382.11	6.007
382.46	5.918
382.82	5.881
383.17	5.867
383.52	5.828
383.88	5.753
384.23	5.734
384.58	5.684
384.94	5.596
385.29	5.634
385.64	5.616
385.99	5.614
386.35	5.661
386.70	5.629
387.05	5.555
387.41	5.513
387.76	5.484
388.11	5.416
388.47	5.425
388.82	5.353
389.17	5.228
389.52	5.188
389.88	5.115
390.23	5.056
390.58	5.019
390.93	4.993
391.29	4.976
391.64	4.996
391.99	4.957
392.34	4.885
392.70	4.902
393.05	4.891
393.40	4.860
393.75	4.821
394.11	4.779
394.46	4.736
394.81	4.656
395.16	4.576
395.52	4.526
395.87	4.461
396.22	4.410
396.57	4.378
396.92	4.340
397.28	4.338
397.63	4.298
397.98	4.300
398.33	4.270
398.68	4.288
399.04	4.235
399.39	4.168
399.74	4.176
400.09	4.135
400.44	4.076
400.80	4.045
401.15	3.978
401.50	3.923
401.85	3.866
402.20	3.815
402.55	3.793
402.90	3.774
403.26	3.781
403.61	3.755
403.96	3.740
404.31	3.737
404.66	3.706
405.01	3.723
405.36	3.724
405.72	3.694
406.07	3.710
406.42	3.671
406.77	3.645
407.12	3.585
407.47	3.595
407.82	3.581
408.17	3.550
408.53	3.543
408.88	3.518
409.23	3.513
409.58	3.458
409.93	3.406
410.28	3.383
410.63	3.385
410.98	3.396
411.33	3.331
411.68	3.294
412.03	3.280
412.38	3.288
412.73	3.246
413.09	3.211
413.44	3.230
413.79	3.247
414.14	3.254
414.49	3.243
414.84	3.219
415.19	3.238
415.54	3.240
415.89	3.224
416.24	3.193
416.59	3.198
416.94	3.204
417.29	3.196
417.64	3.182
417.99	3.171
418.34	3.175
418.69	3.166
419.04	3.157
419.39	3.159
419.74	3.145
420.09	3.144
420.44	3.135
420.79	3.124
421.14	3.090
421.49	3.073
421.84	3.072
422.19	3.057
422.54	3.055
422.89	3.031
423.24	3.016
423.59	3.006
423.94	3.007
424.29	2.988
424.64	2.966
424.99	2.978
425.34	2.984
425.68	2.955
426.03	2.953
426.38	2.926
426.73	2.940
427.08	2.915
427.43	2.933
427.78	2.920
428.13	2.925
428.48	2.943
428.83	2.964
429.18	2.941
429.53	2.943
429.87	2.940
430.22	2.940
430.57	2.925
430.92	2.926
431.27	2.924
431.62	2.924
431.97	2.908
432.32	2.897
432.67	2.869
433.01	2.869
433.36	2.880
433.71	2.884
434.06	2.904
434.41	2.902
434.76	2.939
435.11	2.944
435.45	2.940
435.80	2.963
436.15	2.961
436.50	2.979
436.85	2.992
437.20	2.990
437.54	2.991
437.89	2.999
438.24	3.024
438.59	3.012
438.94	3.017
439.29	3.024
439.63	3.014
439.98	3.045
440.33	3.054
440.68	3.072
441.03	3.091
441.37	3.096
441.72	3.099
442.07	3.108
442.42	3.130
442.76	3.129
443.11	3.130
443.46	3.151
443.81	3.146
444.16	3.147
444.50	3.132
444.85	3.140
445.20	3.136
445.55	3.130
445.89	3.096
446.24	3.069
446.59	3.062
446.94	3.059
447.28	3.041
447.63	3.026
447.98	3.039
448.32	3.051
448.67	3.021
449.02	3.015
449.37	3.024
449.71	3.058
450.06	3.047
450.41	3.056
450.75	3.052
451.10	3.055
451.45	3.082
451.79	3.057
452.14	3.040
452.49	3.046
452.84	3.039
453.18	3.011
453.53	2.999
453.88	3.027
454.22	3.005
454.57	3.009
454.92	3.037
455.26	3.027
455.61	3.047
455.95	3.078
456.30	3.089
456.65	3.111
456.99	3.125
457.34	3.137
457.69	3.141
458.03	3.153
458.38	3.175
458.73	3.167
459.07	3.170
459.42	3.164
459.76	3.155
460.11	3.144
460.46	3.140
460.80	3.158
461.15	3.152
461.49	3.142
461.84	3.166
462.19	3.167
462.53	3.183
462.88	3.177
463.22	3.170
463.57	3.189
463.91	3.225
464.26	3.238
464.61	3.228
464.95	3.258
465.30	3.259
465.64	3.246
465.99	3.239
466.33	3.229
466.68	3.248
467.02	3.285
467.37	3.284
467.71	3.284
468.06	3.288
468.41	3.296
468.75	3.292
469.10	3.301
469.44	3.303
469.79	3.290
470.13	3.296
470.48	3.263
470.82	3.231
471.17	3.214
471.51	3.189
471.86	3.169
472.20	3.160
472.55	3.152
472.89	3.144
473.23	3.142
473.58	3.137
473.92	3.113
474.27	3.118
474.61	3.106
474.96	3.101
475.30	3.078
475.65	3.070
475.99	3.062
476.34	3.050
476.68	3.038
477.02	3.032
477.37	3.031
477.71	3.029
478.06	3.048
478.40	3.076
478.75	3.119
479.09	3.176
479.43	3.232
479.78	3.277
480.12	3.328
480.47	3.392
480.81	3.451
481.15	3.514
481.50	3.582
481.84	3.650
482.19	3.731
482.53	3.784
482.87	3.807
483.22	3.790
483.56	3.752
483.90	3.687
484.25	3.606
484.59	3.535
484.94	3.471
485.28	3.405
485.62	3.328
485.97	3.236
486.31	3.162
486.65	3.124
487.00	3.122
487.34	3.138
487.68	3.167
488.03	3.205
488.37	3.232
488.71	3.248
489.06	3.251
489.40	3.243
489.74	3.233
490.09	3.224
490.43	3.201
490.77	3.177
491.11	3.163
491.46	3.152
491.80	3.147
492.14	3.129
492.49	3.116
492.83	3.107
493.17	3.093
493.51	3.093
493.86	3.099
494.20	3.106
494.54	3.116
494.88	3.123
495.23	3.141
495.57	3.147
495.91	3.186
496.25	3.192
496.60	3.211
496.94	3.235
497.28	3.258
497.62	3.276
497.97	3.294
498.31	3.313
498.65	3.337
498.99	3.370
499.33	3.400
499.68	3.408
500.02	3.445
500.36	3.462
500.70	3.497
501.04	3.533
501.39	3.547
501.73	3.596
502.07	3.645
502.41	3.696
502.75	3.731
503.09	3.770
503.44	3.819
503.78	3.861
504.12	3.903
504.46	3.961
504.80	4.002
505.14	4.051
505.49	4.074
505.83	4.123
506.17	4.162
506.51	4.182
506.85	4.228
507.19	4.272
507.53	4.313
507.87	4.357
508.22	4.387
508.56	4.423
508.90	4.478
509.24	4.531
509.58	4.557
509.92	4.577
510.26	4.623
510.60	4.662
510.94	4.694
511.28	4.729
511.63	4.775
511.97	4.812
512.31	4.840
512.65	4.863
512.99	4.892
513.33	4.939
513.67	4.997
514.01	5.055
514.35	5.106
514.69	5.134
515.03	5.164
515.37	5.195
515.71	5.230
516.05	5.261
516.39	5.289
516.73	5.319
517.07	5.336
517.41	5.341
517.75	5.337
518.09	5.346
518.43	5.366
518.77	5.377
519.11	5.391
519.45	5.402
519.79	5.399
520.13	5.415
520.47	5.396
520.81	5.412
521.15	5.436
521.49	5.456
521.83	5.437
522.17	5.449
522.51	5.462
522.85	5.465
523.19	5.490
523.53	5.544
523.87	5.579
524.21	5.638
524.55	5.663
524.89	5.689
525.23	5.714
525.57	5.749
525.91	5.776
526.25	5.802
526.58	5.821
526.92	5.822
527.26	5.814
527.60	5.808
527.94	5.789
528.28	5.769
528.62	5.748
528.96	5.726
529.30	5.700
529.64	5.660
529.97	5.616
530.31	5.567
530.65	5.539
530.99	5.514
531.33	5.485
531.67	5.461
532.01	5.439
532.35	5.424
532.68	5.405
533.02	5.385
533.36	5.362
533.70	5.353
534.04	5.355
534.38	5.329
534.71	5.309
535.05	5.291
535.39	5.266
535.73	5.259
536.07	5.228
536.41	5.217
536.74	5.204
537.08	5.206
537.42	5.202
537.76	5.200
538.10	5.191
538.43	5.188
538.77	5.184
539.11	5.196
539.45	5.201
539.79	5.211
540.12	5.203
540.46	5.195
540.80	5.184
541.14	5.155
541.47	5.133
541.81	5.129
542.15	5.115
542.49	5.088
542.82	5.057
543.16	5.033
543.50	4.999
543.84	4.967
544.17	4.940
544.51	4.921
544.85	4.920
545.18	4.908
545.52	4.894
545.86	4.863
546.20	4.858
546.53	4.834
546.87	4.806
547.21	4.771
547.54	4.763
547.88	4.737
548.22	4.709
548.55	4.692
548.89	4.690
549.23	4.666
549.56	4.673
549.90	4.684
550.24	4.681
550.57	4.678
550.91	4.689
551.25	4.680
551.58	4.699
551.92	4.698
552.26	4.696
552.59	4.681
552.93	4.672
553.27	4.668
553.60	4.620
553.94	4.609
554.27	4.596
554.61	4.618
554.95	4.653
555.28	4.654
555.62	4.670
555.95	4.689
556.29	4.693
556.63	4.702
556.96	4.709
557.30	4.724
557.63	4.734
557.97	4.729
558.31	4.724
558.64	4.695
558.98	4.702
559.31	4.695
559.65	4.693
559.98	4.699
560.32	4.694
560.65	4.674
560.99	4.686
561.33	4.699
561.66	4.729
562.00	4.731
562.33	4.752
562.67	4.750
563.00	4.773
563.34	4.769
563.67	4.766
564.01	4.770
564.34	4.780
564.68	4.786
565.01	4.777
565.35	4.768
565.68	4.769
566.02	4.778
566.35	4.797
566.69	4.807
567.02	4.816
567.36	4.843
567.69	4.866
568.03	4.875
568.36	4.893
568.69	4.918
569.03	4.944
569.36	4.974
569.70	4.958
570.03	4.957
570.37	4.940
570.70	4.960
571.04	4.955
571.37	4.953
571.70	4.969
572.04	4.959
572.37	4.950
572.71	4.951
573.04	4.938
573.37	4.975
573.71	4.981
574.04	5.001
574.38	4.996
574.71	5.007
575.04	5.018
575.38	5.023
575.71	5.055
576.05	5.072
576.38	5.083
576.71	5.098
577.05	5.084
577.38	5.100
577.71	5.113
578.05	5.115
578.38	5.126
578.71	5.157
579.05	5.157
579.38	5.182
579.71	5.213
580.05	5.204
580.38	5.205
580.71	5.222
581.05	5.234
581.38	5.261
581.71	5.296
582.05	5.301
582.38	5.316
582.71	5.351
583.04	5.330
583.38	5.354
583.71	5.402
584.04	5.441
584.38	5.470
584.71	5.497
585.04	5.498
585.37	5.525
585.71	5.560
586.04	5.580
586.37	5.586
586.70	5.644
587.04	5.641
587.37	5.665
587.70	5.674
588.03	5.699
588.37	5.692
588.70	5.732
589.03	5.772
589.36	5.788
589.69	5.811
590.03	5.841
590.36	5.838
590.69	5.890
591.02	5.899
591.35	5.921
591.69	5.943
592.02	6.003
592.35	6.014
592.68	6.018
593.01	6.043
593.35	6.066
593.68	6.114
594.01	6.138
594.34	6.162
594.67	6.198
595.00	6.229
595.34	6.256
595.67	6.273
596.00	6.301
596.33	6.349
596.66	6.369
596.99	6.399
597.32	6.427
597.65	6.470
597.99	6.500
598.32	6.524
598.65	6.572
598.98	6.603
599.31	6.640
599.64	6.729
599.97	6.737
600.30	6.770
600.63	6.796
600.96	6.812
601.30	6.831
601.63	6.847
601.96	6.872
602.29	6.906
602.62	6.934
602.95	6.955
603.28	6.911
603.61	6.924
603.94	6.948
604.27	6.966
604.60	6.981
604.93	7.038
605.26	7.069
605.59	7.092
605.92	7.097
606.25	7.116
606.58	7.163
606.91	7.211
607.24	7.266
607.57	7.297
607.90	7.328
608.23	7.340
608.56	7.330
608.89	7.342
609.22	7.361
609.55	7.378
609.88	7.401
610.21	7.417
610.54	7.429
610.87	7.419
611.20	7.453
611.53	7.474
611.86	7.517
612.19	7.578
612.52	7.596
612.85	7.589
613.18	7.628
613.51	7.607
613.84	7.597
614.17	7.637
614.49	7.639
614.82	7.628
615.15	7.643
615.48	7.673
615.81	7.652
616.14	7.669
616.47	7.713
616.80	7.705
617.13	7.722
617.46	7.740
617.78	7.710
618.11	7.757
618.44	7.767
618.77	7.765
619.10	7.755
619.43	7.756
619.76	7.768
620.09	7.801
620.41	7.824
620.74	7.857
621.07	7.860
621.40	7.881
621.73	7.876
622.06	7.885
622.38	7.877
622.71	7.845
623.04	7.826
623.37	7.830
623.70	7.788
624.02	7.755
624.35	7.741
624.68	7.722
625.01	7.729
625.34	7.706
625.66	7.695
625.99	7.692
626.32	7.706
626.65	7.714
626.98	7.701
627.30	7.721
627.63	7.753
627.96	7.787
628.29	7.790
628.61	7.807
628.94	7.814
629.27	7.825
629.60	7.881
629.92	7.861
630.25	7.890
630.58	7.887
630.91	7.867
631.23	7.868
631.56	7.866
631.89	7.916
632.21	7.905
632.54	7.913
632.87	7.931
633.19	7.911
633.52	7.922
633.85	7.941
634.18	7.920
634.50	7.970
634.83	7.958
635.16	7.974
635.48	7.948
635.81	7.962
636.14	7.981
636.46	7.969
636.79	7.982
637.11	8.035
637.44	8.034
637.77	8.101
638.09	8.052
638.42	8.051
638.75	8.047
639.07	8.051
639.40	8.037
639.73	8.051
640.05	8.067
640.38	8.051
640.70	8.057
641.03	8.023
641.36	7.999
641.68	8.016
642.01	8.013
642.33	8.009
642.66	8.016
642.98	7.995
643.31	7.954
643.64	7.933
643.96	7.882
644.29	7.854
644.61	7.872
644.94	7.877
645.26	7.858
645.59	7.869
645.91	7.840
646.24	7.841
646.56	7.867
646.89	7.866
647.22	7.864
647.54	7.886
647.87	7.856
648.19	7.851
648.52	7.849
648.84	7.868
649.17	7.848
649.49	7.850
649.82	7.812
650.14	7.795
650.47	7.786
650.79	7.717
651.11	7.721
651.44	7.715
651.76	7.701
652.09	7.693
652.41	7.681
652.74	7.675
653.06	7.626
653.39	7.647
653.71	7.658
654.04	7.662
654.36	7.716
654.68	7.696
655.01	7.707
655.33	7.657
655.66	7.624
655.98	7.564
656.30	7.541
656.63	7.558
656.95	7.517
657.28	7.494
657.60	7.481
657.92	7.439
658.25	7.447
658.57	7.424
658.90	7.444
659.22	7.447
659.54	7.545
659.87	7.541
660.19	7.575
660.51	7.622
660.84	7.648
661.16	7.694
661.48	7.756
661.81	7.734
662.13	7.760
662.45	7.735
662.78	7.728
663.10	7.682
663.42	7.739
663.75	7.734
664.07	7.730
664.39	7.711
664.72	7.657
665.04	7.636
665.36	7.632
665.69	7.620
666.01	7.647
666.33	7.658
666.65	7.654
666.98	7.611
667.30	7.571
667.62	7.468
667.94	7.455
668.27	7.485
668.59	7.483
668.91	7.478
669.23	7.566
669.56	7.564
669.88	7.529
670.20	7.446
670.52	7.350
670.85	7.389
671.17	7.491
671.49	7.569
671.81	7.533
672.13	7.548
672.46	7.586
672.78	7.450
673.10	7.394
673.42	7.390
673.74	7.471
674.07	7.565
674.39	7.497
674.71	7.421
675.03	7.350
675.35	7.345
675.67	7.336
676.00	7.328
676.32	7.339
676.64	7.364
676.96	7.354
677.28	7.296
677.60	7.278
677.92	7.296
678.25	7.337
678.57	7.326
678.89	7.273
679.21	7.258
679.53	7.263
679.85	7.266
680.17	7.302
680.49	7.312
680.81	7.334
681.13	7.360
681.46	7.379
681.78	7.431
682.10	7.428
682.42	7.472
682.74	7.464
683.06	7.432
683.38	7.426
683.70	7.416
684.02	7.421
684.34	7.425
684.66	7.422
684.98	7.416
685.30	7.402
685.62	7.410
685.94	7.395
686.26	7.416
686.58	7.399
686.90	7.426
687.22	7.390
687.54	7.377
687.86	7.364
688.18	7.341
688.50	7.290
688.82	7.198
689.14	7.166
689.46	7.250
689.78	7.224
690.10	7.236
690.42	7.222
690.74	7.251
691.06	7.263
691.38	7.318
691.70	7.353
692.02	7.370
692.34	7.395
692.66	7.411
692.98	7.310
693.30	7.347
693.62	7.325
693.94	7.291
694.26	7.350
694.57	7.312
694.89	7.276
695.21	7.270
695.53	7.245
695.85	7.270
696.17	7.211
696.49	7.177
696.81	7.126
697.13	7.123
697.44	7.110
697.76	7.014
698.08	7.006
698.40	7.011
698.72	6.969
699.04	6.962
699.36	6.919
699.67	6.945
699.99	6.914
700.31	6.904
700.63	6.944
700.95	6.987
701.27	7.012
701.58	7.017
701.90	6.949
702.22	6.958
702.54	6.987
702.86	6.998
703.17	6.987
703.49	7.074
703.81	7.110
704.13	7.084
704.45	7.020
704.76	6.973
705.08	6.932
705.40	6.986
705.72	6.950
706.03	6.923
706.35	6.935
706.67	6.929
706.99	6.898
707.30	6.849
707.62	6.816
707.94	6.847
708.26	6.810
708.57	6.871
708.89	6.877
709.21	6.814
709.53	6.823
709.84	6.806
710.16	6.823
710.48	6.853
710.79	6.846
711.11	6.877
711.43	6.831
711.74	6.819
712.06	6.805
712.38	6.675
712.69	6.727
713.01	6.749
713.33	6.719
713.64	6.681
713.96	6.647
714.28	6.721
714.59	6.653
714.91	6.762
715.23	6.795
715.54	6.780
715.86	6.858
716.17	6.920
716.49	6.883
716.81	6.910
717.12	6.975
717.44	7.062
717.76	7.005
718.07	7.010
718.39	6.929
718.70	6.954
719.02	6.869
719.33	6.893
719.65	6.850
719.97	6.849
720.28	6.886
720.60	6.818
720.91	6.776
721.23	6.780
721.54	6.849
721.86	6.899
722.17	6.862
722.49	6.967
722.81	6.903
723.12	6.813
723.44	6.753
723.75	6.772
724.07	6.728
724.38	6.674
724.70	6.686
725.01	6.647
725.33	6.555
725.64	6.539
725.96	6.555
726.27	6.481
726.59	6.527
726.90	6.524
727.22	6.471
727.53	6.479
727.84	6.445
728.16	6.346
728.47	6.364
728.79	6.408
729.10	6.464
729.42	6.458
729.73	6.565
730.05	6.611
730.36	6.691
730.67	6.609
730.99	6.547
731.30	6.532
731.62	6.555
731.93	6.542
732.24	6.462
732.56	6.400
732.87	6.240
733.19	6.171
733.50	6.144
733.81	6.068
734.13	6.151
734.44	6.236
734.76	6.256
735.07	6.181
735.38	6.091
735.70	6.099
736.01	6.087
736.32	6.199
736.64	6.232
736.95	6.136
737.26	5.992
737.58	5.888
737.89	5.928
738.20	5.871
738.52	5.933
738.83	5.857
739.14	5.876
739.45	5.973
739.77	6.010
740.08	5.917
740.39	5.859
740.71	5.955
741.02	6.163
741.33	6.193
741.64	6.133
741.96	6.066
742.27	6.114
742.58	5.978
742.90	5.968
743.21	5.719
743.52	5.736
743.83	5.979
744.14	5.939
744.46	5.699
744.77	5.455
745.08	5.626
745.39	5.580
745.71	5.569
746.02	5.649
746.33	5.361
746.64	5.504
746.95	5.470
747.27	5.363
747.58	5.518
747.89	5.530
748.20	5.613
748.51	5.598
748.82	5.736
749.14	5.709
749.45	5.704
749.76	5.709
750.07	5.735
750.38	5.813
750.69	5.843
751.01	5.749
751.32	5.843
751.63	5.845
751.94	5.898
752.25	5.836
752.56	5.896
752.87	6.059
753.18	6.215
753.49	6.096
753.81	5.995
754.12	5.825
754.43	5.941
754.74	5.813
755.05	5.734
755.36	5.693
755.67	5.699
755.98	5.769
756.29	5.614
756.60	5.530
756.91	5.699
757.22	5.844
757.53	5.939
757.84	5.860
758.15	5.881
758.46	6.054
758.77	6.038
759.09	6.074
759.40	6.122
759.71	6.285
760.02	6.382
760.33	6.344
760.64	6.441
760.95	6.428
761.26	6.494
761.57	6.550
761.88	6.446
762.18	6.462
762.49	6.457
762.80	6.407
763.11	6.333
763.42	6.297
763.73	6.403
764.04	6.143
764.35	6.153
764.66	6.069
764.97	5.993
765.28	6.057
765.59	6.043
765.90	6.054
766.21	6.303
766.52	6.409
766.83	6.448
767.14	6.250
767.44	6.435
767.75	6.377
768.06	6.427
768.37	6.321
768.68	6.339
768.99	6.149
769.30	6.071
769.61	5.535
769.91	5.310
770.22	5.254
770.53	5.333
770.84	5.641
771.15	5.963
771.46	5.951
771.77	6.092
772.07	6.095
772.38	6.154
772.69	6.077
773.00	6.063
773.31	6.264
773.61	6.116
773.92	6.033
774.23	5.557
774.54	5.271
774.85	5.140
775.15	5.018
775.46	5.034
775.77	4.834
776.08	4.720
776.39	4.774
776.69	4.373
777.00	4.568
777.31	4.553
777.62	4.696
777.92	4.493
778.23	4.566
778.54	4.546
778.85	4.408
779.15	4.650
779.46	4.811
779.77	4.987
780.07	4.970
780.38	4.936
780.69	4.880
781.00	4.858
781.30	4.862
781.61	4.751
781.92	4.910
782.22	4.906
782.53	4.849
782.84	5.040
783.14	5.018
783.45	5.494
783.76	5.655
784.06	5.723
784.37	5.739
784.68	5.928
784.98	6.139
785.29	6.242
785.60	6.553
785.90	6.817
786.21	6.701
786.51	6.722
786.82	6.184
787.13	6.171
787.43	6.203
787.74	6.055
788.04	6.174
788.35	6.100
788.66	5.998
788.96	5.691
789.27	5.727
789.57	5.753
789.88	5.755
790.19	6.379
790.49	6.371
790.80	6.490
791.10	6.722
791.41	6.488
791.71	6.618
792.02	6.976
792.32	6.917
792.63	6.721
792.93	6.798
793.24	6.649
793.54	6.045
793.85	6.190
794.15	6.026
794.46	5.811
794.76	6.042
795.07	5.943
795.37	5.756
795.68	5.731
795.98	5.810
796.29	5.814
796.59	5.789
796.90	6.149
797.20	5.789
797.51	5.919
797.81	5.904
798.12	5.874
798.42	5.678
798.72	5.485
799.03	5.448
799.33	5.489
799.64	5.255
799.94	5.609
800.25	5.794
800.55	6.118
800.85	6.141
801.16	6.528
801.46	6.658
801.77	6.663
802.07	6.708
802.37	6.910
802.68	6.717
802.98	6.826
803.28	6.475
803.59	6.185
803.89	5.998
804.20	5.929
804.50	5.657
804.80	5.219
805.11	5.588
805.41	5.611
805.71	5.730
806.02	5.933
806.32	6.102
806.62	6.164
806.93	6.201
807.23	6.396
807.53	6.524
807.83	6.600
808.14	6.771
808.44	6.776
808.74	7.091
809.05	7.352
809.35	6.993
809.65	6.848
809.95	6.784
810.26	6.824
810.56	6.910
810.86	7.009
811.16	7.000
811.47	7.143
811.77	7.514
812.07	7.471
812.37	6.996
812.68	7.293
812.98	7.787
813.28	7.972
813.58	7.740
813.88	7.499
814.19	7.568
814.49	7.681
814.79	7.385
815.09	6.862
815.39	6.457
815.70	6.848
816.00	6.344
816.30	5.871
816.60	5.790
816.90	6.213
817.20	6.266
817.50	6.116
817.81	6.131
818.11	6.311
818.41	6.263
818.71	6.311
819.01	6.311
819.31	6.493
819.61	6.534
819.92	6.629
820.22	6.659
820.52	6.738
820.82	6.792
821.12	6.859
821.42	6.792
821.72	6.842
822.02	6.814
822.32	6.755
822.62	6.748
822.92	6.747
823.22	6.717
823.52	6.734
823.83	6.570
824.13	6.554
824.43	6.439
824.73	6.518
825.03	6.462
825.33	6.541
825.63	6.707
825.93	6.702
826.23	6.638
826.53	6.583
826.83	6.528
827.13	6.725
827.43	6.475
827.73	6.496
828.03	6.435
828.33	6.399
828.63	6.478
828.93	6.312
829.23	6.143
829.53	6.193
829.83	6.267
830.13	5.909
830.42	5.662
830.72	6.052
831.02	6.111
831.32	6.139
831.62	6.245
831.92	6.183
832.22	6.364
832.52	6.607
832.82	6.732
833.12	6.671
833.42	6.856
833.72	7.206
834.01	7.141
834.31	7.304
834.61	7.470
834.91	7.658
835.21	7.605
835.51	7.516
835.81	7.728
836.11	7.926
836.40	7.817
836.70	8.216
837.00	8.016
837.30	7.898
837.60	7.906
837.90	7.883
838.19	7.467
838.49	7.552
838.79	7.641
839.09	7.318
839.39	7.365
839.68	7.817
839.98	7.550
840.28	7.110
840.58	7.130
840.88	6.515
841.17	5.846
841.47	6.245
841.77	6.153
842.07	5.953
842.36	5.947
842.66	5.721
842.96	6.135
843.26	5.030
843.55	4.528
843.85	4.708
844.15	4.944
844.45	6.369
844.74	5.674
845.04	6.009
845.34	5.807
845.63	4.775
845.93	4.906
846.23	4.535
846.53	5.030
846.82	6.099
847.12	6.555
847.42	4.803
847.71	3.109
848.01	2.992
848.31	2.965
848.60	2.205
848.90	2.020
849.19	1.273
849.49	1.155
849.79	1.643
850.08	2.452
850.38	1.835
850.68	4.182
850.97	5.252
851.27	6.296
851.56	5.244
851.86	4.787
852.16	5.428
852.45	5.699
852.75	5.670
853.04	4.092
853.34	3.951
853.64	3.306
853.93	1.795
854.23	1.228
854.52	0.372
854.82	0.908
855.11	2.067
855.41	3.042
855.70	4.486
856.00	3.987
856.30	5.024
856.59	2.817
856.89	4.031
857.18	5.456
857.48	5.267
857.77	4.007
858.07	6.040
858.36	6.681
858.66	5.296
858.95	5.432
859.25	5.263
859.54	5.449
859.84	7.350
860.13	7.661
860.42	7.754
860.72	8.352
861.01	10.360
861.31	7.511
861.60	7.199
861.90	6.219
862.19	2.718
862.49	3.045
862.78	4.716
863.07	3.705
863.37	2.151
863.66	1.001
863.96	0.606
864.25	-1.314
864.54	0.283
864.84	-1.259
865.13	-0.898
865.43	0.071
865.72	-7.172
866.01	8.022
866.31	-8.886
866.60	-12.528
866.89	1.214
>>>>>End Spectral Data<<<<<
