OOIBase32 Version 2.0.0.6 Data File
++++++++++++++++++++++++++++++++++++
Date: 01-23-2012, 21:58:34
User: Valued Ocean Optics Customer
Spectrometer Serial Number: USB2E2917
Spectrometer Channel: Master
Integration Time (msec): 5
Spectra Averaged: 10
Boxcar Smoothing: 5
Correct for Electrical Dark: Enabled
Time Normalized: Disabled
Dual-beam Reference: Disabled
Reference Channel: Master
Temperature: Not acquired
Spectrometer Type: S2000
ADC Type: USB2000
Number of Pixels in File: 2048
Graph Title: 
>>>>>Begin Spectral Data<<<<<
180.30	0.000
180.67	0.000
181.03	138.876
181.40	-288.209
181.77	2129.933
182.14	51.666
182.51	41.913
182.88	4286.441
183.25	366.044
183.62	149.489
183.99	21.017
184.36	-106.558
184.73	145.481
185.10	-35.845
185.46	26.212
185.83	-10.138
186.20	60.286
186.57	101.413
186.94	17.585
187.31	90.441
187.68	-193.171
188.05	4.237
188.42	23.500
188.78	23.863
189.15	25.628
189.52	22.872
189.89	10.391
190.26	-14.010
190.63	0.105
191.00	-1.617
191.37	11.910
191.73	32.194
192.10	41.348
192.47	35.294
192.84	33.638
193.21	25.693
193.58	29.917
193.94	31.104
194.31	19.141
194.68	11.678
195.05	3.187
195.42	-13.486
195.79	-38.045
196.15	-25.730
196.52	-24.542
196.89	-43.677
197.26	-35.162
197.63	-54.481
198.00	-49.308
198.36	-35.565
198.73	-32.360
199.10	-23.575
199.47	-13.244
199.84	-13.780
200.20	-9.345
200.57	-27.038
200.94	-22.332
201.31	-26.914
201.68	2.676
202.04	-1.469
202.41	5.723
202.78	-3.645
203.15	-9.320
203.51	-48.925
203.88	-32.764
204.25	-43.442
204.62	-19.567
204.98	-9.968
205.35	4.802
205.72	0.571
206.09	2.902
206.46	4.461
206.82	17.979
207.19	11.712
207.56	28.168
207.92	12.231
208.29	-0.615
208.66	-6.751
209.03	-10.060
209.39	-23.585
209.76	-27.040
210.13	-37.970
210.50	-48.120
210.86	-45.188
211.23	-12.291
211.60	-8.616
211.96	6.110
212.33	9.445
212.70	21.354
213.07	26.166
213.43	28.808
213.80	28.001
214.17	25.216
214.53	25.539
214.90	22.872
215.27	11.356
215.63	0.574
216.00	-2.664
216.37	7.766
216.74	-8.155
217.10	-5.367
217.47	-13.089
217.84	-14.059
218.20	0.382
218.57	11.946
218.94	20.081
219.30	25.904
219.67	33.564
220.04	32.414
220.40	26.190
220.77	23.425
221.13	4.902
221.50	-3.351
221.87	-5.357
222.23	-12.450
222.60	-13.462
222.97	-23.220
223.33	-25.581
223.70	-24.097
224.07	-16.647
224.43	-14.624
224.80	-8.836
225.16	-3.191
225.53	2.695
225.90	-0.110
226.26	-0.263
226.63	-0.774
226.99	1.370
227.36	2.274
227.73	1.848
228.09	-1.193
228.46	-0.929
228.82	0.215
229.19	0.277
229.56	-2.678
229.92	-0.944
230.29	1.156
230.65	0.809
231.02	1.900
231.38	-0.240
231.75	-0.093
232.12	2.535
232.48	4.359
232.85	3.444
233.21	4.660
233.58	6.406
233.94	7.116
234.31	5.135
234.68	3.850
235.04	3.154
235.41	4.350
235.77	4.112
236.14	3.063
236.50	1.530
236.87	2.246
237.23	0.129
237.60	0.417
237.96	-0.265
238.33	1.173
238.69	2.465
239.06	2.290
239.42	2.492
239.79	2.774
240.15	2.883
240.52	2.837
240.88	1.809
241.25	2.299
241.61	1.536
241.98	2.453
242.34	1.730
242.71	1.801
243.07	1.882
243.44	1.942
243.80	2.122
244.17	2.408
244.53	3.011
244.90	3.392
245.26	3.415
245.63	3.555
245.99	3.255
246.36	3.757
246.72	3.434
247.09	3.440
247.45	3.288
247.81	2.970
248.18	2.592
248.54	2.308
248.91	2.010
249.27	1.991
249.64	1.626
250.00	1.863
250.36	1.754
250.73	2.161
251.09	2.376
251.46	2.734
251.82	2.824
252.19	3.300
252.55	3.030
252.91	3.072
253.28	2.862
253.64	3.071
254.01	2.844
254.37	2.601
254.73	3.053
255.10	3.291
255.46	3.227
255.83	3.161
256.19	2.823
256.55	2.776
256.92	2.885
257.28	2.919
257.65	3.187
258.01	3.218
258.37	2.948
258.74	2.651
259.10	2.435
259.46	2.561
259.83	2.805
260.19	2.764
260.55	2.628
260.92	2.600
261.28	2.331
261.64	2.264
262.01	2.013
262.37	2.001
262.73	1.977
263.10	2.157
263.46	2.338
263.82	2.201
264.19	2.176
264.55	2.486
264.91	2.652
265.28	3.218
265.64	2.944
266.00	2.917
266.37	2.992
266.73	3.372
267.09	3.140
267.46	2.862
267.82	2.664
268.18	2.997
268.54	2.761
268.91	2.670
269.27	2.667
269.63	2.854
270.00	2.961
270.36	3.011
270.72	2.631
271.08	2.365
271.45	2.251
271.81	2.662
272.17	2.489
272.53	2.453
272.90	2.209
273.26	1.960
273.62	1.766
273.98	1.681
274.35	1.609
274.71	1.927
275.07	2.223
275.43	2.365
275.80	1.980
276.16	2.402
276.52	2.278
276.88	2.168
277.25	1.951
277.61	2.146
277.97	1.890
278.33	1.678
278.69	1.384
279.06	1.568
279.42	1.424
279.78	1.588
280.14	1.416
280.50	1.589
280.87	1.792
281.23	2.123
281.59	2.010
281.95	2.218
282.31	2.552
282.68	2.737
283.04	2.649
283.40	2.660
283.76	2.524
284.12	2.590
284.48	2.557
284.85	2.611
285.21	2.388
285.57	2.425
285.93	2.472
286.29	2.354
286.65	2.285
287.02	2.236
287.38	2.257
287.74	2.388
288.10	2.246
288.46	2.241
288.82	2.143
289.18	2.183
289.54	2.001
289.91	2.107
290.27	2.085
290.63	2.025
290.99	1.857
291.35	2.003
291.71	2.098
292.07	2.171
292.43	2.217
292.79	2.585
293.16	2.846
293.52	3.063
293.88	2.924
294.24	3.013
294.60	2.997
294.96	3.098
295.32	3.013
295.68	2.778
296.04	2.852
296.40	2.826
296.76	2.591
297.12	2.506
297.49	2.566
297.85	2.674
298.21	2.747
298.57	2.760
298.93	2.935
299.29	3.002
299.65	3.170
300.01	3.180
300.37	3.225
300.73	3.570
301.09	3.696
301.45	3.759
301.81	3.758
302.17	3.836
302.53	3.828
302.89	3.663
303.25	3.537
303.61	3.617
303.97	3.447
304.33	3.430
304.69	3.270
305.05	3.165
305.41	3.057
305.77	3.044
306.13	2.902
306.49	3.039
306.85	3.161
307.21	3.255
307.57	3.165
307.93	3.233
308.29	3.217
308.65	3.055
309.01	3.039
309.37	3.168
309.73	3.166
310.09	3.121
310.45	3.056
310.81	3.022
311.17	2.899
311.53	2.917
311.89	3.021
312.25	3.059
312.61	3.174
312.96	3.262
313.32	3.129
313.68	3.128
314.04	3.129
314.40	3.125
314.76	3.081
315.12	3.173
315.48	3.199
315.84	3.024
316.20	3.082
316.56	3.103
316.92	3.004
317.27	2.961
317.63	2.934
317.99	3.011
318.35	2.945
318.71	2.959
319.07	2.976
319.43	2.950
319.79	3.013
320.15	2.900
320.50	2.743
320.86	2.836
321.22	2.870
321.58	2.959
321.94	2.952
322.30	3.073
322.66	3.138
323.01	3.261
323.37	3.333
323.73	3.394
324.09	3.579
324.45	3.787
324.81	3.731
325.17	3.719
325.52	3.706
325.88	3.702
326.24	3.761
326.60	3.802
326.96	3.876
327.31	3.832
327.67	3.857
328.03	3.798
328.39	3.651
328.75	3.662
329.11	3.660
329.46	3.689
329.82	3.633
330.18	3.655
330.54	3.655
330.90	3.599
331.25	3.644
331.61	3.537
331.97	3.446
332.33	3.622
332.68	3.533
333.04	3.564
333.40	3.611
333.76	3.755
334.11	3.660
334.47	3.675
334.83	3.579
335.19	3.600
335.54	3.686
335.90	3.820
336.26	3.760
336.62	3.950
336.97	3.893
337.33	3.803
337.69	3.766
338.05	3.835
338.40	3.756
338.76	3.813
339.12	3.737
339.48	3.784
339.83	3.736
340.19	3.735
340.55	3.629
340.90	3.667
341.26	3.677
341.62	3.671
341.97	3.684
342.33	3.836
342.69	3.831
343.04	3.911
343.40	3.846
343.76	3.889
344.12	3.949
344.47	4.066
344.83	4.038
345.19	4.048
345.54	4.113
345.90	4.083
346.26	3.951
346.61	3.966
346.97	3.892
347.32	3.978
347.68	3.913
348.04	3.862
348.39	3.820
348.75	3.974
349.11	3.996
349.46	3.949
349.82	3.883
350.18	3.996
350.53	3.944
350.89	3.991
351.24	3.921
351.60	3.879
351.96	3.911
352.31	3.910
352.67	3.859
353.02	3.827
353.38	3.764
353.74	3.771
354.09	3.678
354.45	3.776
354.80	3.735
355.16	3.728
355.52	3.820
355.87	3.766
356.23	3.739
356.58	3.745
356.94	3.760
357.29	3.809
357.65	3.838
358.00	3.866
358.36	3.789
358.72	3.857
359.07	3.912
359.43	3.906
359.78	3.916
360.14	3.898
360.49	3.888
360.85	3.909
361.20	3.974
361.56	4.027
361.91	4.005
362.27	4.052
362.62	4.045
362.98	3.960
363.33	3.921
363.69	3.891
364.04	3.918
364.40	3.894
364.75	3.852
365.11	3.818
365.46	3.755
365.82	3.795
366.17	3.784
366.53	3.830
366.88	3.886
367.24	3.993
367.59	4.022
367.95	4.104
368.30	4.101
368.66	4.134
369.01	4.118
369.37	4.216
369.72	4.233
370.08	4.288
370.43	4.235
370.78	4.297
371.14	4.294
371.49	4.304
371.85	4.248
372.20	4.299
372.56	4.325
372.91	4.326
373.26	4.307
373.62	4.323
373.97	4.332
374.33	4.357
374.68	4.292
375.03	4.302
375.39	4.297
375.74	4.334
376.10	4.299
376.45	4.349
376.80	4.430
377.16	4.465
377.51	4.497
377.87	4.439
378.22	4.490
378.57	4.555
378.93	4.575
379.28	4.676
379.63	4.708
379.99	4.796
380.34	4.795
380.70	4.812
381.05	4.885
381.40	4.883
381.76	4.940
382.11	4.975
382.46	4.985
382.82	4.963
383.17	4.980
383.52	5.004
383.88	4.993
384.23	5.031
384.58	5.008
384.94	4.964
385.29	5.009
385.64	5.074
385.99	5.118
386.35	5.173
386.70	5.209
387.05	5.199
387.41	5.216
387.76	5.273
388.11	5.276
388.47	5.363
388.82	5.366
389.17	5.358
389.52	5.372
389.88	5.352
390.23	5.394
390.58	5.436
390.93	5.477
391.29	5.525
391.64	5.549
391.99	5.557
392.34	5.543
392.70	5.572
393.05	5.597
393.40	5.638
393.75	5.695
394.11	5.680
394.46	5.719
394.81	5.693
395.16	5.681
395.52	5.737
395.87	5.753
396.22	5.773
396.57	5.791
396.92	5.825
397.28	5.847
397.63	5.818
397.98	5.861
398.33	5.856
398.68	5.930
399.04	5.973
399.39	5.960
399.74	6.024
400.09	6.023
400.44	6.078
400.80	6.110
401.15	6.115
401.50	6.145
401.85	6.198
402.20	6.228
402.55	6.267
402.90	6.285
403.26	6.339
403.61	6.365
403.96	6.432
404.31	6.442
404.66	6.490
405.01	6.523
405.36	6.586
405.72	6.585
406.07	6.642
406.42	6.655
406.77	6.694
407.12	6.699
407.47	6.749
407.82	6.790
408.17	6.826
408.53	6.844
408.88	6.904
409.23	6.938
409.58	6.930
409.93	6.930
410.28	6.966
410.63	6.997
410.98	7.062
411.33	7.056
411.68	7.055
412.03	7.101
412.38	7.171
412.73	7.183
413.09	7.225
413.44	7.294
413.79	7.326
414.14	7.361
414.49	7.409
414.84	7.403
415.19	7.453
415.54	7.496
415.89	7.504
416.24	7.515
416.59	7.558
416.94	7.570
417.29	7.588
417.64	7.622
417.99	7.661
418.34	7.675
418.69	7.695
419.04	7.707
419.39	7.732
419.74	7.764
420.09	7.763
420.44	7.773
420.79	7.793
421.14	7.811
421.49	7.824
421.84	7.835
422.19	7.842
422.54	7.880
422.89	7.901
423.24	7.920
423.59	7.958
423.94	7.999
424.29	8.030
424.64	8.050
424.99	8.095
425.34	8.130
425.68	8.165
426.03	8.218
426.38	8.240
426.73	8.299
427.08	8.313
427.43	8.340
427.78	8.377
428.13	8.421
428.48	8.453
428.83	8.469
429.18	8.497
429.53	8.511
429.87	8.534
430.22	8.529
430.57	8.536
430.92	8.566
431.27	8.583
431.62	8.577
431.97	8.566
432.32	8.599
432.67	8.606
433.01	8.614
433.36	8.633
433.71	8.651
434.06	8.688
434.41	8.714
434.76	8.730
435.11	8.739
435.45	8.750
435.80	8.756
436.15	8.755
436.50	8.748
436.85	8.762
437.20	8.785
437.54	8.800
437.89	8.800
438.24	8.798
438.59	8.809
438.94	8.826
439.29	8.854
439.63	8.864
439.98	8.890
440.33	8.915
440.68	8.922
441.03	8.916
441.37	8.916
441.72	8.940
442.07	8.951
442.42	8.970
442.76	8.960
443.11	8.978
443.46	8.974
443.81	8.956
444.16	8.972
444.50	8.982
444.85	8.998
445.20	9.014
445.55	9.015
445.89	9.025
446.24	9.003
446.59	9.022
446.94	9.016
447.28	9.044
447.63	9.070
447.98	9.094
448.32	9.106
448.67	9.115
449.02	9.113
449.37	9.138
449.71	9.137
450.06	9.165
450.41	9.190
450.75	9.211
451.10	9.217
451.45	9.230
451.79	9.226
452.14	9.238
452.49	9.255
452.84	9.276
453.18	9.267
453.53	9.299
453.88	9.337
454.22	9.350
454.57	9.365
454.92	9.394
455.26	9.419
455.61	9.452
455.95	9.481
456.30	9.480
456.65	9.465
456.99	9.497
457.34	9.503
457.69	9.514
458.03	9.510
458.38	9.525
458.73	9.540
459.07	9.567
459.42	9.574
459.76	9.567
460.11	9.579
460.46	9.633
460.80	9.672
461.15	9.711
461.49	9.718
461.84	9.744
462.19	9.767
462.53	9.802
462.88	9.804
463.22	9.828
463.57	9.895
463.91	9.967
464.26	9.979
464.61	9.983
464.95	10.002
465.30	10.033
465.64	10.068
465.99	10.092
466.33	10.103
466.68	10.138
467.02	10.151
467.37	10.146
467.71	10.133
468.06	10.159
468.41	10.167
468.75	10.175
469.10	10.187
469.44	10.203
469.79	10.225
470.13	10.250
470.48	10.229
470.82	10.250
471.17	10.262
471.51	10.278
471.86	10.283
472.20	10.292
472.55	10.307
472.89	10.336
473.23	10.357
473.58	10.364
473.92	10.371
474.27	10.410
474.61	10.411
474.96	10.415
475.30	10.401
475.65	10.408
475.99	10.419
476.34	10.432
476.68	10.436
477.02	10.430
477.37	10.425
477.71	10.428
478.06	10.439
478.40	10.486
478.75	10.565
479.09	10.667
479.43	10.770
479.78	10.889
480.12	11.014
480.47	11.163
480.81	11.333
481.15	11.506
481.50	11.691
481.84	11.909
482.19	12.131
482.53	12.306
482.87	12.384
483.22	12.370
483.56	12.246
483.90	12.066
484.25	11.838
484.59	11.621
484.94	11.451
485.28	11.281
485.62	11.068
485.97	10.837
486.31	10.641
486.65	10.540
487.00	10.521
487.34	10.604
487.68	10.736
488.03	10.895
488.37	11.025
488.71	11.080
489.06	11.106
489.40	11.109
489.74	11.114
490.09	11.127
490.43	11.136
490.77	11.139
491.11	11.145
491.46	11.147
491.80	11.154
492.14	11.140
492.49	11.141
492.83	11.143
493.17	11.156
493.51	11.170
493.86	11.186
494.20	11.194
494.54	11.210
494.88	11.237
495.23	11.268
495.57	11.286
495.91	11.326
496.25	11.352
496.60	11.373
496.94	11.400
497.28	11.423
497.62	11.457
497.97	11.498
498.31	11.554
498.65	11.575
498.99	11.612
499.33	11.664
499.68	11.698
500.02	11.732
500.36	11.762
500.70	11.811
501.04	11.857
501.39	11.873
501.73	11.916
502.07	11.927
502.41	11.977
502.75	12.016
503.09	12.052
503.44	12.103
503.78	12.158
504.12	12.207
504.46	12.236
504.80	12.256
505.14	12.285
505.49	12.306
505.83	12.357
506.17	12.401
506.51	12.422
506.85	12.444
507.19	12.471
507.53	12.502
507.87	12.530
508.22	12.569
508.56	12.606
508.90	12.651
509.24	12.692
509.58	12.734
509.92	12.751
510.26	12.797
510.60	12.856
510.94	12.890
511.28	12.915
511.63	12.967
511.97	12.995
512.31	13.053
512.65	13.095
512.99	13.131
513.33	13.194
513.67	13.242
514.01	13.288
514.35	13.316
514.69	13.379
515.03	13.416
515.37	13.444
515.71	13.496
516.05	13.519
516.39	13.541
516.73	13.574
517.07	13.578
517.41	13.601
517.75	13.617
518.09	13.631
518.43	13.639
518.77	13.666
519.11	13.684
519.45	13.701
519.79	13.723
520.13	13.770
520.47	13.782
520.81	13.827
521.15	13.861
521.49	13.888
521.83	13.918
522.17	13.965
522.51	14.017
522.85	14.064
523.19	14.142
523.53	14.281
523.87	14.384
524.21	14.516
524.55	14.618
524.89	14.711
525.23	14.814
525.57	14.900
525.91	14.957
526.25	15.023
526.58	15.097
526.92	15.134
527.26	15.138
527.60	15.138
527.94	15.120
528.28	15.119
528.62	15.094
528.96	15.071
529.30	15.044
529.64	15.023
529.97	14.993
530.31	14.952
530.65	14.932
530.99	14.927
531.33	14.939
531.67	14.962
532.01	14.954
532.35	14.995
532.68	15.006
533.02	15.028
533.36	15.040
533.70	15.056
534.04	15.074
534.38	15.090
534.71	15.097
535.05	15.107
535.39	15.115
535.73	15.131
536.07	15.147
536.41	15.195
536.74	15.258
537.08	15.311
537.42	15.377
537.76	15.430
538.10	15.488
538.43	15.549
538.77	15.601
539.11	15.640
539.45	15.685
539.79	15.730
540.12	15.743
540.46	15.734
540.80	15.732
541.14	15.711
541.47	15.715
541.81	15.716
542.15	15.712
542.49	15.718
542.82	15.712
543.16	15.712
543.50	15.700
543.84	15.712
544.17	15.754
544.51	15.807
544.85	15.854
545.18	15.867
545.52	15.873
545.86	15.881
546.20	15.900
546.53	15.934
546.87	15.958
547.21	15.983
547.54	16.013
547.88	16.023
548.22	16.049
548.55	16.102
548.89	16.157
549.23	16.203
549.56	16.239
549.90	16.290
550.24	16.331
550.57	16.379
550.91	16.397
551.25	16.422
551.58	16.444
551.92	16.474
552.26	16.461
552.59	16.471
552.93	16.505
553.27	16.538
553.60	16.521
553.94	16.544
554.27	16.555
554.61	16.608
554.95	16.639
555.28	16.711
555.62	16.729
555.95	16.790
556.29	16.843
556.63	16.883
556.96	16.900
557.30	16.935
557.63	16.960
557.97	17.012
558.31	17.046
558.64	17.080
558.98	17.072
559.31	17.095
559.65	17.109
559.98	17.116
560.32	17.134
560.65	17.158
560.99	17.191
561.33	17.204
561.66	17.208
562.00	17.228
562.33	17.234
562.67	17.242
563.00	17.251
563.34	17.290
563.67	17.284
564.01	17.279
564.34	17.286
564.68	17.303
565.01	17.331
565.35	17.342
565.68	17.364
566.02	17.399
566.35	17.454
566.69	17.481
567.02	17.481
567.36	17.534
567.69	17.550
568.03	17.585
568.36	17.587
568.69	17.610
569.03	17.618
569.36	17.606
569.70	17.594
570.03	17.585
570.37	17.581
570.70	17.609
571.04	17.602
571.37	17.626
571.70	17.647
572.04	17.681
572.37	17.693
572.71	17.707
573.04	17.751
573.37	17.803
573.71	17.847
574.04	17.887
574.38	17.891
574.71	17.930
575.04	17.963
575.38	17.988
575.71	18.016
576.05	18.043
576.38	18.090
576.71	18.093
577.05	18.099
577.38	18.132
577.71	18.188
578.05	18.195
578.38	18.217
578.71	18.238
579.05	18.240
579.38	18.289
579.71	18.306
580.05	18.305
580.38	18.333
580.71	18.353
581.05	18.335
581.38	18.348
581.71	18.387
582.05	18.406
582.38	18.452
582.71	18.483
583.04	18.446
583.38	18.446
583.71	18.477
584.04	18.498
584.38	18.503
584.71	18.508
585.04	18.519
585.37	18.530
585.71	18.549
586.04	18.519
586.37	18.528
586.70	18.554
587.04	18.559
587.37	18.545
587.70	18.553
588.03	18.560
588.37	18.558
588.70	18.529
589.03	18.530
589.36	18.529
589.69	18.531
590.03	18.520
590.36	18.521
590.69	18.555
591.02	18.554
591.35	18.545
591.69	18.533
592.02	18.557
592.35	18.543
592.68	18.549
593.01	18.531
593.35	18.547
593.68	18.557
594.01	18.512
594.34	18.484
594.67	18.489
595.00	18.472
595.34	18.452
595.67	18.421
596.00	18.432
596.33	18.404
596.66	18.411
596.99	18.389
597.32	18.370
597.65	18.404
597.99	18.397
598.32	18.405
598.65	18.441
598.98	18.481
599.31	18.512
599.64	18.510
599.97	18.522
600.30	18.489
600.63	18.496
600.96	18.457
601.30	18.435
601.63	18.428
601.96	18.392
602.29	18.343
602.62	18.318
602.95	18.277
603.28	18.235
603.61	18.235
603.94	18.202
604.27	18.157
604.60	18.176
604.93	18.175
605.26	18.180
605.59	18.168
605.92	18.198
606.25	18.197
606.58	18.239
606.91	18.265
607.24	18.261
607.57	18.284
607.90	18.319
608.23	18.289
608.56	18.285
608.89	18.291
609.22	18.289
609.55	18.283
609.88	18.250
610.21	18.221
610.54	18.223
610.87	18.214
611.20	18.246
611.53	18.265
611.86	18.309
612.19	18.328
612.52	18.292
612.85	18.323
613.18	18.316
613.51	18.340
613.84	18.315
614.17	18.321
614.49	18.302
614.82	18.293
615.15	18.235
615.48	18.214
615.81	18.165
616.14	18.171
616.47	18.177
616.80	18.141
617.13	18.138
617.46	18.123
617.78	18.068
618.11	18.052
618.44	18.047
618.77	18.055
619.10	18.040
619.43	18.087
619.76	18.064
620.09	18.055
620.41	18.048
620.74	18.024
621.07	18.026
621.40	17.995
621.73	17.994
622.06	17.991
622.38	17.984
622.71	17.965
623.04	17.890
623.37	17.889
623.70	17.888
624.02	17.895
624.35	17.897
624.68	17.863
625.01	17.910
625.34	17.896
625.66	17.872
625.99	17.860
626.32	17.865
626.65	17.894
626.98	17.879
627.30	17.835
627.63	17.814
627.96	17.828
628.29	17.838
628.61	17.804
628.94	17.802
629.27	17.795
629.60	17.793
629.92	17.738
630.25	17.715
630.58	17.683
630.91	17.654
631.23	17.655
631.56	17.614
631.89	17.631
632.21	17.615
632.54	17.557
632.87	17.511
633.19	17.469
633.52	17.487
633.85	17.507
634.18	17.484
634.50	17.471
634.83	17.396
635.16	17.387
635.48	17.315
635.81	17.268
636.14	17.283
636.46	17.265
636.79	17.307
637.11	17.325
637.44	17.284
637.77	17.259
638.09	17.211
638.42	17.211
638.75	17.168
639.07	17.197
639.40	17.251
639.73	17.214
640.05	17.231
640.38	17.135
640.70	17.084
641.03	17.067
641.36	17.120
641.68	17.172
642.01	17.169
642.33	17.210
642.66	17.176
642.98	17.149
643.31	17.165
643.64	17.118
643.96	17.141
644.29	17.095
644.61	17.080
644.94	17.060
645.26	17.021
645.59	17.013
645.91	16.987
646.24	16.991
646.56	16.920
646.89	16.866
647.22	16.883
647.54	16.873
647.87	16.867
648.19	16.853
648.52	16.826
648.84	16.822
649.17	16.835
649.49	16.808
649.82	16.753
650.14	16.812
650.47	16.838
650.79	16.800
651.11	16.759
651.44	16.783
651.76	16.762
652.09	16.732
652.41	16.700
652.74	16.663
653.06	16.593
653.39	16.608
653.71	16.612
654.04	16.611
654.36	16.608
654.68	16.583
655.01	16.561
655.33	16.536
655.66	16.468
655.98	16.468
656.30	16.507
656.63	16.531
656.95	16.496
657.28	16.450
657.60	16.375
657.92	16.343
658.25	16.339
658.57	16.282
658.90	16.249
659.22	16.254
659.54	16.234
659.87	16.082
660.19	16.012
660.51	16.023
660.84	15.975
661.16	15.968
661.48	15.950
661.81	15.921
662.13	15.933
662.45	15.953
662.78	15.978
663.10	15.942
663.42	16.025
663.75	16.058
664.07	16.026
664.39	15.974
664.72	15.944
665.04	15.914
665.36	15.883
665.69	15.851
666.01	15.802
666.33	15.781
666.65	15.759
666.98	15.716
667.30	15.661
667.62	15.568
667.94	15.581
668.27	15.617
668.59	15.642
668.91	15.636
669.23	15.675
669.56	15.656
669.88	15.634
670.20	15.573
670.52	15.556
670.85	15.577
671.17	15.640
671.49	15.638
671.81	15.621
672.13	15.545
672.46	15.563
672.78	15.456
673.10	15.418
673.42	15.384
673.74	15.458
674.07	15.409
674.39	15.354
674.71	15.328
675.03	15.380
675.35	15.315
675.67	15.337
676.00	15.340
676.32	15.345
676.64	15.315
676.96	15.351
677.28	15.341
677.60	15.383
677.92	15.393
678.25	15.330
678.57	15.252
678.89	15.265
679.21	15.276
679.53	15.253
679.85	15.234
680.17	15.324
680.49	15.258
680.81	15.199
681.13	15.252
681.46	15.296
681.78	15.389
682.10	15.409
682.42	15.406
682.74	15.379
683.06	15.357
683.38	15.375
683.70	15.356
684.02	15.416
684.34	15.477
684.66	15.448
684.98	15.424
685.30	15.465
685.62	15.501
685.94	15.473
686.26	15.439
686.58	15.451
686.90	15.500
687.22	15.496
687.54	15.516
687.86	15.448
688.18	15.360
688.50	15.340
688.82	15.237
689.14	15.133
689.46	15.148
689.78	15.087
690.10	15.076
690.42	15.046
690.74	14.962
691.06	14.825
691.38	14.814
691.70	14.819
692.02	14.759
692.34	14.745
692.66	14.744
692.98	14.713
693.30	14.809
693.62	14.788
693.94	14.739
694.26	14.779
694.57	14.792
694.89	14.786
695.21	14.844
695.53	14.882
695.85	14.920
696.17	14.933
696.49	14.940
696.81	14.891
697.13	14.842
697.44	14.840
697.76	14.765
698.08	14.747
698.40	14.709
698.72	14.594
699.04	14.484
699.36	14.381
699.67	14.283
699.99	14.181
700.31	14.126
700.63	14.105
700.95	14.048
701.27	13.984
701.58	13.955
701.90	13.901
702.22	13.876
702.54	13.846
702.86	13.735
703.17	13.686
703.49	13.724
703.81	13.695
704.13	13.650
704.45	13.604
704.76	13.582
705.08	13.586
705.40	13.567
705.72	13.560
706.03	13.592
706.35	13.681
706.67	13.721
706.99	13.657
707.30	13.622
707.62	13.698
707.94	13.666
708.26	13.679
708.57	13.637
708.89	13.694
709.21	13.710
709.53	13.736
709.84	13.768
710.16	13.758
710.48	13.862
710.79	13.847
711.11	13.795
711.43	13.822
711.74	13.818
712.06	13.808
712.38	13.784
712.69	13.809
713.01	13.836
713.33	13.802
713.64	13.898
713.96	13.905
714.28	14.034
714.59	14.029
714.91	14.139
715.23	14.286
715.54	14.336
715.86	14.458
716.17	14.489
716.49	14.489
716.81	14.518
717.12	14.403
717.44	14.335
717.76	14.285
718.07	14.264
718.39	14.166
718.70	13.986
719.02	14.000
719.33	13.836
719.65	13.836
719.97	13.823
720.28	13.777
720.60	13.867
720.91	14.022
721.23	13.923
721.54	13.982
721.86	14.021
722.17	14.094
722.49	14.068
722.81	14.101
723.12	14.047
723.44	14.032
723.75	14.068
724.07	14.013
724.38	13.884
724.70	13.951
725.01	14.051
725.33	14.093
725.64	14.146
725.96	14.193
726.27	14.227
726.59	14.206
726.90	14.308
727.22	14.304
727.53	14.342
727.84	14.298
728.16	14.266
728.47	14.114
728.79	14.095
729.10	13.994
729.42	13.901
729.73	13.876
730.05	13.916
730.36	13.775
730.67	13.675
730.99	13.521
731.30	13.465
731.62	13.302
731.93	13.291
732.24	13.104
732.56	13.075
732.87	12.926
733.19	12.801
733.50	12.681
733.81	12.568
734.13	12.629
734.44	12.663
734.76	12.632
735.07	12.742
735.38	12.677
735.70	12.645
736.01	12.554
736.32	12.609
736.64	12.791
736.95	12.664
737.26	12.638
737.58	12.594
737.89	12.674
738.20	12.594
738.52	12.473
738.83	12.464
739.14	12.475
739.45	12.547
739.77	12.520
740.08	12.255
740.39	12.274
740.71	12.363
741.02	12.244
741.33	12.050
741.64	12.020
741.96	12.052
742.27	11.861
742.58	11.705
742.90	11.631
743.21	11.676
743.52	11.740
743.83	11.939
744.14	11.765
744.46	11.685
744.77	11.608
745.08	11.670
745.39	11.723
745.71	11.818
746.02	12.001
746.33	11.855
746.64	11.678
746.95	11.650
747.27	11.449
747.58	11.415
747.89	11.552
748.20	11.604
748.51	11.566
748.82	11.630
749.14	11.698
749.45	11.627
749.76	11.793
750.07	11.873
750.38	11.865
750.69	11.966
751.01	12.056
751.32	11.899
751.63	11.936
751.94	11.851
752.25	11.749
752.56	11.711
752.87	11.724
753.18	11.619
753.49	11.681
753.81	11.662
754.12	11.768
754.43	11.801
754.74	11.962
755.05	12.030
755.36	12.169
755.67	12.327
755.98	12.478
756.29	12.612
756.60	12.905
756.91	13.197
757.22	13.456
757.53	13.677
757.84	14.105
758.15	14.410
758.46	14.691
758.77	14.997
759.09	15.247
759.40	15.590
759.71	15.820
760.02	15.877
760.33	15.977
760.64	16.051
760.95	16.012
761.26	15.882
761.57	15.950
761.88	15.922
762.18	15.912
762.49	15.769
762.80	15.550
763.11	15.366
763.42	15.198
763.73	15.079
764.04	14.770
764.35	14.497
764.66	14.242
764.97	13.845
765.28	13.584
765.59	13.278
765.90	13.125
766.21	12.929
766.52	12.689
766.83	12.705
767.14	12.338
767.44	12.414
767.75	12.267
768.06	12.308
768.37	12.256
768.68	12.232
768.99	12.032
769.30	11.776
769.61	11.491
769.91	11.314
770.22	10.972
770.53	10.865
770.84	10.896
771.15	11.039
771.46	10.957
771.77	10.702
772.07	10.592
772.38	10.480
772.69	10.200
773.00	10.083
773.31	10.455
773.61	10.343
773.92	10.439
774.23	10.024
774.54	10.133
774.85	10.090
775.15	10.231
775.46	10.135
775.77	10.068
776.08	10.308
776.39	10.505
776.69	10.435
777.00	10.838
777.31	10.837
777.62	11.228
777.92	11.003
778.23	11.106
778.54	11.071
778.85	11.108
779.15	11.566
779.46	11.669
779.77	11.567
780.07	11.374
780.38	11.051
780.69	11.045
781.00	10.765
781.30	10.830
781.61	10.579
781.92	10.755
782.22	10.570
782.53	10.457
782.84	10.381
783.14	10.476
783.45	10.664
783.76	10.939
784.06	11.053
784.37	11.383
784.68	11.411
784.98	11.994
785.29	12.039
785.60	12.632
785.90	12.598
786.21	12.593
786.51	12.737
786.82	12.482
787.13	12.556
787.43	12.720
787.74	12.849
788.04	13.065
788.35	12.676
788.66	12.683
788.96	12.436
789.27	12.713
789.57	13.024
789.88	13.200
790.19	13.820
790.49	13.601
790.80	13.392
791.10	13.215
791.41	13.097
791.71	13.173
792.02	13.359
792.32	13.211
792.63	12.779
792.93	12.633
793.24	12.291
793.54	11.815
793.85	12.185
794.15	12.134
794.46	12.042
794.76	12.178
795.07	12.199
795.37	12.273
795.68	12.490
795.98	12.959
796.29	13.024
796.59	13.391
796.90	13.422
797.20	13.198
797.51	13.284
797.81	13.269
798.12	13.216
798.42	13.376
798.72	13.082
799.03	13.023
799.33	12.668
799.64	12.914
799.94	12.624
800.25	13.181
800.55	13.254
800.85	13.117
801.16	13.121
801.46	12.876
801.77	12.417
802.07	12.285
802.37	12.098
802.68	11.999
802.98	11.810
803.28	12.020
803.59	11.288
803.89	11.631
804.20	12.117
804.50	12.314
804.80	12.181
805.11	12.548
805.41	12.748
805.71	12.868
806.02	13.020
806.32	13.206
806.62	13.021
806.93	13.168
807.23	13.033
807.53	12.671
807.83	12.835
808.14	13.369
808.44	13.716
808.74	14.168
809.05	14.872
809.35	15.312
809.65	14.982
809.95	15.502
810.26	15.562
810.56	15.451
810.86	15.737
811.16	15.206
811.47	15.205
811.77	15.071
812.07	14.633
812.37	14.074
812.68	13.805
812.98	14.426
813.28	14.320
813.58	14.544
813.88	14.669
814.19	14.657
814.49	14.885
814.79	14.832
815.09	14.837
815.39	15.212
815.70	15.430
816.00	15.478
816.30	15.184
816.60	15.222
816.90	15.863
817.20	15.794
817.50	16.138
817.81	16.757
818.11	16.888
818.41	17.092
818.71	17.103
819.01	17.371
819.31	17.391
819.61	17.552
819.92	17.539
820.22	17.537
820.52	17.621
820.82	17.640
821.12	17.546
821.42	17.587
821.72	17.610
822.02	17.574
822.32	17.456
822.62	17.460
822.92	17.378
823.22	17.414
823.52	17.296
823.83	17.191
824.13	17.070
824.43	17.040
824.73	16.929
825.03	16.858
825.33	16.807
825.63	16.832
825.93	16.786
826.23	16.809
826.53	16.549
826.83	16.567
827.13	16.522
827.43	16.493
827.73	16.416
828.03	16.250
828.33	15.892
828.63	16.015
828.93	15.794
829.23	15.697
829.53	15.368
829.83	15.630
830.13	15.488
830.42	15.802
830.72	16.012
831.02	16.262
831.32	16.425
831.62	16.574
831.92	16.218
832.22	16.306
832.52	16.407
832.82	16.653
833.12	16.581
833.42	16.541
833.72	16.470
834.01	16.473
834.31	16.320
834.61	16.434
834.91	16.645
835.21	17.027
835.51	17.087
835.81	17.125
836.11	17.067
836.40	17.205
836.70	17.874
837.00	17.728
837.30	17.322
837.60	17.385
837.90	17.270
838.19	17.113
838.49	17.164
838.79	16.830
839.09	16.682
839.39	16.214
839.68	15.720
839.98	15.354
840.28	15.530
840.58	15.704
840.88	15.088
841.17	15.008
841.47	14.903
841.77	14.247
842.07	14.000
842.36	13.766
842.66	14.209
842.96	15.171
843.26	14.007
843.55	12.691
843.85	12.048
844.15	11.694
844.45	11.373
844.74	11.134
845.04	10.316
845.34	10.130
845.63	8.763
845.93	8.892
846.23	7.818
846.53	8.690
846.82	9.436
847.12	9.813
847.42	9.169
847.71	8.416
848.01	8.133
848.31	10.097
848.60	10.004
848.90	10.658
849.19	9.130
849.49	9.814
849.79	9.099
850.08	10.305
850.38	10.394
850.68	12.495
850.97	13.458
851.27	13.154
851.56	11.063
851.86	11.350
852.16	12.893
852.45	14.932
852.75	13.904
853.04	13.610
853.34	12.931
853.64	11.968
853.93	11.378
854.23	10.782
854.52	10.954
854.82	11.849
855.11	11.663
855.41	10.109
855.70	8.912
856.00	9.802
856.30	10.355
856.59	9.953
856.89	11.314
857.18	11.222
857.48	11.281
857.77	11.594
858.07	11.412
858.36	11.979
858.66	11.876
858.95	12.612
859.25	11.959
859.54	11.151
859.84	10.091
860.13	8.939
860.42	9.557
860.72	10.996
861.01	10.819
861.31	10.968
861.60	11.118
861.90	11.274
862.19	9.071
862.49	10.118
862.78	12.782
863.07	14.609
863.37	13.758
863.66	12.678
863.96	10.643
864.25	10.885
864.54	11.865
864.84	10.212
865.13	9.387
865.43	10.368
865.72	16.270
866.01	20.590
866.31	-0.972
866.60	-2.306
866.89	9.461
>>>>>End Spectral Data<<<<<
