OOIBase32 Version 2.0.0.6 Data File
++++++++++++++++++++++++++++++++++++
Date: 01-23-2012, 21:58:11
User: Valued Ocean Optics Customer
Spectrometer Serial Number: USB2E2917
Spectrometer Channel: Master
Integration Time (msec): 5
Spectra Averaged: 10
Boxcar Smoothing: 5
Correct for Electrical Dark: Enabled
Time Normalized: Disabled
Dual-beam Reference: Disabled
Reference Channel: Master
Temperature: Not acquired
Spectrometer Type: S2000
ADC Type: USB2000
Number of Pixels in File: 2048
Graph Title: 
>>>>>Begin Spectral Data<<<<<
180.30	0.000
180.67	0.000
181.03	230.015
181.40	-168.298
181.77	4510.600
182.14	70.682
182.51	117.937
182.88	-1150.636
183.25	-144.231
183.62	151.554
183.99	67.073
184.36	-27.649
184.73	-70.713
185.10	109.049
185.46	123.238
185.83	151.553
186.20	-19.861
186.57	-450.399
186.94	88.211
187.31	220.254
187.68	-3.315
188.05	40.419
188.42	49.883
188.78	49.742
189.15	40.238
189.52	48.953
189.89	32.774
190.26	11.433
190.63	25.992
191.00	22.493
191.37	32.826
191.73	36.090
192.10	30.616
192.47	19.155
192.84	13.187
193.21	14.980
193.58	22.991
193.94	31.838
194.31	25.633
194.68	27.013
195.05	19.072
195.42	-5.299
195.79	-4.684
196.15	-6.828
196.52	0.422
196.89	-10.224
197.26	-4.481
197.63	-19.039
198.00	-26.614
198.36	-20.962
198.73	-29.735
199.10	-23.857
199.47	-5.992
199.84	-15.766
200.20	-6.038
200.57	-38.012
200.94	-20.378
201.31	-23.473
201.68	-0.159
202.04	8.667
202.41	21.135
202.78	30.742
203.15	34.130
203.51	12.402
203.88	15.038
204.25	2.762
204.62	9.355
204.98	2.130
205.35	3.869
205.72	-2.835
206.09	-5.078
206.46	-7.554
206.82	-18.838
207.19	-22.023
207.56	-2.072
207.92	-15.874
208.29	-10.197
208.66	-9.303
209.03	-3.552
209.39	-17.552
209.76	-32.181
210.13	-46.487
210.50	-55.948
210.86	-49.113
211.23	-27.840
211.60	-24.153
211.96	-6.163
212.33	-11.035
212.70	3.751
213.07	-2.445
213.43	9.621
213.80	11.181
214.17	8.734
214.53	8.659
214.90	10.880
215.27	3.330
215.63	-9.686
216.00	-19.162
216.37	-14.158
216.74	-37.302
217.10	-38.783
217.47	-59.272
217.84	-47.285
218.20	-28.808
218.57	-22.326
218.94	-18.560
219.30	-19.107
219.67	-11.629
220.04	-5.867
220.40	-7.760
220.77	-3.760
221.13	1.135
221.50	5.253
221.87	-5.116
222.23	-6.378
222.60	-7.184
222.97	-13.759
223.33	-15.810
223.70	-16.557
224.07	-10.756
224.43	-4.448
224.80	0.907
225.16	-0.344
225.53	1.809
225.90	-0.546
226.26	-1.259
226.63	-2.512
226.99	-0.724
227.36	1.104
227.73	0.617
228.09	-3.547
228.46	-4.899
228.82	-6.145
229.19	-5.809
229.56	-7.999
229.92	-5.688
230.29	-5.214
230.65	-4.149
231.02	-5.577
231.38	-8.084
231.75	-7.788
232.12	-4.668
232.48	-2.781
232.85	-3.226
233.21	-2.295
233.58	0.027
233.94	1.294
234.31	-0.593
234.68	-1.166
235.04	0.334
235.41	2.045
235.77	3.408
236.14	2.579
236.50	-0.409
236.87	-0.818
237.23	-1.454
237.60	-0.492
237.96	-1.483
238.33	-0.069
238.69	0.064
239.06	-0.664
239.42	-0.507
239.79	-0.291
240.15	1.137
240.52	1.443
240.88	1.961
241.25	2.255
241.61	1.794
241.98	2.129
242.34	1.770
242.71	2.374
243.07	2.767
243.44	2.815
243.80	2.670
244.17	2.090
244.53	2.439
244.90	2.267
245.26	2.152
245.63	2.006
245.99	1.943
246.36	2.189
246.72	1.587
247.09	1.420
247.45	1.192
247.81	0.950
248.18	0.635
248.54	0.406
248.91	0.602
249.27	0.794
249.64	0.618
250.00	0.724
250.36	0.886
250.73	1.574
251.09	2.030
251.46	1.996
251.82	2.116
252.19	2.560
252.55	2.520
252.91	2.301
253.28	1.499
253.64	1.867
254.01	1.917
254.37	1.690
254.73	1.807
255.10	1.922
255.46	2.023
255.83	2.058
256.19	2.209
256.55	1.989
256.92	1.924
257.28	2.165
257.65	2.323
258.01	2.421
258.37	2.286
258.74	2.231
259.10	2.144
259.46	2.266
259.83	2.351
260.19	2.291
260.55	2.282
260.92	2.301
261.28	2.125
261.64	1.590
262.01	1.295
262.37	1.215
262.73	0.535
263.10	0.285
263.46	0.389
263.82	0.232
264.19	0.040
264.55	0.366
264.91	0.519
265.28	1.152
265.64	1.445
266.00	1.373
266.37	1.322
266.73	2.012
267.09	2.347
267.46	2.323
267.82	2.569
268.18	2.803
268.54	2.740
268.91	2.929
269.27	2.606
269.63	2.716
270.00	2.823
270.36	2.773
270.72	2.445
271.08	2.080
271.45	2.093
271.81	2.216
272.17	2.116
272.53	2.001
272.90	1.750
273.26	1.797
273.62	1.585
273.98	1.512
274.35	1.658
274.71	2.020
275.07	2.145
275.43	1.989
275.80	1.816
276.16	2.098
276.52	2.129
276.88	2.163
277.25	2.028
277.61	2.264
277.97	2.100
278.33	1.978
278.69	1.535
279.06	1.691
279.42	1.632
279.78	1.472
280.14	1.240
280.50	1.350
280.87	1.318
281.23	1.511
281.59	1.392
281.95	1.608
282.31	1.865
282.68	2.208
283.04	2.122
283.40	2.287
283.76	2.269
284.12	2.239
284.48	2.199
284.85	2.129
285.21	1.949
285.57	2.051
285.93	2.068
286.29	1.815
286.65	1.722
287.02	1.782
287.38	1.706
287.74	1.795
288.10	1.767
288.46	1.635
288.82	1.490
289.18	1.595
289.54	1.473
289.91	1.565
290.27	1.778
290.63	1.747
290.99	1.616
291.35	1.699
291.71	1.898
292.07	1.883
292.43	1.952
292.79	2.395
293.16	2.165
293.52	2.180
293.88	2.222
294.24	2.229
294.60	2.167
294.96	2.221
295.32	2.196
295.68	1.982
296.04	2.220
296.40	2.276
296.76	2.163
297.12	2.464
297.49	2.546
297.85	2.575
298.21	2.630
298.57	2.724
298.93	2.739
299.29	2.745
299.65	2.774
300.01	2.586
300.37	2.470
300.73	2.664
301.09	2.785
301.45	2.990
301.81	2.936
302.17	2.870
302.53	2.783
302.89	2.740
303.25	2.623
303.61	2.807
303.97	2.852
304.33	2.994
304.69	2.909
305.05	2.777
305.41	2.497
305.77	2.454
306.13	2.407
306.49	2.460
306.85	2.545
307.21	2.667
307.57	2.626
307.93	2.636
308.29	2.701
308.65	2.557
309.01	2.500
309.37	2.645
309.73	2.690
310.09	2.733
310.45	2.732
310.81	2.752
311.17	2.564
311.53	2.504
311.89	2.492
312.25	2.361
312.61	2.387
312.96	2.365
313.32	2.347
313.68	2.235
314.04	2.255
314.40	2.246
314.76	2.317
315.12	2.550
315.48	2.595
315.84	2.492
316.20	2.599
316.56	2.663
316.92	2.598
317.27	2.427
317.63	2.462
317.99	2.413
318.35	2.342
318.71	2.225
319.07	2.212
319.43	2.251
319.79	2.202
320.15	2.183
320.50	1.986
320.86	2.186
321.22	2.303
321.58	2.312
321.94	2.302
322.30	2.374
322.66	2.460
323.01	2.422
323.37	2.313
323.73	2.339
324.09	2.356
324.45	2.557
324.81	2.395
325.17	2.364
325.52	2.349
325.88	2.363
326.24	2.411
326.60	2.518
326.96	2.641
327.31	2.605
327.67	2.699
328.03	2.635
328.39	2.487
328.75	2.575
329.11	2.671
329.46	2.765
329.82	2.769
330.18	2.745
330.54	2.647
330.90	2.626
331.25	2.704
331.61	2.745
331.97	2.847
332.33	3.073
332.68	3.067
333.04	2.984
333.40	2.907
333.76	2.859
334.11	2.761
334.47	2.654
334.83	2.581
335.19	2.555
335.54	2.657
335.90	2.682
336.26	2.609
336.62	2.709
336.97	2.682
337.33	2.717
337.69	2.823
338.05	2.954
338.40	3.028
338.76	3.066
339.12	3.121
339.48	3.069
339.83	2.970
340.19	2.886
340.55	2.873
340.90	2.924
341.26	2.893
341.62	2.874
341.97	2.916
342.33	2.935
342.69	2.873
343.04	2.861
343.40	2.829
343.76	2.861
344.12	2.914
344.47	2.887
344.83	2.812
345.19	2.758
345.54	2.796
345.90	2.771
346.26	2.657
346.61	2.679
346.97	2.667
347.32	2.692
347.68	2.683
348.04	2.677
348.39	2.641
348.75	2.818
349.11	2.828
349.46	2.769
349.82	2.724
350.18	2.838
350.53	2.840
350.89	2.891
351.24	2.815
351.60	2.830
351.96	2.853
352.31	2.958
352.67	2.864
353.02	2.900
353.38	2.919
353.74	2.846
354.09	2.816
354.45	2.870
354.80	2.861
355.16	2.866
355.52	2.905
355.87	2.889
356.23	2.839
356.58	2.849
356.94	2.878
357.29	2.876
357.65	2.930
358.00	2.990
358.36	2.958
358.72	2.960
359.07	3.056
359.43	3.028
359.78	3.012
360.14	3.002
360.49	3.014
360.85	3.011
361.20	3.030
361.56	3.046
361.91	2.990
362.27	3.022
362.62	2.999
362.98	2.920
363.33	2.921
363.69	2.926
364.04	2.872
364.40	2.858
364.75	2.841
365.11	2.826
365.46	2.833
365.82	2.800
366.17	2.718
366.53	2.767
366.88	2.787
367.24	2.835
367.59	2.902
367.95	2.975
368.30	2.985
368.66	3.016
369.01	3.022
369.37	3.030
369.72	3.068
370.08	3.163
370.43	3.139
370.78	3.125
371.14	3.097
371.49	3.044
371.85	3.070
372.20	3.073
372.56	3.117
372.91	3.171
373.26	3.174
373.62	3.183
373.97	3.158
374.33	3.135
374.68	3.146
375.03	3.187
375.39	3.163
375.74	3.126
376.10	3.104
376.45	3.088
376.80	3.038
377.16	3.088
377.51	3.144
377.87	3.121
378.22	3.167
378.57	3.186
378.93	3.150
379.28	3.215
379.63	3.238
379.99	3.290
380.34	3.282
380.70	3.323
381.05	3.358
381.40	3.355
381.76	3.415
382.11	3.422
382.46	3.397
382.82	3.407
383.17	3.412
383.52	3.408
383.88	3.369
384.23	3.398
384.58	3.379
384.94	3.327
385.29	3.292
385.64	3.276
385.99	3.294
386.35	3.400
386.70	3.439
387.05	3.426
387.41	3.438
387.76	3.463
388.11	3.435
388.47	3.475
388.82	3.480
389.17	3.494
389.52	3.491
389.88	3.487
390.23	3.462
390.58	3.455
390.93	3.475
391.29	3.500
391.64	3.524
391.99	3.556
392.34	3.559
392.70	3.538
393.05	3.540
393.40	3.551
393.75	3.536
394.11	3.507
394.46	3.503
394.81	3.441
395.16	3.397
395.52	3.390
395.87	3.373
396.22	3.329
396.57	3.333
396.92	3.327
397.28	3.304
397.63	3.283
397.98	3.299
398.33	3.289
398.68	3.344
399.04	3.359
399.39	3.374
399.74	3.340
400.09	3.343
400.44	3.358
400.80	3.344
401.15	3.354
401.50	3.368
401.85	3.367
402.20	3.397
402.55	3.402
402.90	3.397
403.26	3.380
403.61	3.420
403.96	3.430
404.31	3.435
404.66	3.470
405.01	3.480
405.36	3.507
405.72	3.504
406.07	3.484
406.42	3.491
406.77	3.496
407.12	3.482
407.47	3.483
407.82	3.487
408.17	3.470
408.53	3.463
408.88	3.485
409.23	3.466
409.58	3.452
409.93	3.454
410.28	3.457
410.63	3.464
410.98	3.498
411.33	3.481
411.68	3.440
412.03	3.451
412.38	3.481
412.73	3.465
413.09	3.479
413.44	3.473
413.79	3.460
414.14	3.440
414.49	3.434
414.84	3.419
415.19	3.431
415.54	3.455
415.89	3.460
416.24	3.425
416.59	3.414
416.94	3.396
417.29	3.400
417.64	3.397
417.99	3.410
418.34	3.418
418.69	3.401
419.04	3.393
419.39	3.403
419.74	3.392
420.09	3.399
420.44	3.402
420.79	3.405
421.14	3.381
421.49	3.382
421.84	3.373
422.19	3.360
422.54	3.380
422.89	3.360
423.24	3.338
423.59	3.336
423.94	3.315
424.29	3.291
424.64	3.274
424.99	3.290
425.34	3.283
425.68	3.270
426.03	3.263
426.38	3.245
426.73	3.277
427.08	3.269
427.43	3.288
427.78	3.314
428.13	3.344
428.48	3.351
428.83	3.361
429.18	3.365
429.53	3.365
429.87	3.370
430.22	3.358
430.57	3.343
430.92	3.353
431.27	3.332
431.62	3.324
431.97	3.313
432.32	3.309
432.67	3.305
433.01	3.297
433.36	3.319
433.71	3.316
434.06	3.324
434.41	3.332
434.76	3.341
435.11	3.335
435.45	3.344
435.80	3.337
436.15	3.352
436.50	3.348
436.85	3.343
437.20	3.325
437.54	3.305
437.89	3.299
438.24	3.298
438.59	3.286
438.94	3.287
439.29	3.268
439.63	3.258
439.98	3.243
440.33	3.234
440.68	3.226
441.03	3.212
441.37	3.209
441.72	3.198
442.07	3.197
442.42	3.190
442.76	3.184
443.11	3.189
443.46	3.184
443.81	3.186
444.16	3.181
444.50	3.166
444.85	3.175
445.20	3.170
445.55	3.157
445.89	3.124
446.24	3.104
446.59	3.092
446.94	3.069
447.28	3.053
447.63	3.026
447.98	3.009
448.32	3.034
448.67	2.994
449.02	2.984
449.37	2.982
449.71	2.999
450.06	3.008
450.41	3.002
450.75	2.992
451.10	2.999
451.45	3.004
451.79	3.011
452.14	2.981
452.49	2.985
452.84	2.999
453.18	2.992
453.53	2.978
453.88	2.971
454.22	2.964
454.57	2.987
454.92	3.000
455.26	3.002
455.61	3.011
455.95	3.026
456.30	3.047
456.65	3.058
456.99	3.078
457.34	3.096
457.69	3.124
458.03	3.146
458.38	3.153
458.73	3.158
459.07	3.183
459.42	3.195
459.76	3.197
460.11	3.183
460.46	3.173
460.80	3.189
461.15	3.190
461.49	3.175
461.84	3.182
462.19	3.189
462.53	3.215
462.88	3.212
463.22	3.214
463.57	3.262
463.91	3.310
464.26	3.364
464.61	3.362
464.95	3.383
465.30	3.392
465.64	3.409
465.99	3.423
466.33	3.416
466.68	3.434
467.02	3.456
467.37	3.463
467.71	3.460
468.06	3.454
468.41	3.460
468.75	3.475
469.10	3.482
469.44	3.487
469.79	3.485
470.13	3.521
470.48	3.516
470.82	3.503
471.17	3.487
471.51	3.481
471.86	3.457
472.20	3.469
472.55	3.463
472.89	3.470
473.23	3.467
473.58	3.463
473.92	3.434
474.27	3.429
474.61	3.443
474.96	3.438
475.30	3.423
475.65	3.440
475.99	3.413
476.34	3.408
476.68	3.411
477.02	3.402
477.37	3.394
477.71	3.394
478.06	3.405
478.40	3.422
478.75	3.459
479.09	3.513
479.43	3.558
479.78	3.629
480.12	3.690
480.47	3.750
480.81	3.823
481.15	3.904
481.50	3.975
481.84	4.056
482.19	4.142
482.53	4.218
482.87	4.250
483.22	4.248
483.56	4.206
483.90	4.149
484.25	4.074
484.59	3.993
484.94	3.930
485.28	3.876
485.62	3.803
485.97	3.721
486.31	3.642
486.65	3.615
487.00	3.619
487.34	3.664
487.68	3.708
488.03	3.772
488.37	3.832
488.71	3.864
489.06	3.885
489.40	3.905
489.74	3.917
490.09	3.932
490.43	3.933
490.77	3.935
491.11	3.941
491.46	3.963
491.80	3.983
492.14	3.995
492.49	4.015
492.83	4.042
493.17	4.080
493.51	4.136
493.86	4.198
494.20	4.263
494.54	4.327
494.88	4.372
495.23	4.447
495.57	4.522
495.91	4.601
496.25	4.672
496.60	4.748
496.94	4.822
497.28	4.905
497.62	5.001
497.97	5.100
498.31	5.225
498.65	5.338
498.99	5.449
499.33	5.574
499.68	5.707
500.02	5.864
500.36	5.995
500.70	6.141
501.04	6.296
501.39	6.428
501.73	6.606
502.07	6.764
502.41	6.951
502.75	7.118
503.09	7.295
503.44	7.493
503.78	7.685
504.12	7.919
504.46	8.139
504.80	8.358
505.14	8.593
505.49	8.796
505.83	9.031
506.17	9.245
506.51	9.492
506.85	9.717
507.19	9.960
507.53	10.189
507.87	10.412
508.22	10.661
508.56	10.897
508.90	11.157
509.24	11.443
509.58	11.693
509.92	11.974
510.26	12.234
510.60	12.523
510.94	12.788
511.28	13.080
511.63	13.394
511.97	13.683
512.31	13.996
512.65	14.315
512.99	14.604
513.33	14.959
513.67	15.303
514.01	15.650
514.35	15.993
514.69	16.324
515.03	16.638
515.37	16.908
515.71	17.193
516.05	17.465
516.39	17.696
516.73	17.950
517.07	18.190
517.41	18.426
517.75	18.669
518.09	18.892
518.43	19.121
518.77	19.360
519.11	19.648
519.45	19.930
519.79	20.219
520.13	20.551
520.47	20.874
520.81	21.193
521.15	21.528
521.49	21.855
521.83	22.167
522.17	22.473
522.51	22.758
522.85	23.027
523.19	23.362
523.53	23.734
523.87	24.101
524.21	24.471
524.55	24.805
524.89	25.108
525.23	25.388
525.57	25.662
525.91	25.908
526.25	26.153
526.58	26.385
526.92	26.566
527.26	26.702
527.60	26.819
527.94	26.911
528.28	27.010
528.62	27.102
528.96	27.183
529.30	27.265
529.64	27.359
529.97	27.436
530.31	27.525
530.65	27.623
530.99	27.771
531.33	27.913
531.67	28.076
532.01	28.214
532.35	28.351
532.68	28.490
533.02	28.597
533.36	28.708
533.70	28.826
534.04	28.934
534.38	29.065
534.71	29.184
535.05	29.304
535.39	29.410
535.73	29.554
536.07	29.698
536.41	29.887
536.74	30.059
537.08	30.227
537.42	30.393
537.76	30.557
538.10	30.698
538.43	30.832
538.77	30.986
539.11	31.112
539.45	31.222
539.79	31.291
540.12	31.338
540.46	31.376
540.80	31.413
541.14	31.440
541.47	31.454
541.81	31.495
542.15	31.516
542.49	31.517
542.82	31.533
543.16	31.558
543.50	31.597
543.84	31.641
544.17	31.735
544.51	31.822
544.85	31.929
545.18	32.036
545.52	32.096
545.86	32.177
546.20	32.260
546.53	32.347
546.87	32.430
547.21	32.544
547.54	32.628
547.88	32.732
548.22	32.809
548.55	32.890
548.89	32.973
549.23	33.038
549.56	33.110
549.90	33.190
550.24	33.250
550.57	33.278
550.91	33.278
551.25	33.331
551.58	33.341
551.92	33.388
552.26	33.412
552.59	33.433
552.93	33.505
553.27	33.571
553.60	33.606
553.94	33.670
554.27	33.741
554.61	33.871
554.95	33.961
555.28	34.036
555.62	34.088
555.95	34.146
556.29	34.200
556.63	34.228
556.96	34.221
557.30	34.268
557.63	34.306
557.97	34.343
558.31	34.338
558.64	34.367
558.98	34.393
559.31	34.412
559.65	34.398
559.98	34.409
560.32	34.406
560.65	34.433
560.99	34.454
561.33	34.480
561.66	34.486
562.00	34.515
562.33	34.504
562.67	34.514
563.00	34.515
563.34	34.539
563.67	34.539
564.01	34.545
564.34	34.525
564.68	34.510
565.01	34.479
565.35	34.453
565.68	34.422
566.02	34.414
566.35	34.422
566.69	34.398
567.02	34.383
567.36	34.407
567.69	34.410
568.03	34.463
568.36	34.455
568.69	34.453
569.03	34.465
569.36	34.462
569.70	34.423
570.03	34.375
570.37	34.397
570.70	34.439
571.04	34.422
571.37	34.424
571.70	34.446
572.04	34.471
572.37	34.493
572.71	34.507
573.04	34.517
573.37	34.596
573.71	34.634
574.04	34.655
574.38	34.663
574.71	34.702
575.04	34.759
575.38	34.746
575.71	34.782
576.05	34.827
576.38	34.878
576.71	34.909
577.05	34.900
577.38	34.964
577.71	34.984
578.05	35.011
578.38	35.010
578.71	35.020
579.05	35.037
579.38	35.063
579.71	35.053
580.05	35.039
580.38	35.088
580.71	35.098
581.05	35.080
581.38	35.098
581.71	35.080
582.05	35.085
582.38	35.064
582.71	35.072
583.04	35.032
583.38	35.020
583.71	34.998
584.04	34.993
584.38	34.995
584.71	34.949
585.04	34.940
585.37	34.952
585.71	34.942
586.04	34.907
586.37	34.844
586.70	34.842
587.04	34.791
587.37	34.772
587.70	34.722
588.03	34.679
588.37	34.658
588.70	34.619
589.03	34.559
589.36	34.538
589.69	34.514
590.03	34.473
590.36	34.409
590.69	34.427
591.02	34.371
591.35	34.333
591.69	34.254
592.02	34.194
592.35	34.081
592.68	34.032
593.01	33.907
593.35	33.831
593.68	33.798
594.01	33.703
594.34	33.607
594.67	33.550
595.00	33.473
595.34	33.405
595.67	33.358
596.00	33.378
596.33	33.288
596.66	33.289
596.99	33.254
597.32	33.252
597.65	33.303
597.99	33.301
598.32	33.301
598.65	33.296
598.98	33.316
599.31	33.308
599.64	33.258
599.97	33.248
600.30	33.215
600.63	33.164
600.96	33.067
601.30	32.963
601.63	32.880
601.96	32.811
602.29	32.763
602.62	32.705
602.95	32.661
603.28	32.609
603.61	32.573
603.94	32.526
604.27	32.486
604.60	32.438
604.93	32.429
605.26	32.416
605.59	32.424
605.92	32.411
606.25	32.405
606.58	32.371
606.91	32.366
607.24	32.343
607.57	32.287
607.90	32.278
608.23	32.244
608.56	32.210
608.89	32.202
609.22	32.158
609.55	32.140
609.88	32.082
610.21	32.094
610.54	32.071
610.87	32.074
611.20	32.078
611.53	32.124
611.86	32.179
612.19	32.208
612.52	32.182
612.85	32.195
613.18	32.159
613.51	32.129
613.84	32.068
614.17	32.079
614.49	32.016
614.82	31.989
615.15	31.935
615.48	31.934
615.81	31.878
616.14	31.846
616.47	31.795
616.80	31.731
617.13	31.788
617.46	31.742
617.78	31.641
618.11	31.663
618.44	31.667
618.77	31.577
619.10	31.490
619.43	31.434
619.76	31.430
620.09	31.408
620.41	31.408
620.74	31.315
621.07	31.317
621.40	31.289
621.73	31.170
622.06	31.085
622.38	31.075
622.71	30.994
623.04	30.930
623.37	30.833
623.70	30.753
624.02	30.674
624.35	30.631
624.68	30.550
625.01	30.512
625.34	30.520
625.66	30.491
625.99	30.421
626.32	30.394
626.65	30.394
626.98	30.380
627.30	30.378
627.63	30.346
627.96	30.343
628.29	30.352
628.61	30.354
628.94	30.272
629.27	30.224
629.60	30.251
629.92	30.217
630.25	30.214
630.58	30.130
630.91	30.054
631.23	30.028
631.56	29.940
631.89	29.895
632.21	29.815
632.54	29.762
632.87	29.738
633.19	29.636
633.52	29.597
633.85	29.542
634.18	29.533
634.50	29.489
634.83	29.463
635.16	29.468
635.48	29.434
635.81	29.395
636.14	29.424
636.46	29.419
636.79	29.441
637.11	29.417
637.44	29.367
637.77	29.353
638.09	29.367
638.42	29.302
638.75	29.287
639.07	29.275
639.40	29.248
639.73	29.213
640.05	29.237
640.38	29.231
640.70	29.228
641.03	29.192
641.36	29.192
641.68	29.132
642.01	29.125
642.33	29.046
642.66	29.000
642.98	28.957
643.31	28.896
643.64	28.813
643.96	28.721
644.29	28.706
644.61	28.694
644.94	28.660
645.26	28.659
645.59	28.586
645.91	28.575
646.24	28.565
646.56	28.515
646.89	28.502
647.22	28.491
647.54	28.515
647.87	28.473
648.19	28.422
648.52	28.365
648.84	28.304
649.17	28.292
649.49	28.244
649.82	28.156
650.14	28.140
650.47	28.071
650.79	27.948
651.11	27.846
651.44	27.782
651.76	27.743
652.09	27.667
652.41	27.655
652.74	27.657
653.06	27.631
653.39	27.615
653.71	27.603
654.04	27.634
654.36	27.625
654.68	27.606
655.01	27.536
655.33	27.453
655.66	27.405
655.98	27.326
656.30	27.311
656.63	27.248
656.95	27.139
657.28	27.064
657.60	26.969
657.92	26.858
658.25	26.821
658.57	26.804
658.90	26.782
659.22	26.749
659.54	26.765
659.87	26.640
660.19	26.595
660.51	26.610
660.84	26.602
661.16	26.579
661.48	26.657
661.81	26.641
662.13	26.617
662.45	26.554
662.78	26.587
663.10	26.534
663.42	26.587
663.75	26.618
664.07	26.615
664.39	26.580
664.72	26.565
665.04	26.532
665.36	26.479
665.69	26.449
666.01	26.448
666.33	26.434
666.65	26.375
666.98	26.300
667.30	26.194
667.62	26.069
667.94	26.027
668.27	25.994
668.59	25.934
668.91	25.852
669.23	25.811
669.56	25.795
669.88	25.762
670.20	25.720
670.52	25.716
670.85	25.790
671.17	25.831
671.49	25.836
671.81	25.812
672.13	25.780
672.46	25.772
672.78	25.691
673.10	25.639
673.42	25.578
673.74	25.535
674.07	25.490
674.39	25.400
674.71	25.373
675.03	25.315
675.35	25.280
675.67	25.243
676.00	25.271
676.32	25.295
676.64	25.233
676.96	25.173
677.28	25.182
677.60	25.134
677.92	25.150
678.25	25.160
678.57	25.121
678.89	25.027
679.21	25.034
679.53	24.996
679.85	25.004
680.17	25.047
680.49	25.059
680.81	25.052
681.13	25.087
681.46	25.051
681.78	25.094
682.10	25.153
682.42	25.272
682.74	25.239
683.06	25.243
683.38	25.281
683.70	25.281
684.02	25.233
684.34	25.233
684.66	25.186
684.98	25.125
685.30	25.123
685.62	25.067
685.94	24.997
686.26	24.984
686.58	24.942
686.90	24.897
687.22	24.912
687.54	24.911
687.86	24.886
688.18	24.858
688.50	24.838
688.82	24.696
689.14	24.666
689.46	24.605
689.78	24.580
690.10	24.535
690.42	24.418
690.74	24.331
691.06	24.295
691.38	24.225
691.70	24.168
692.02	24.147
692.34	24.128
692.66	24.063
692.98	24.072
693.30	24.038
693.62	23.959
693.94	23.941
694.26	23.914
694.57	23.875
694.89	23.865
695.21	23.908
695.53	23.868
695.85	23.786
696.17	23.770
696.49	23.748
696.81	23.747
697.13	23.746
697.44	23.731
697.76	23.656
698.08	23.695
698.40	23.673
698.72	23.591
699.04	23.528
699.36	23.532
699.67	23.433
699.99	23.286
700.31	23.127
700.63	23.166
700.95	23.124
701.27	23.115
701.58	22.968
701.90	22.828
702.22	22.745
702.54	22.741
702.86	22.670
703.17	22.705
703.49	22.727
703.81	22.740
704.13	22.604
704.45	22.602
704.76	22.540
705.08	22.465
705.40	22.406
705.72	22.371
706.03	22.332
706.35	22.345
706.67	22.264
706.99	22.282
707.30	22.302
707.62	22.288
707.94	22.266
708.26	22.241
708.57	22.211
708.89	22.305
709.21	22.245
709.53	22.295
709.84	22.268
710.16	22.341
710.48	22.404
710.79	22.320
711.11	22.308
711.43	22.132
711.74	22.158
712.06	22.245
712.38	22.097
712.69	22.144
713.01	22.087
713.33	22.126
713.64	22.095
713.96	22.015
714.28	22.158
714.59	22.230
714.91	22.397
715.23	22.439
715.54	22.445
715.86	22.581
716.17	22.638
716.49	22.670
716.81	22.644
717.12	22.541
717.44	22.498
717.76	22.440
718.07	22.348
718.39	22.252
718.70	22.175
719.02	22.018
719.33	22.028
719.65	21.944
719.97	21.897
720.28	21.804
720.60	21.892
720.91	21.936
721.23	21.837
721.54	21.943
721.86	21.970
722.17	21.955
722.49	22.044
722.81	21.895
723.12	21.966
723.44	21.984
723.75	22.080
724.07	22.055
724.38	21.944
724.70	22.023
725.01	21.900
725.33	21.904
725.64	21.992
725.96	21.982
726.27	21.976
726.59	21.946
726.90	21.889
727.22	21.911
727.53	21.961
727.84	21.963
728.16	21.899
728.47	21.837
728.79	21.750
729.10	21.572
729.42	21.514
729.73	21.489
730.05	21.421
730.36	21.284
730.67	21.131
730.99	20.953
731.30	20.931
731.62	20.877
731.93	20.827
732.24	20.810
732.56	20.710
732.87	20.469
733.19	20.376
733.50	20.334
733.81	20.393
734.13	20.402
734.44	20.438
734.76	20.457
735.07	20.255
735.38	20.132
735.70	20.060
736.01	20.049
736.32	20.161
736.64	20.294
736.95	20.256
737.26	20.171
737.58	20.047
737.89	19.969
738.20	19.759
738.52	19.703
738.83	19.637
739.14	19.591
739.45	19.528
739.77	19.556
740.08	19.344
740.39	19.346
740.71	19.249
741.02	19.259
741.33	19.280
741.64	19.341
741.96	19.316
742.27	19.265
742.58	19.086
742.90	19.060
743.21	19.023
743.52	18.970
743.83	18.899
744.14	18.928
744.46	18.716
744.77	18.725
745.08	18.689
745.39	18.759
745.71	18.711
746.02	18.865
746.33	18.746
746.64	18.709
746.95	18.727
747.27	18.659
747.58	18.625
747.89	18.725
748.20	18.526
748.51	18.430
748.82	18.426
749.14	18.487
749.45	18.377
749.76	18.425
750.07	18.240
750.38	18.117
750.69	18.154
751.01	18.007
751.32	17.863
751.63	17.764
751.94	17.863
752.25	17.835
752.56	17.844
752.87	17.918
753.18	17.894
753.49	17.993
753.81	18.066
754.12	17.947
754.43	18.191
754.74	18.293
755.05	18.506
755.36	18.716
755.67	18.824
755.98	19.009
756.29	19.132
756.60	19.354
756.91	19.675
757.22	20.005
757.53	20.305
757.84	20.463
758.15	20.843
758.46	21.109
758.77	21.141
759.09	21.457
759.40	21.672
759.71	21.903
760.02	22.011
760.33	22.110
760.64	22.102
760.95	22.129
761.26	22.144
761.57	22.120
761.88	22.088
762.18	22.010
762.49	21.873
762.80	21.769
763.11	21.526
763.42	21.382
763.73	21.165
764.04	20.898
764.35	20.609
764.66	20.309
764.97	20.045
765.28	19.723
765.59	19.492
765.90	19.208
766.21	19.052
766.52	18.787
766.83	18.738
767.14	18.475
767.44	18.397
767.75	18.429
768.06	18.394
768.37	18.062
768.68	17.886
768.99	17.627
769.30	17.327
769.61	16.763
769.91	16.677
770.22	16.260
770.53	16.028
770.84	16.297
771.15	16.158
771.46	16.026
771.77	15.990
772.07	16.210
772.38	16.101
772.69	16.173
773.00	16.011
773.31	16.184
773.61	16.342
773.92	16.499
774.23	16.093
774.54	16.140
774.85	16.057
775.15	16.207
775.46	15.714
775.77	15.791
776.08	15.652
776.39	15.851
776.69	15.969
777.00	15.958
777.31	15.836
777.62	15.887
777.92	15.647
778.23	15.746
778.54	15.423
778.85	15.591
779.15	15.917
779.46	16.167
779.77	16.124
780.07	15.782
780.38	15.537
780.69	15.611
781.00	15.427
781.30	15.227
781.61	15.143
781.92	15.316
782.22	15.349
782.53	15.116
782.84	15.031
783.14	14.989
783.45	15.115
783.76	15.384
784.06	15.551
784.37	16.031
784.68	16.539
784.98	16.948
785.29	17.123
785.60	17.551
785.90	17.866
786.21	17.897
786.51	18.194
786.82	18.126
787.13	18.312
787.43	18.264
787.74	18.109
788.04	18.050
788.35	17.600
788.66	17.523
788.96	17.082
789.27	16.923
789.57	16.958
789.88	17.251
790.19	17.350
790.49	17.197
790.80	17.296
791.10	17.301
791.41	17.266
791.71	17.606
792.02	17.776
792.32	17.914
792.63	18.021
792.93	18.064
793.24	17.409
793.54	17.311
793.85	17.584
794.15	17.438
794.46	17.290
794.76	17.234
795.07	17.145
795.37	17.009
795.68	16.948
795.98	16.990
796.29	17.094
796.59	17.379
796.90	17.417
797.20	17.048
797.51	17.114
797.81	17.195
798.12	17.195
798.42	17.157
798.72	17.057
799.03	17.182
799.33	16.884
799.64	16.744
799.94	16.663
800.25	17.112
800.55	17.502
800.85	17.332
801.16	17.300
801.46	17.355
801.77	17.204
802.07	17.093
802.37	16.747
802.68	16.940
802.98	16.676
803.28	16.605
803.59	16.288
803.89	15.976
804.20	16.454
804.50	16.519
804.80	16.419
805.11	16.615
805.41	16.750
805.71	17.189
806.02	16.844
806.32	17.273
806.62	17.719
806.93	17.787
807.23	17.667
807.53	17.325
807.83	17.381
808.14	17.249
808.44	16.954
808.74	16.980
809.05	17.139
809.35	17.709
809.65	17.089
809.95	16.732
810.26	16.423
810.56	16.574
810.86	17.057
811.16	17.196
811.47	17.590
811.77	18.081
812.07	18.224
812.37	18.103
812.68	17.855
812.98	18.654
813.28	18.896
813.58	19.181
813.88	19.114
814.19	18.870
814.49	18.449
814.79	18.527
815.09	18.327
815.39	18.738
815.70	18.955
816.00	19.012
816.30	18.939
816.60	19.146
816.90	19.381
817.20	19.989
817.50	20.461
817.81	21.041
818.11	21.359
818.41	21.654
818.71	21.628
819.01	21.710
819.31	21.869
819.61	21.852
819.92	21.910
820.22	21.940
820.52	21.955
820.82	21.956
821.12	21.928
821.42	21.885
821.72	21.933
822.02	21.859
822.32	21.749
822.62	21.676
822.92	21.692
823.22	21.673
823.52	21.636
823.83	21.540
824.13	21.452
824.43	21.363
824.73	21.171
825.03	20.995
825.33	20.860
825.63	20.901
825.93	20.789
826.23	20.752
826.53	20.622
826.83	20.478
827.13	20.340
827.43	20.053
827.73	19.870
828.03	19.834
828.33	19.652
828.63	19.907
828.93	19.680
829.23	19.601
829.53	19.378
829.83	19.377
830.13	19.407
830.42	19.473
830.72	19.876
831.02	20.037
831.32	20.421
831.62	20.396
831.92	20.287
832.22	20.545
832.52	20.536
832.82	20.633
833.12	20.324
833.42	20.159
833.72	20.217
834.01	20.148
834.31	20.155
834.61	19.934
834.91	19.856
835.21	19.744
835.51	19.605
835.81	19.648
836.11	19.398
836.40	19.220
836.70	19.599
837.00	19.328
837.30	18.878
837.60	18.779
837.90	18.661
838.19	18.726
838.49	18.521
838.79	18.390
839.09	18.186
839.39	17.867
839.68	18.081
839.98	17.622
840.28	17.785
840.58	17.776
840.88	17.093
841.17	17.437
841.47	17.361
841.77	17.328
842.07	16.478
842.36	16.804
842.66	16.862
842.96	17.377
843.26	16.095
843.55	15.289
843.85	14.644
844.15	14.880
844.45	13.931
844.74	13.382
845.04	13.357
845.34	13.760
845.63	11.925
845.93	13.031
846.23	11.956
846.53	12.754
846.82	12.367
847.12	12.335
847.42	11.321
847.71	10.509
848.01	9.637
848.31	9.346
848.60	8.155
848.90	7.599
849.19	5.573
849.49	4.885
849.79	3.816
850.08	5.097
850.38	5.086
850.68	6.912
850.97	8.021
851.27	9.088
851.56	8.363
851.86	8.787
852.16	10.276
852.45	11.245
852.75	11.608
853.04	12.412
853.34	11.172
853.64	10.736
853.93	10.586
854.23	10.137
854.52	9.592
854.82	10.606
855.11	11.255
855.41	11.268
855.70	11.827
856.00	12.167
856.30	12.291
856.59	12.596
856.89	13.632
857.18	12.669
857.48	11.465
857.77	11.194
858.07	13.267
858.36	11.716
858.66	11.282
858.95	12.188
859.25	12.629
859.54	12.622
859.84	13.343
860.13	13.570
860.42	13.992
860.72	16.149
861.01	16.853
861.31	13.677
861.60	14.923
861.90	13.212
862.19	11.204
862.49	10.809
862.78	12.976
863.07	12.648
863.37	11.088
863.66	10.176
863.96	8.425
864.25	7.847
864.54	9.736
864.84	9.814
865.13	10.085
865.43	9.821
865.72	11.208
866.01	21.114
866.31	9.646
866.60	-7.954
866.89	8.336
>>>>>End Spectral Data<<<<<
