OOIBase32 Version 2.0.0.6 Data File
++++++++++++++++++++++++++++++++++++
Date: 01-23-2012, 21:58:17
User: Valued Ocean Optics Customer
Spectrometer Serial Number: USB2E2917
Spectrometer Channel: Master
Integration Time (msec): 5
Spectra Averaged: 10
Boxcar Smoothing: 5
Correct for Electrical Dark: Enabled
Time Normalized: Disabled
Dual-beam Reference: Disabled
Reference Channel: Master
Temperature: Not acquired
Spectrometer Type: S2000
ADC Type: USB2000
Number of Pixels in File: 2048
Graph Title: 
>>>>>Begin Spectral Data<<<<<
180.30	0.000
180.67	0.000
181.03	234.321
181.40	-114.354
181.77	12989.667
182.14	164.674
182.51	120.660
182.88	5635.434
183.25	-307.231
183.62	1.444
183.99	41.988
184.36	182.920
184.73	2.285
185.10	-46.495
185.46	67.601
185.83	185.626
186.20	-99.816
186.57	425.228
186.94	114.056
187.31	40.590
187.68	-283.806
188.05	34.796
188.42	27.561
188.78	27.143
189.15	31.328
189.52	20.181
189.89	13.467
190.26	-9.826
190.63	18.415
191.00	9.071
191.37	11.588
191.73	15.934
192.10	20.708
192.47	13.044
192.84	17.379
193.21	21.765
193.58	30.149
193.94	32.984
194.31	36.061
194.68	24.346
195.05	20.042
195.42	10.672
195.79	9.452
196.15	-1.974
196.52	1.467
196.89	-15.195
197.26	-24.970
197.63	-43.318
198.00	-52.452
198.36	-43.112
198.73	-30.948
199.10	-13.943
199.47	-2.333
199.84	-4.771
200.20	13.919
200.57	-1.948
200.94	11.684
201.31	11.915
201.68	30.136
202.04	28.506
202.41	36.706
202.78	29.594
203.15	16.557
203.51	15.313
203.88	22.952
204.25	3.056
204.62	13.076
204.98	16.085
205.35	24.627
205.72	20.161
206.09	22.159
206.46	15.977
206.82	12.138
207.19	18.739
207.56	16.350
207.92	12.854
208.29	24.066
208.66	22.345
209.03	34.949
209.39	40.155
209.76	36.618
210.13	38.236
210.50	35.885
210.86	46.158
211.23	51.631
211.60	44.983
211.96	43.090
212.33	30.115
212.70	39.971
213.07	28.667
213.43	26.250
213.80	29.316
214.17	24.509
214.53	22.912
214.90	25.611
215.27	21.382
215.63	19.437
216.00	11.477
216.37	23.843
216.74	13.160
217.10	15.036
217.47	4.475
217.84	7.438
218.20	14.015
218.57	24.585
218.94	16.975
219.30	7.181
219.67	11.556
220.04	14.930
220.40	10.847
220.77	15.891
221.13	13.874
221.50	12.517
221.87	4.575
222.23	7.521
222.60	5.509
222.97	1.707
223.33	-0.462
223.70	-0.111
224.07	3.511
224.43	3.061
224.80	1.656
225.16	3.308
225.53	6.086
225.90	3.552
226.26	1.478
226.63	-0.043
226.99	1.784
227.36	3.967
227.73	3.212
228.09	0.264
228.46	-0.944
228.82	-0.339
229.19	-1.247
229.56	-5.217
229.92	-2.183
230.29	-0.973
230.65	-1.711
231.02	-2.239
231.38	-3.564
231.75	-3.598
232.12	-1.643
232.48	1.549
232.85	1.801
233.21	4.496
233.58	8.881
233.94	9.397
234.31	6.564
234.68	5.144
235.04	5.498
235.41	4.693
235.77	4.568
236.14	4.541
236.50	1.432
236.87	0.848
237.23	-1.502
237.60	-2.744
237.96	-3.148
238.33	-1.297
238.69	-0.374
239.06	-0.950
239.42	-0.103
239.79	0.065
240.15	-0.015
240.52	0.659
240.88	1.131
241.25	2.187
241.61	2.198
241.98	2.239
242.34	1.861
242.71	2.345
243.07	2.917
243.44	2.790
243.80	3.069
244.17	3.154
244.53	3.045
244.90	2.763
245.26	2.554
245.63	2.582
245.99	2.569
246.36	2.991
246.72	2.536
247.09	2.237
247.45	1.945
247.81	1.442
248.18	0.994
248.54	1.145
248.91	0.979
249.27	1.180
249.64	1.237
250.00	1.192
250.36	0.797
250.73	1.396
251.09	1.783
251.46	2.434
251.82	3.140
252.19	3.962
252.55	3.661
252.91	4.549
253.28	3.718
253.64	3.908
254.01	3.753
254.37	3.992
254.73	4.307
255.10	4.413
255.46	4.088
255.83	3.635
256.19	3.376
256.55	3.550
256.92	3.191
257.28	3.145
257.65	3.101
258.01	3.395
258.37	3.225
258.74	3.127
259.10	2.971
259.46	3.002
259.83	3.079
260.19	3.009
260.55	2.878
260.92	2.888
261.28	2.898
261.64	2.924
262.01	2.592
262.37	2.484
262.73	1.904
263.10	2.020
263.46	2.097
263.82	2.010
264.19	1.870
264.55	1.878
264.91	1.998
265.28	2.456
265.64	2.368
266.00	2.300
266.37	2.488
266.73	2.995
267.09	2.745
267.46	2.869
267.82	3.073
268.18	3.105
268.54	2.972
268.91	2.955
269.27	2.651
269.63	2.621
270.00	2.736
270.36	2.655
270.72	2.386
271.08	2.244
271.45	2.009
271.81	2.012
272.17	2.221
272.53	2.267
272.90	1.948
273.26	1.861
273.62	1.885
273.98	1.974
274.35	1.816
274.71	2.102
275.07	2.462
275.43	2.614
275.80	2.577
276.16	2.735
276.52	2.729
276.88	3.103
277.25	3.079
277.61	3.115
277.97	2.889
278.33	2.908
278.69	2.626
279.06	2.537
279.42	2.079
279.78	1.978
280.14	1.790
280.50	1.760
280.87	1.733
281.23	1.996
281.59	1.944
281.95	1.899
282.31	1.930
282.68	2.038
283.04	2.047
283.40	2.371
283.76	2.263
284.12	2.320
284.48	2.329
284.85	2.344
285.21	2.142
285.57	2.086
285.93	2.144
286.29	2.122
286.65	2.174
287.02	2.195
287.38	2.200
287.74	2.299
288.10	2.084
288.46	2.131
288.82	1.967
289.18	2.110
289.54	2.167
289.91	2.422
290.27	2.649
290.63	2.641
290.99	2.441
291.35	2.296
291.71	2.373
292.07	2.398
292.43	2.495
292.79	2.775
293.16	2.702
293.52	2.531
293.88	2.314
294.24	2.306
294.60	2.128
294.96	2.220
295.32	2.278
295.68	2.185
296.04	2.323
296.40	2.221
296.76	2.073
297.12	1.989
297.49	2.172
297.85	2.279
298.21	2.318
298.57	2.493
298.93	2.533
299.29	2.634
299.65	2.794
300.01	2.850
300.37	2.775
300.73	3.050
301.09	3.216
301.45	3.338
301.81	3.166
302.17	3.045
302.53	2.961
302.89	3.037
303.25	2.808
303.61	2.855
303.97	2.830
304.33	2.895
304.69	2.668
305.05	2.639
305.41	2.428
305.77	2.618
306.13	2.594
306.49	2.706
306.85	2.824
307.21	2.969
307.57	2.869
307.93	2.856
308.29	2.898
308.65	2.791
309.01	2.808
309.37	2.920
309.73	2.850
310.09	2.985
310.45	2.910
310.81	2.855
311.17	2.714
311.53	2.752
311.89	2.804
312.25	2.753
312.61	2.886
312.96	2.960
313.32	2.920
313.68	2.873
314.04	2.730
314.40	2.721
314.76	2.693
315.12	2.873
315.48	2.881
315.84	2.821
316.20	2.916
316.56	2.901
316.92	2.778
317.27	2.753
317.63	2.770
317.99	2.797
318.35	2.755
318.71	2.714
319.07	2.675
319.43	2.648
319.79	2.552
320.15	2.500
320.50	2.401
320.86	2.509
321.22	2.606
321.58	2.664
321.94	2.646
322.30	2.800
322.66	2.900
323.01	2.918
323.37	2.950
323.73	3.020
324.09	3.096
324.45	3.204
324.81	3.153
325.17	3.068
325.52	3.036
325.88	2.989
326.24	2.910
326.60	2.887
326.96	2.996
327.31	2.930
327.67	2.899
328.03	2.837
328.39	2.777
328.75	2.816
329.11	2.964
329.46	2.960
329.82	2.965
330.18	3.043
330.54	3.008
330.90	2.949
331.25	3.082
331.61	3.085
331.97	3.112
332.33	3.274
332.68	3.263
333.04	3.165
333.40	3.202
333.76	3.283
334.11	3.163
334.47	3.140
334.83	3.060
335.19	3.088
335.54	3.199
335.90	3.223
336.26	3.141
336.62	3.149
336.97	3.071
337.33	2.986
337.69	2.974
338.05	3.068
338.40	3.091
338.76	3.197
339.12	3.127
339.48	3.147
339.83	3.123
340.19	3.072
340.55	3.014
340.90	3.017
341.26	3.040
341.62	3.044
341.97	3.112
342.33	3.187
342.69	3.180
343.04	3.202
343.40	3.170
343.76	3.210
344.12	3.292
344.47	3.465
344.83	3.477
345.19	3.467
345.54	3.524
345.90	3.515
346.26	3.446
346.61	3.462
346.97	3.402
347.32	3.318
347.68	3.185
348.04	3.143
348.39	3.022
348.75	3.152
349.11	3.162
349.46	3.112
349.82	3.021
350.18	3.072
350.53	3.002
350.89	3.077
351.24	3.147
351.60	3.210
351.96	3.201
352.31	3.309
352.67	3.294
353.02	3.371
353.38	3.354
353.74	3.335
354.09	3.302
354.45	3.396
354.80	3.371
355.16	3.374
355.52	3.408
355.87	3.358
356.23	3.245
356.58	3.241
356.94	3.234
357.29	3.247
357.65	3.278
358.00	3.295
358.36	3.278
358.72	3.279
359.07	3.276
359.43	3.264
359.78	3.333
360.14	3.338
360.49	3.285
360.85	3.284
361.20	3.330
361.56	3.324
361.91	3.299
362.27	3.262
362.62	3.266
362.98	3.238
363.33	3.239
363.69	3.223
364.04	3.239
364.40	3.257
364.75	3.242
365.11	3.269
365.46	3.253
365.82	3.251
366.17	3.240
366.53	3.262
366.88	3.244
367.24	3.271
367.59	3.308
367.95	3.338
368.30	3.333
368.66	3.314
369.01	3.260
369.37	3.328
369.72	3.331
370.08	3.373
370.43	3.294
370.78	3.359
371.14	3.357
371.49	3.325
371.85	3.337
372.20	3.352
372.56	3.385
372.91	3.351
373.26	3.296
373.62	3.306
373.97	3.332
374.33	3.411
374.68	3.373
375.03	3.409
375.39	3.417
375.74	3.416
376.10	3.457
376.45	3.521
376.80	3.539
377.16	3.594
377.51	3.634
377.87	3.585
378.22	3.575
378.57	3.660
378.93	3.630
379.28	3.670
379.63	3.680
379.99	3.684
380.34	3.640
380.70	3.705
381.05	3.744
381.40	3.730
381.76	3.769
382.11	3.767
382.46	3.707
382.82	3.734
383.17	3.750
383.52	3.779
383.88	3.755
384.23	3.798
384.58	3.788
384.94	3.750
385.29	3.791
385.64	3.795
385.99	3.827
386.35	3.885
386.70	3.912
387.05	3.897
387.41	3.892
387.76	3.886
388.11	3.850
388.47	3.867
388.82	3.863
389.17	3.836
389.52	3.855
389.88	3.854
390.23	3.853
390.58	3.831
390.93	3.833
391.29	3.867
391.64	3.901
391.99	3.897
392.34	3.904
392.70	3.921
393.05	3.908
393.40	3.881
393.75	3.860
394.11	3.829
394.46	3.841
394.81	3.846
395.16	3.766
395.52	3.800
395.87	3.792
396.22	3.754
396.57	3.754
396.92	3.749
397.28	3.790
397.63	3.819
397.98	3.842
398.33	3.831
398.68	3.837
399.04	3.855
399.39	3.799
399.74	3.817
400.09	3.803
400.44	3.794
400.80	3.827
401.15	3.789
401.50	3.781
401.85	3.799
402.20	3.800
402.55	3.810
402.90	3.780
403.26	3.799
403.61	3.804
403.96	3.834
404.31	3.842
404.66	3.807
405.01	3.847
405.36	3.853
405.72	3.807
406.07	3.836
406.42	3.829
406.77	3.859
407.12	3.853
407.47	3.877
407.82	3.846
408.17	3.833
408.53	3.856
408.88	3.842
409.23	3.832
409.58	3.848
409.93	3.825
410.28	3.835
410.63	3.824
410.98	3.837
411.33	3.788
411.68	3.793
412.03	3.816
412.38	3.820
412.73	3.792
413.09	3.808
413.44	3.806
413.79	3.786
414.14	3.744
414.49	3.751
414.84	3.753
415.19	3.769
415.54	3.801
415.89	3.784
416.24	3.760
416.59	3.779
416.94	3.763
417.29	3.760
417.64	3.766
417.99	3.780
418.34	3.770
418.69	3.750
419.04	3.738
419.39	3.720
419.74	3.713
420.09	3.719
420.44	3.701
420.79	3.700
421.14	3.687
421.49	3.681
421.84	3.687
422.19	3.686
422.54	3.709
422.89	3.708
423.24	3.700
423.59	3.704
423.94	3.698
424.29	3.695
424.64	3.688
424.99	3.700
425.34	3.698
425.68	3.690
426.03	3.699
426.38	3.682
426.73	3.688
427.08	3.672
427.43	3.674
427.78	3.687
428.13	3.688
428.48	3.689
428.83	3.686
429.18	3.684
429.53	3.669
429.87	3.668
430.22	3.638
430.57	3.652
430.92	3.649
431.27	3.646
431.62	3.639
431.97	3.634
432.32	3.631
432.67	3.631
433.01	3.633
433.36	3.635
433.71	3.639
434.06	3.648
434.41	3.641
434.76	3.670
435.11	3.660
435.45	3.663
435.80	3.657
436.15	3.663
436.50	3.653
436.85	3.645
437.20	3.650
437.54	3.659
437.89	3.656
438.24	3.655
438.59	3.644
438.94	3.655
439.29	3.656
439.63	3.655
439.98	3.640
440.33	3.645
440.68	3.644
441.03	3.628
441.37	3.606
441.72	3.601
442.07	3.600
442.42	3.604
442.76	3.595
443.11	3.575
443.46	3.569
443.81	3.564
444.16	3.556
444.50	3.559
444.85	3.550
445.20	3.540
445.55	3.541
445.89	3.516
446.24	3.490
446.59	3.467
446.94	3.457
447.28	3.451
447.63	3.447
447.98	3.425
448.32	3.409
448.67	3.406
449.02	3.400
449.37	3.386
449.71	3.389
450.06	3.375
450.41	3.379
450.75	3.383
451.10	3.374
451.45	3.368
451.79	3.369
452.14	3.357
452.49	3.354
452.84	3.355
453.18	3.331
453.53	3.311
453.88	3.327
454.22	3.332
454.57	3.344
454.92	3.366
455.26	3.373
455.61	3.394
455.95	3.408
456.30	3.433
456.65	3.453
456.99	3.464
457.34	3.479
457.69	3.498
458.03	3.489
458.38	3.494
458.73	3.488
459.07	3.513
459.42	3.505
459.76	3.504
460.11	3.479
460.46	3.460
460.80	3.490
461.15	3.502
461.49	3.483
461.84	3.499
462.19	3.505
462.53	3.524
462.88	3.497
463.22	3.513
463.57	3.547
463.91	3.583
464.26	3.624
464.61	3.627
464.95	3.651
465.30	3.686
465.64	3.722
465.99	3.728
466.33	3.748
466.68	3.789
467.02	3.801
467.37	3.823
467.71	3.832
468.06	3.851
468.41	3.863
468.75	3.863
469.10	3.868
469.44	3.877
469.79	3.877
470.13	3.881
470.48	3.867
470.82	3.881
471.17	3.872
471.51	3.882
471.86	3.854
472.20	3.853
472.55	3.858
472.89	3.861
473.23	3.843
473.58	3.841
473.92	3.819
474.27	3.814
474.61	3.810
474.96	3.781
475.30	3.759
475.65	3.757
475.99	3.754
476.34	3.754
476.68	3.740
477.02	3.738
477.37	3.741
477.71	3.741
478.06	3.756
478.40	3.771
478.75	3.814
479.09	3.859
479.43	3.924
479.78	3.979
480.12	4.034
480.47	4.117
480.81	4.190
481.15	4.274
481.50	4.359
481.84	4.446
482.19	4.535
482.53	4.612
482.87	4.658
483.22	4.652
483.56	4.611
483.90	4.550
484.25	4.453
484.59	4.371
484.94	4.301
485.28	4.231
485.62	4.154
485.97	4.068
486.31	3.991
486.65	3.950
487.00	3.949
487.34	3.985
487.68	4.033
488.03	4.106
488.37	4.165
488.71	4.201
489.06	4.229
489.40	4.240
489.74	4.257
490.09	4.278
490.43	4.288
490.77	4.293
491.11	4.306
491.46	4.333
491.80	4.362
492.14	4.376
492.49	4.398
492.83	4.424
493.17	4.453
493.51	4.500
493.86	4.538
494.20	4.588
494.54	4.645
494.88	4.707
495.23	4.760
495.57	4.812
495.91	4.888
496.25	4.946
496.60	5.027
496.94	5.098
497.28	5.170
497.62	5.267
497.97	5.359
498.31	5.474
498.65	5.563
498.99	5.668
499.33	5.778
499.68	5.896
500.02	6.027
500.36	6.138
500.70	6.277
501.04	6.413
501.39	6.527
501.73	6.687
502.07	6.811
502.41	6.972
502.75	7.109
503.09	7.279
503.44	7.436
503.78	7.594
504.12	7.769
504.46	7.962
504.80	8.152
505.14	8.345
505.49	8.515
505.83	8.722
506.17	8.913
506.51	9.124
506.85	9.312
507.19	9.521
507.53	9.727
507.87	9.931
508.22	10.133
508.56	10.333
508.90	10.561
509.24	10.781
509.58	10.997
509.92	11.231
510.26	11.458
510.60	11.706
510.94	11.933
511.28	12.176
511.63	12.442
511.97	12.697
512.31	12.963
512.65	13.211
512.99	13.482
513.33	13.758
513.67	14.062
514.01	14.370
514.35	14.657
514.69	14.940
515.03	15.212
515.37	15.456
515.71	15.705
516.05	15.929
516.39	16.149
516.73	16.364
517.07	16.578
517.41	16.763
517.75	16.940
518.09	17.128
518.43	17.326
518.77	17.535
519.11	17.775
519.45	18.004
519.79	18.256
520.13	18.521
520.47	18.770
520.81	19.021
521.15	19.286
521.49	19.562
521.83	19.806
522.17	20.042
522.51	20.274
522.85	20.493
523.19	20.759
523.53	21.083
523.87	21.414
524.21	21.746
524.55	22.043
524.89	22.316
525.23	22.565
525.57	22.796
525.91	23.031
526.25	23.239
526.58	23.432
526.92	23.589
527.26	23.709
527.60	23.813
527.94	23.892
528.28	23.981
528.62	24.067
528.96	24.141
529.30	24.233
529.64	24.303
529.97	24.380
530.31	24.444
530.65	24.554
530.99	24.672
531.33	24.800
531.67	24.936
532.01	25.078
532.35	25.186
532.68	25.303
533.02	25.391
533.36	25.487
533.70	25.574
534.04	25.679
534.38	25.758
534.71	25.863
535.05	25.959
535.39	26.061
535.73	26.171
536.07	26.307
536.41	26.493
536.74	26.648
537.08	26.799
537.42	26.962
537.76	27.130
538.10	27.283
538.43	27.419
538.77	27.552
539.11	27.661
539.45	27.737
539.79	27.804
540.12	27.836
540.46	27.886
540.80	27.927
541.14	27.927
541.47	27.944
541.81	27.977
542.15	27.999
542.49	28.018
542.82	28.040
543.16	28.102
543.50	28.148
543.84	28.196
544.17	28.260
544.51	28.344
544.85	28.469
545.18	28.551
545.52	28.614
545.86	28.681
546.20	28.756
546.53	28.857
546.87	28.928
547.21	29.012
547.54	29.130
547.88	29.254
548.22	29.313
548.55	29.413
548.89	29.496
549.23	29.577
549.56	29.636
549.90	29.711
550.24	29.770
550.57	29.811
550.91	29.864
551.25	29.881
551.58	29.894
551.92	29.939
552.26	29.966
552.59	30.024
552.93	30.088
553.27	30.171
553.60	30.192
553.94	30.252
554.27	30.294
554.61	30.384
554.95	30.462
555.28	30.557
555.62	30.638
555.95	30.686
556.29	30.730
556.63	30.762
556.96	30.748
557.30	30.809
557.63	30.846
557.97	30.899
558.31	30.929
558.64	30.965
558.98	30.961
559.31	30.993
559.65	31.020
559.98	31.023
560.32	31.040
560.65	31.074
560.99	31.080
561.33	31.087
561.66	31.094
562.00	31.103
562.33	31.089
562.67	31.121
563.00	31.119
563.34	31.142
563.67	31.177
564.01	31.179
564.34	31.191
564.68	31.194
565.01	31.173
565.35	31.141
565.68	31.121
566.02	31.163
566.35	31.136
566.69	31.129
567.02	31.113
567.36	31.134
567.69	31.168
568.03	31.186
568.36	31.197
568.69	31.236
569.03	31.267
569.36	31.295
569.70	31.261
570.03	31.289
570.37	31.276
570.70	31.264
571.04	31.238
571.37	31.224
571.70	31.230
572.04	31.238
572.37	31.236
572.71	31.241
573.04	31.207
573.37	31.213
573.71	31.200
574.04	31.250
574.38	31.313
574.71	31.353
575.04	31.393
575.38	31.422
575.71	31.443
576.05	31.504
576.38	31.566
576.71	31.613
577.05	31.653
577.38	31.723
577.71	31.778
578.05	31.778
578.38	31.802
578.71	31.826
579.05	31.832
579.38	31.881
579.71	31.881
580.05	31.866
580.38	31.899
580.71	31.898
581.05	31.870
581.38	31.836
581.71	31.863
582.05	31.849
582.38	31.858
582.71	31.875
583.04	31.843
583.38	31.839
583.71	31.839
584.04	31.829
584.38	31.858
584.71	31.843
585.04	31.831
585.37	31.828
585.71	31.827
586.04	31.793
586.37	31.760
586.70	31.770
587.04	31.730
587.37	31.726
587.70	31.713
588.03	31.666
588.37	31.676
588.70	31.629
589.03	31.572
589.36	31.560
589.69	31.532
590.03	31.495
590.36	31.452
590.69	31.421
591.02	31.397
591.35	31.347
591.69	31.321
592.02	31.222
592.35	31.191
592.68	31.140
593.01	31.052
593.35	31.017
593.68	30.970
594.01	30.910
594.34	30.848
594.67	30.786
595.00	30.780
595.34	30.734
595.67	30.720
596.00	30.724
596.33	30.690
596.66	30.704
596.99	30.666
597.32	30.681
597.65	30.695
597.99	30.702
598.32	30.701
598.65	30.675
598.98	30.656
599.31	30.636
599.64	30.547
599.97	30.525
600.30	30.427
600.63	30.385
600.96	30.316
601.30	30.208
601.63	30.144
601.96	30.078
602.29	30.029
602.62	29.980
602.95	29.949
603.28	29.911
603.61	29.898
603.94	29.893
604.27	29.863
604.60	29.831
604.93	29.847
605.26	29.823
605.59	29.794
605.92	29.748
606.25	29.730
606.58	29.712
606.91	29.712
607.24	29.667
607.57	29.640
607.90	29.612
608.23	29.596
608.56	29.567
608.89	29.565
609.22	29.582
609.55	29.580
609.88	29.571
610.21	29.540
610.54	29.553
610.87	29.588
611.20	29.632
611.53	29.649
611.86	29.649
612.19	29.680
612.52	29.670
612.85	29.656
613.18	29.667
613.51	29.637
613.84	29.653
614.17	29.652
614.49	29.596
614.82	29.579
615.15	29.557
615.48	29.550
615.81	29.514
616.14	29.494
616.47	29.464
616.80	29.404
617.13	29.445
617.46	29.401
617.78	29.354
618.11	29.365
618.44	29.297
618.77	29.238
619.10	29.212
619.43	29.179
619.76	29.125
620.09	29.135
620.41	29.117
620.74	29.055
621.07	29.003
621.40	28.953
621.73	28.881
622.06	28.822
622.38	28.812
622.71	28.677
623.04	28.569
623.37	28.544
623.70	28.462
624.02	28.387
624.35	28.352
624.68	28.305
625.01	28.266
625.34	28.210
625.66	28.181
625.99	28.100
626.32	28.126
626.65	28.154
626.98	28.118
627.30	28.096
627.63	28.094
627.96	28.043
628.29	28.040
628.61	28.007
628.94	27.971
629.27	27.920
629.60	27.968
629.92	27.915
630.25	27.911
630.58	27.895
630.91	27.843
631.23	27.831
631.56	27.774
631.89	27.762
632.21	27.688
632.54	27.633
632.87	27.626
633.19	27.557
633.52	27.532
633.85	27.481
634.18	27.421
634.50	27.400
634.83	27.346
635.16	27.331
635.48	27.301
635.81	27.293
636.14	27.314
636.46	27.296
636.79	27.281
637.11	27.286
637.44	27.273
637.77	27.271
638.09	27.211
638.42	27.194
638.75	27.160
639.07	27.126
639.40	27.126
639.73	27.160
640.05	27.147
640.38	27.122
640.70	27.058
641.03	26.962
641.36	26.952
641.68	26.970
642.01	26.964
642.33	26.989
642.66	26.908
642.98	26.889
643.31	26.823
643.64	26.812
643.96	26.794
644.29	26.807
644.61	26.844
644.94	26.842
645.26	26.781
645.59	26.692
645.91	26.670
646.24	26.681
646.56	26.631
646.89	26.554
647.22	26.482
647.54	26.427
647.87	26.390
648.19	26.327
648.52	26.246
648.84	26.252
649.17	26.245
649.49	26.177
649.82	26.118
650.14	26.073
650.47	26.072
650.79	26.036
651.11	25.964
651.44	25.910
651.76	25.861
652.09	25.790
652.41	25.771
652.74	25.738
653.06	25.706
653.39	25.730
653.71	25.689
654.04	25.633
654.36	25.622
654.68	25.617
655.01	25.583
655.33	25.539
655.66	25.507
655.98	25.403
656.30	25.330
656.63	25.277
656.95	25.147
657.28	25.088
657.60	25.014
657.92	24.932
658.25	24.829
658.57	24.777
658.90	24.791
659.22	24.761
659.54	24.761
659.87	24.708
660.19	24.687
660.51	24.751
660.84	24.797
661.16	24.806
661.48	24.817
661.81	24.852
662.13	24.835
662.45	24.776
662.78	24.754
663.10	24.731
663.42	24.798
663.75	24.793
664.07	24.751
664.39	24.672
664.72	24.659
665.04	24.604
665.36	24.565
665.69	24.543
666.01	24.510
666.33	24.539
666.65	24.479
666.98	24.433
667.30	24.388
667.62	24.288
667.94	24.302
668.27	24.272
668.59	24.284
668.91	24.253
669.23	24.279
669.56	24.270
669.88	24.252
670.20	24.275
670.52	24.202
670.85	24.232
671.17	24.297
671.49	24.282
671.81	24.333
672.13	24.305
672.46	24.307
672.78	24.253
673.10	24.234
673.42	24.185
673.74	24.161
674.07	24.180
674.39	24.115
674.71	24.090
675.03	24.063
675.35	23.979
675.67	23.929
676.00	23.890
676.32	23.853
676.64	23.784
676.96	23.739
677.28	23.691
677.60	23.607
677.92	23.546
678.25	23.477
678.57	23.428
678.89	23.441
679.21	23.405
679.53	23.452
679.85	23.396
680.17	23.440
680.49	23.421
680.81	23.383
681.13	23.471
681.46	23.563
681.78	23.657
682.10	23.748
682.42	23.670
682.74	23.647
683.06	23.587
683.38	23.617
683.70	23.623
684.02	23.593
684.34	23.635
684.66	23.609
684.98	23.514
685.30	23.482
685.62	23.404
685.94	23.393
686.26	23.412
686.58	23.412
686.90	23.425
687.22	23.361
687.54	23.392
687.86	23.372
688.18	23.275
688.50	23.245
688.82	23.153
689.14	23.065
689.46	23.083
689.78	22.995
690.10	22.968
690.42	22.919
690.74	22.864
691.06	22.791
691.38	22.710
691.70	22.658
692.02	22.668
692.34	22.621
692.66	22.590
692.98	22.486
693.30	22.537
693.62	22.447
693.94	22.331
694.26	22.301
694.57	22.276
694.89	22.233
695.21	22.263
695.53	22.183
695.85	22.218
696.17	22.178
696.49	22.132
696.81	22.122
697.13	22.124
697.44	22.161
697.76	22.143
698.08	22.122
698.40	22.104
698.72	22.084
699.04	22.004
699.36	21.912
699.67	21.879
699.99	21.824
700.31	21.705
700.63	21.642
700.95	21.602
701.27	21.526
701.58	21.502
701.90	21.449
702.22	21.383
702.54	21.411
702.86	21.390
703.17	21.384
703.49	21.395
703.81	21.437
704.13	21.410
704.45	21.434
704.76	21.467
705.08	21.411
705.40	21.416
705.72	21.397
706.03	21.432
706.35	21.470
706.67	21.408
706.99	21.404
707.30	21.355
707.62	21.402
707.94	21.358
708.26	21.355
708.57	21.336
708.89	21.333
709.21	21.327
709.53	21.250
709.84	21.192
710.16	21.222
710.48	21.341
710.79	21.362
711.11	21.268
711.43	21.209
711.74	21.097
712.06	21.143
712.38	21.148
712.69	21.151
713.01	21.115
713.33	21.053
713.64	21.019
713.96	20.859
714.28	20.907
714.59	20.973
714.91	20.961
715.23	21.089
715.54	21.086
715.86	21.140
716.17	21.224
716.49	21.260
716.81	21.355
717.12	21.309
717.44	21.345
717.76	21.369
718.07	21.314
718.39	21.333
718.70	21.327
719.02	21.366
719.33	21.239
719.65	21.064
719.97	21.122
720.28	21.010
720.60	21.145
720.91	21.216
721.23	21.113
721.54	21.204
721.86	21.271
722.17	21.172
722.49	21.070
722.81	21.006
723.12	21.021
723.44	21.027
723.75	21.089
724.07	20.932
724.38	21.006
724.70	21.051
725.01	20.985
725.33	20.968
725.64	20.934
725.96	21.019
726.27	20.946
726.59	20.958
726.90	20.861
727.22	20.757
727.53	20.813
727.84	20.696
728.16	20.641
728.47	20.641
728.79	20.594
729.10	20.604
729.42	20.471
729.73	20.538
730.05	20.581
730.36	20.555
730.67	20.575
730.99	20.538
731.30	20.410
731.62	20.217
731.93	20.173
732.24	20.041
732.56	19.905
732.87	19.848
733.19	19.691
733.50	19.555
733.81	19.494
734.13	19.421
734.44	19.445
734.76	19.499
735.07	19.552
735.38	19.426
735.70	19.474
736.01	19.614
736.32	19.638
736.64	19.869
736.95	19.790
737.26	19.767
737.58	19.743
737.89	19.645
738.20	19.531
738.52	19.464
738.83	19.497
739.14	19.368
739.45	19.294
739.77	19.254
740.08	19.115
740.39	19.047
740.71	19.049
741.02	19.042
741.33	19.111
741.64	19.074
741.96	19.016
742.27	18.837
742.58	18.759
742.90	18.767
743.21	18.579
743.52	18.510
743.83	18.574
744.14	18.509
744.46	18.249
744.77	18.028
745.08	18.213
745.39	18.252
745.71	18.253
746.02	18.341
746.33	18.196
746.64	18.343
746.95	18.310
747.27	18.445
747.58	18.518
747.89	18.656
748.20	18.713
748.51	18.504
748.82	18.531
749.14	18.581
749.45	18.658
749.76	18.560
750.07	18.447
750.38	18.314
750.69	18.313
751.01	18.468
751.32	18.669
751.63	18.623
751.94	18.678
752.25	18.784
752.56	18.613
752.87	18.580
753.18	18.593
753.49	18.641
753.81	18.691
754.12	18.794
754.43	18.658
754.74	18.661
755.05	18.693
755.36	18.797
755.67	18.765
755.98	19.169
756.29	19.255
756.60	19.426
756.91	19.677
757.22	20.121
757.53	20.070
757.84	20.121
758.15	20.235
758.46	20.541
758.77	20.810
759.09	20.926
759.40	21.051
759.71	21.185
760.02	21.178
760.33	21.194
760.64	21.140
760.95	21.059
761.26	21.048
761.57	21.073
761.88	20.945
762.18	20.858
762.49	20.855
762.80	20.678
763.11	20.478
763.42	20.362
763.73	20.291
764.04	20.027
764.35	19.894
764.66	19.754
764.97	19.457
765.28	19.412
765.59	19.102
765.90	18.793
766.21	18.712
766.52	18.518
766.83	18.476
767.14	18.074
767.44	18.041
767.75	17.941
768.06	18.107
768.37	17.862
768.68	17.729
768.99	17.729
769.30	17.532
769.61	17.199
769.91	17.309
770.22	17.247
770.53	17.255
770.84	17.252
771.15	17.595
771.46	17.261
771.77	17.156
772.07	17.177
772.38	17.224
772.69	17.360
773.00	17.338
773.31	17.583
773.61	17.431
773.92	17.510
774.23	17.474
774.54	17.279
774.85	17.285
775.15	17.594
775.46	17.242
775.77	17.186
776.08	17.093
776.39	17.271
776.69	16.931
777.00	17.352
777.31	17.471
777.62	17.740
777.92	17.644
778.23	17.749
778.54	17.617
778.85	17.653
779.15	17.684
779.46	17.949
779.77	18.110
780.07	18.131
780.38	17.858
780.69	17.759
781.00	17.235
781.30	17.190
781.61	17.028
781.92	17.278
782.22	17.406
782.53	17.198
782.84	16.920
783.14	16.827
783.45	16.960
783.76	17.110
784.06	17.024
784.37	17.568
784.68	17.630
784.98	17.829
785.29	17.893
785.60	18.038
785.90	18.424
786.21	18.558
786.51	18.660
786.82	18.516
787.13	18.616
787.43	18.840
787.74	18.782
788.04	18.786
788.35	18.586
788.66	18.573
788.96	18.614
789.27	18.776
789.57	18.992
789.88	19.010
790.19	19.350
790.49	19.198
790.80	19.090
791.10	18.925
791.41	18.723
791.71	18.926
792.02	19.105
792.32	18.884
792.63	18.411
792.93	18.287
793.24	18.038
793.54	17.615
793.85	17.890
794.15	17.736
794.46	17.659
794.76	17.852
795.07	17.769
795.37	17.483
795.68	17.440
795.98	17.682
796.29	17.601
796.59	17.701
796.90	17.722
797.20	17.431
797.51	17.746
797.81	17.761
798.12	17.885
798.42	18.205
798.72	18.286
799.03	18.378
799.33	18.316
799.64	18.528
799.94	18.544
800.25	18.789
800.55	18.851
800.85	18.737
801.16	18.889
801.46	18.884
801.77	18.385
802.07	17.992
802.37	18.069
802.68	17.855
802.98	17.707
803.28	17.680
803.59	17.458
803.89	17.669
804.20	17.823
804.50	17.835
804.80	17.287
805.11	17.443
805.41	17.885
805.71	17.938
806.02	17.935
806.32	18.052
806.62	18.178
806.93	18.463
807.23	18.031
807.53	17.754
807.83	17.720
808.14	17.968
808.44	17.888
808.74	17.912
809.05	18.201
809.35	18.331
809.65	18.006
809.95	17.835
810.26	17.810
810.56	18.179
810.86	18.239
811.16	18.318
811.47	18.415
811.77	19.071
812.07	19.131
812.37	18.669
812.68	18.490
812.98	18.924
813.28	19.354
813.58	18.963
813.88	18.789
814.19	18.906
814.49	18.436
814.79	18.696
815.09	18.127
815.39	18.440
815.70	18.655
816.00	18.659
816.30	18.621
816.60	18.513
816.90	18.793
817.20	19.172
817.50	19.289
817.81	19.897
818.11	20.085
818.41	20.423
818.71	20.309
819.01	20.262
819.31	20.401
819.61	20.416
819.92	20.369
820.22	20.382
820.52	20.411
820.82	20.461
821.12	20.437
821.42	20.369
821.72	20.336
822.02	20.252
822.32	20.291
822.62	20.223
822.92	20.146
823.22	20.148
823.52	20.162
823.83	20.048
824.13	20.034
824.43	19.921
824.73	19.805
825.03	19.673
825.33	19.806
825.63	19.841
825.93	19.916
826.23	20.042
826.53	19.918
826.83	19.959
827.13	19.996
827.43	19.896
827.73	19.930
828.03	20.141
828.33	20.169
828.63	20.076
828.93	19.751
829.23	19.683
829.53	19.359
829.83	19.752
830.13	19.534
830.42	19.621
830.72	19.631
831.02	19.741
831.32	19.656
831.62	19.673
831.92	19.512
832.22	19.756
832.52	19.769
832.82	19.898
833.12	19.587
833.42	19.655
833.72	19.638
834.01	19.679
834.31	19.286
834.61	19.435
834.91	19.409
835.21	19.489
835.51	19.136
835.81	19.338
836.11	19.387
836.40	19.601
836.70	19.783
837.00	19.600
837.30	19.244
837.60	19.993
837.90	19.613
838.19	19.697
838.49	19.620
838.79	20.162
839.09	19.739
839.39	19.368
839.68	19.385
839.98	18.717
840.28	18.390
840.58	18.330
840.88	17.594
841.17	17.947
841.47	17.540
841.77	17.710
842.07	17.348
842.36	17.037
842.66	16.452
842.96	16.215
843.26	15.824
843.55	15.585
843.85	15.082
844.15	14.819
844.45	14.830
844.74	15.872
845.04	15.739
845.34	16.387
845.63	15.016
845.93	16.688
846.23	17.158
846.53	18.093
846.82	18.312
847.12	17.930
847.42	16.866
847.71	15.332
848.01	14.336
848.31	16.458
848.60	14.970
848.90	14.398
849.19	14.472
849.49	14.681
849.79	13.302
850.08	14.837
850.38	14.836
850.68	17.399
850.97	19.330
851.27	19.006
851.56	15.611
851.86	15.892
852.16	18.396
852.45	18.274
852.75	17.464
853.04	19.275
853.34	17.411
853.64	17.269
853.93	15.744
854.23	15.128
854.52	14.211
854.82	15.832
855.11	15.373
855.41	14.080
855.70	13.993
856.00	14.189
856.30	13.485
856.59	12.734
856.89	14.099
857.18	14.577
857.48	13.838
857.77	13.932
858.07	13.596
858.36	13.494
858.66	14.006
858.95	14.068
859.25	13.760
859.54	12.927
859.84	15.643
860.13	16.088
860.42	16.767
860.72	17.918
861.01	19.647
861.31	20.163
861.60	21.774
861.90	21.077
862.19	19.679
862.49	19.782
862.78	21.072
863.07	19.357
863.37	18.159
863.66	18.508
863.96	17.402
864.25	17.400
864.54	18.581
864.84	18.158
865.13	18.193
865.43	18.541
865.72	24.523
866.01	33.208
866.31	20.589
866.60	8.879
866.89	11.441
>>>>>End Spectral Data<<<<<
