OOIBase32 Version 2.0.0.6 Data File
++++++++++++++++++++++++++++++++++++
Date: 01-22-2012, 12:56:33
User: Valued Ocean Optics Customer
Spectrometer Serial Number: USB2E2917
Spectrometer Channel: Master
Integration Time (msec): 5
Spectra Averaged: 10
Boxcar Smoothing: 5
Correct for Electrical Dark: Enabled
Time Normalized: Disabled
Dual-beam Reference: Disabled
Reference Channel: Master
Temperature: Not acquired
Spectrometer Type: S2000
ADC Type: USB2000
Number of Pixels in File: 2048
Graph Title: 
>>>>>Begin Spectral Data<<<<<
180.30	0.000
180.67	0.000
181.03	-92.307
181.40	-61.486
181.77	-254.023
182.14	100.724
182.51	40.017
182.88	13.083
183.25	466.716
183.62	56.239
183.99	-85.853
184.36	78.453
184.73	-12.385
185.10	-26.096
185.46	-8.326
185.83	-331.251
186.20	31.853
186.57	-112.670
186.94	-815.920
187.31	194.184
187.68	331.639
188.05	-53.634
188.42	-75.318
188.78	-51.186
189.15	179.894
189.52	177.360
189.89	80.647
190.26	60.837
190.63	38.885
191.00	15.398
191.37	15.551
191.73	24.409
192.10	5.053
192.47	16.167
192.84	22.479
193.21	23.711
193.58	16.984
193.94	14.771
194.31	13.294
194.68	8.903
195.05	2.558
195.42	3.899
195.79	5.921
196.15	26.081
196.52	18.947
196.89	-6.924
197.26	-10.750
197.63	-21.964
198.00	-9.594
198.36	-35.385
198.73	-44.038
199.10	-43.583
199.47	-38.183
199.84	-84.650
200.20	-94.997
200.57	-143.307
200.94	-87.900
201.31	-76.882
201.68	-62.534
202.04	-70.003
202.41	-48.390
202.78	-33.975
203.15	-32.946
203.51	-45.571
203.88	-33.528
204.25	-33.629
204.62	-3.159
204.98	3.604
205.35	-8.300
205.72	-28.999
206.09	-38.363
206.46	-23.431
206.82	-4.618
207.19	5.340
207.56	9.219
207.92	15.741
208.29	18.394
208.66	2.575
209.03	11.435
209.39	17.615
209.76	14.007
210.13	14.935
210.50	7.705
210.86	8.031
211.23	5.599
211.60	3.588
211.96	1.251
212.33	-2.581
212.70	3.336
213.07	-4.714
213.43	-9.656
213.80	1.325
214.17	5.880
214.53	9.135
214.90	8.050
215.27	9.614
215.63	5.345
216.00	-8.481
216.37	-17.095
216.74	-25.525
217.10	-15.723
217.47	-14.672
217.84	-2.324
218.20	-7.992
218.57	-5.890
218.94	3.568
219.30	2.610
219.67	4.775
220.04	16.703
220.40	21.014
220.77	29.698
221.13	29.430
221.50	21.683
221.87	18.314
222.23	21.881
222.60	18.765
222.97	11.288
223.33	11.444
223.70	12.111
224.07	17.021
224.43	20.114
224.80	19.621
225.16	19.198
225.53	20.823
225.90	21.781
226.26	21.402
226.63	22.454
226.99	23.685
227.36	23.957
227.73	25.110
228.09	23.712
228.46	22.833
228.82	23.234
229.19	22.777
229.56	22.922
229.92	22.115
230.29	24.294
230.65	24.856
231.02	23.840
231.38	22.812
231.75	22.578
232.12	23.603
232.48	25.688
232.85	24.375
233.21	24.762
233.58	24.612
233.94	24.662
234.31	22.327
234.68	21.753
235.04	21.495
235.41	22.721
235.77	20.192
236.14	19.425
236.50	17.391
236.87	16.544
237.23	15.766
237.60	15.665
237.96	16.057
238.33	17.795
238.69	17.085
239.06	17.876
239.42	17.341
239.79	18.299
240.15	17.804
240.52	17.552
240.88	18.126
241.25	17.912
241.61	18.134
241.98	17.738
242.34	17.337
242.71	17.484
243.07	17.194
243.44	17.679
243.80	17.336
244.17	17.669
244.53	18.044
244.90	18.104
245.26	18.637
245.63	19.121
245.99	19.477
246.36	19.170
246.72	19.334
247.09	19.603
247.45	19.658
247.81	19.967
248.18	19.896
248.54	19.645
248.91	19.219
249.27	18.701
249.64	17.829
250.00	17.292
250.36	17.643
250.73	17.256
251.09	16.896
251.46	16.487
251.82	16.160
252.19	16.359
252.55	16.324
252.91	16.732
253.28	17.110
253.64	16.652
254.01	16.783
254.37	15.839
254.73	15.388
255.10	15.413
255.46	15.306
255.83	15.564
256.19	15.353
256.55	15.233
256.92	15.308
257.28	15.281
257.65	15.673
258.01	15.962
258.37	16.368
258.74	16.514
259.10	16.789
259.46	16.835
259.83	16.918
260.19	17.026
260.55	17.214
260.92	17.076
261.28	17.050
261.64	16.811
262.01	16.531
262.37	16.478
262.73	16.216
263.10	15.436
263.46	15.463
263.82	15.178
264.19	15.325
264.55	15.397
264.91	15.756
265.28	15.983
265.64	16.375
266.00	16.528
266.37	16.469
266.73	16.900
267.09	17.112
267.46	16.884
267.82	16.787
268.18	16.801
268.54	16.620
268.91	16.585
269.27	16.206
269.63	16.038
270.00	15.697
270.36	15.620
270.72	15.455
271.08	15.252
271.45	15.566
271.81	15.617
272.17	15.329
272.53	15.240
272.90	14.916
273.26	15.113
273.62	15.095
273.98	15.098
274.35	15.182
274.71	15.165
275.07	15.414
275.43	14.916
275.80	15.020
276.16	15.201
276.52	15.287
276.88	15.783
277.25	15.592
277.61	15.333
277.97	15.425
278.33	15.270
278.69	15.089
279.06	14.809
279.42	15.020
279.78	14.865
280.14	14.563
280.50	14.340
280.87	13.894
281.23	13.957
281.59	13.982
281.95	13.879
282.31	13.842
282.68	13.728
283.04	13.875
283.40	13.833
283.76	13.827
284.12	13.975
284.48	14.276
284.85	14.424
285.21	14.346
285.57	14.186
285.93	14.096
286.29	14.206
286.65	14.165
287.02	13.917
287.38	13.911
287.74	14.124
288.10	14.126
288.46	14.020
288.82	13.893
289.18	13.763
289.54	14.030
289.91	14.442
290.27	14.433
290.63	14.631
290.99	14.659
291.35	14.721
291.71	14.604
292.07	14.704
292.43	14.659
292.79	14.892
293.16	15.261
293.52	15.462
293.88	15.344
294.24	15.283
294.60	15.539
294.96	15.733
295.32	15.678
295.68	15.704
296.04	15.642
296.40	15.767
296.76	15.683
297.12	15.672
297.49	15.599
297.85	15.610
298.21	15.777
298.57	15.650
298.93	15.798
299.29	15.995
299.65	16.127
300.01	16.378
300.37	16.433
300.73	16.684
301.09	16.711
301.45	16.967
301.81	17.168
302.17	17.305
302.53	17.676
302.89	17.828
303.25	17.922
303.61	18.022
303.97	18.066
304.33	18.209
304.69	18.315
305.05	18.531
305.41	18.657
305.77	18.781
306.13	18.811
306.49	18.632
306.85	18.558
307.21	18.537
307.57	18.632
307.93	18.733
308.29	18.674
308.65	18.660
309.01	18.648
309.37	18.465
309.73	18.221
310.09	18.198
310.45	18.183
310.81	18.249
311.17	18.345
311.53	18.312
311.89	18.291
312.25	18.352
312.61	18.367
312.96	18.303
313.32	18.315
313.68	18.555
314.04	18.577
314.40	18.663
314.76	18.641
315.12	18.534
315.48	18.582
315.84	18.595
316.20	18.548
316.56	18.459
316.92	18.397
317.27	18.380
317.63	18.169
317.99	18.049
318.35	17.935
318.71	17.823
319.07	17.809
319.43	17.704
319.79	17.559
320.15	17.556
320.50	17.488
320.86	17.352
321.22	17.126
321.58	17.205
321.94	17.221
322.30	17.040
322.66	17.034
323.01	16.825
323.37	16.853
323.73	16.712
324.09	16.564
324.45	16.469
324.81	16.470
325.17	16.528
325.52	16.412
325.88	16.275
326.24	16.240
326.60	16.125
326.96	16.175
327.31	16.012
327.67	15.910
328.03	15.833
328.39	15.814
328.75	15.802
329.11	15.784
329.46	15.731
329.82	15.731
330.18	15.836
330.54	15.765
330.90	15.850
331.25	15.714
331.61	15.715
331.97	15.683
332.33	15.645
332.68	15.510
333.04	15.481
333.40	15.489
333.76	15.367
334.11	15.220
334.47	15.233
334.83	15.055
335.19	15.139
335.54	15.123
335.90	15.078
336.26	15.092
336.62	15.104
336.97	14.987
337.33	14.798
337.69	14.791
338.05	14.773
338.40	14.735
338.76	14.654
339.12	14.493
339.48	14.400
339.83	14.578
340.19	14.419
340.55	14.414
340.90	14.476
341.26	14.585
341.62	14.606
341.97	14.763
342.33	14.753
342.69	14.866
343.04	14.808
343.40	14.775
343.76	14.621
344.12	14.628
344.47	14.540
344.83	14.423
345.19	14.242
345.54	14.127
345.90	13.923
346.26	13.830
346.61	13.661
346.97	13.739
347.32	13.802
347.68	13.725
348.04	13.656
348.39	13.602
348.75	13.595
349.11	13.666
349.46	13.614
349.82	13.610
350.18	13.549
350.53	13.596
350.89	13.448
351.24	13.310
351.60	13.275
351.96	13.201
352.31	13.266
352.67	13.199
353.02	13.159
353.38	13.179
353.74	13.136
354.09	13.233
354.45	13.176
354.80	13.177
355.16	13.287
355.52	13.301
355.87	13.375
356.23	13.402
356.58	13.432
356.94	13.396
357.29	13.373
357.65	13.396
358.00	13.256
358.36	13.304
358.72	13.382
359.07	13.320
359.43	13.229
359.78	13.185
360.14	13.118
360.49	13.130
360.85	13.104
361.20	13.105
361.56	13.049
361.91	13.058
362.27	12.967
362.62	12.829
362.98	12.745
363.33	12.705
363.69	12.630
364.04	12.566
364.40	12.505
364.75	12.430
365.11	12.350
365.46	12.364
365.82	12.346
366.17	12.369
366.53	12.434
366.88	12.426
367.24	12.529
367.59	12.545
367.95	12.535
368.30	12.522
368.66	12.558
369.01	12.587
369.37	12.545
369.72	12.557
370.08	12.504
370.43	12.501
370.78	12.543
371.14	12.441
371.49	12.481
371.85	12.460
372.20	12.433
372.56	12.433
372.91	12.352
373.26	12.359
373.62	12.300
373.97	12.260
374.33	12.181
374.68	12.101
375.03	12.015
375.39	11.980
375.74	11.913
376.10	11.878
376.45	11.826
376.80	11.882
377.16	11.869
377.51	11.883
377.87	11.949
378.22	11.967
378.57	12.047
378.93	12.236
379.28	12.243
379.63	12.331
379.99	12.375
380.34	12.455
380.70	12.495
381.05	12.503
381.40	12.515
381.76	12.462
382.11	12.390
382.46	12.237
382.82	12.053
383.17	11.973
383.52	11.882
383.88	11.797
384.23	11.735
384.58	11.651
384.94	11.635
385.29	11.655
385.64	11.663
385.99	11.685
386.35	11.718
386.70	11.733
387.05	11.726
387.41	11.688
387.76	11.682
388.11	11.719
388.47	11.697
388.82	11.643
389.17	11.582
389.52	11.511
389.88	11.502
390.23	11.556
390.58	11.584
390.93	11.638
391.29	11.696
391.64	11.747
391.99	11.688
392.34	11.655
392.70	11.637
393.05	11.614
393.40	11.590
393.75	11.581
394.11	11.485
394.46	11.434
394.81	11.321
395.16	11.219
395.52	11.096
395.87	10.963
396.22	10.898
396.57	10.804
396.92	10.653
397.28	10.535
397.63	10.410
397.98	10.286
398.33	10.135
398.68	10.035
399.04	9.943
399.39	9.885
399.74	9.894
400.09	9.829
400.44	9.780
400.80	9.806
401.15	9.826
401.50	9.840
401.85	9.867
402.20	9.885
402.55	9.895
402.90	9.946
403.26	9.957
403.61	9.907
403.96	9.885
404.31	9.858
404.66	9.816
405.01	9.785
405.36	9.716
405.72	9.669
406.07	9.654
406.42	9.624
406.77	9.580
407.12	9.492
407.47	9.440
407.82	9.427
408.17	9.404
408.53	9.385
408.88	9.341
409.23	9.322
409.58	9.277
409.93	9.169
410.28	9.144
410.63	9.099
410.98	9.106
411.33	9.093
411.68	9.079
412.03	9.118
412.38	9.122
412.73	9.168
413.09	9.263
413.44	9.381
413.79	9.530
414.14	9.590
414.49	9.701
414.84	9.791
415.19	9.926
415.54	10.054
415.89	10.146
416.24	10.271
416.59	10.369
416.94	10.425
417.29	10.459
417.64	10.490
417.99	10.544
418.34	10.589
418.69	10.644
419.04	10.661
419.39	10.690
419.74	10.718
420.09	10.714
420.44	10.701
420.79	10.693
421.14	10.700
421.49	10.695
421.84	10.698
422.19	10.648
422.54	10.602
422.89	10.560
423.24	10.476
423.59	10.387
423.94	10.299
424.29	10.231
424.64	10.154
424.99	10.053
425.34	9.974
425.68	9.881
426.03	9.831
426.38	9.773
426.73	9.736
427.08	9.716
427.43	9.722
427.78	9.758
428.13	9.812
428.48	9.864
428.83	9.934
429.18	9.973
429.53	10.021
429.87	10.036
430.22	10.037
430.57	10.034
430.92	10.033
431.27	10.050
431.62	10.042
431.97	9.993
432.32	9.948
432.67	9.888
433.01	9.841
433.36	9.775
433.71	9.731
434.06	9.702
434.41	9.682
434.76	9.679
435.11	9.658
435.45	9.645
435.80	9.688
436.15	9.718
436.50	9.744
436.85	9.777
437.20	9.791
437.54	9.814
437.89	9.822
438.24	9.807
438.59	9.790
438.94	9.765
439.29	9.731
439.63	9.667
439.98	9.633
440.33	9.600
440.68	9.581
441.03	9.594
441.37	9.597
441.72	9.644
442.07	9.709
442.42	9.751
442.76	9.814
443.11	9.876
443.46	9.933
443.81	9.962
444.16	9.983
444.50	9.996
444.85	9.958
445.20	9.919
445.55	9.829
445.89	9.735
446.24	9.629
446.59	9.499
446.94	9.381
447.28	9.244
447.63	9.101
447.98	8.990
448.32	8.877
448.67	8.802
449.02	8.741
449.37	8.695
449.71	8.668
450.06	8.697
450.41	8.706
450.75	8.743
451.10	8.764
451.45	8.776
451.79	8.775
452.14	8.740
452.49	8.730
452.84	8.700
453.18	8.726
453.53	8.751
453.88	8.761
454.22	8.795
454.57	8.839
454.92	8.909
455.26	9.004
455.61	9.090
455.95	9.208
456.30	9.284
456.65	9.350
456.99	9.406
457.34	9.453
457.69	9.475
458.03	9.488
458.38	9.463
458.73	9.395
459.07	9.307
459.42	9.207
459.76	9.096
460.11	8.979
460.46	8.877
460.80	8.740
461.15	8.617
461.49	8.516
461.84	8.422
462.19	8.350
462.53	8.324
462.88	8.320
463.22	8.353
463.57	8.356
463.91	8.401
464.26	8.416
464.61	8.455
464.95	8.452
465.30	8.459
465.64	8.452
465.99	8.425
466.33	8.407
466.68	8.364
467.02	8.316
467.37	8.266
467.71	8.200
468.06	8.186
468.41	8.131
468.75	8.088
469.10	8.032
469.44	7.976
469.79	7.935
470.13	7.882
470.48	7.828
470.82	7.771
471.17	7.759
471.51	7.729
471.86	7.681
472.20	7.620
472.55	7.591
472.89	7.570
473.23	7.568
473.58	7.554
473.92	7.566
474.27	7.594
474.61	7.610
474.96	7.598
475.30	7.603
475.65	7.589
475.99	7.626
476.34	7.650
476.68	7.648
477.02	7.679
477.37	7.708
477.71	7.769
478.06	7.892
478.40	8.131
478.75	8.543
479.09	8.962
479.43	9.401
479.78	9.854
480.12	10.297
480.47	10.705
480.81	11.083
481.15	11.446
481.50	11.802
481.84	12.180
482.19	12.567
482.53	12.834
482.87	12.975
483.22	12.948
483.56	12.769
483.90	12.506
484.25	12.203
484.59	11.877
484.94	11.511
485.28	11.112
485.62	10.700
485.97	10.258
486.31	9.868
486.65	9.608
487.00	9.456
487.34	9.385
487.68	9.345
488.03	9.336
488.37	9.322
488.71	9.336
489.06	9.364
489.40	9.330
489.74	9.272
490.09	9.191
490.43	9.058
490.77	8.905
491.11	8.742
491.46	8.578
491.80	8.423
492.14	8.277
492.49	8.104
492.83	7.927
493.17	7.770
493.51	7.605
493.86	7.467
494.20	7.378
494.54	7.353
494.88	7.379
495.23	7.406
495.57	7.419
495.91	7.417
496.25	7.418
496.60	7.393
496.94	7.368
497.28	7.332
497.62	7.294
497.97	7.233
498.31	7.194
498.65	7.148
498.99	7.115
499.33	7.074
499.68	7.061
500.02	7.037
500.36	7.048
500.70	7.017
501.04	7.020
501.39	7.022
501.73	7.059
502.07	7.045
502.41	7.054
502.75	7.065
503.09	7.082
503.44	7.083
503.78	7.119
504.12	7.140
504.46	7.194
504.80	7.241
505.14	7.284
505.49	7.305
505.83	7.340
506.17	7.361
506.51	7.393
506.85	7.431
507.19	7.464
507.53	7.479
507.87	7.482
508.22	7.465
508.56	7.446
508.90	7.420
509.24	7.416
509.58	7.409
509.92	7.396
510.26	7.369
510.60	7.338
510.94	7.296
511.28	7.277
511.63	7.256
511.97	7.254
512.31	7.253
512.65	7.273
512.99	7.297
513.33	7.370
513.67	7.440
514.01	7.545
514.35	7.646
514.69	7.766
515.03	7.868
515.37	7.956
515.71	8.053
516.05	8.127
516.39	8.184
516.73	8.226
517.07	8.228
517.41	8.212
517.75	8.154
518.09	8.083
518.43	7.995
518.77	7.898
519.11	7.795
519.45	7.677
519.79	7.576
520.13	7.494
520.47	7.442
520.81	7.418
521.15	7.436
521.49	7.491
521.83	7.578
522.17	7.668
522.51	7.778
522.85	7.941
523.19	8.188
523.53	8.494
523.87	8.806
524.21	9.080
524.55	9.306
524.89	9.517
525.23	9.709
525.57	9.888
525.91	10.040
526.25	10.195
526.58	10.329
526.92	10.389
527.26	10.363
527.60	10.238
527.94	10.109
528.28	9.986
528.62	9.864
528.96	9.738
529.30	9.602
529.64	9.464
529.97	9.312
530.31	9.150
530.65	9.000
530.99	8.914
531.33	8.939
531.67	8.951
532.01	8.959
532.35	8.929
532.68	8.864
533.02	8.788
533.36	8.719
533.70	8.627
534.04	8.539
534.38	8.465
534.71	8.363
535.05	8.237
535.39	8.137
535.73	8.071
536.07	8.057
536.41	8.111
536.74	8.204
537.08	8.312
537.42	8.434
537.76	8.573
538.10	8.721
538.43	8.849
538.77	8.976
539.11	9.092
539.45	9.189
539.79	9.252
540.12	9.267
540.46	9.231
540.80	9.160
541.14	9.096
541.47	9.008
541.81	8.902
542.15	8.799
542.49	8.671
542.82	8.530
543.16	8.381
543.50	8.228
543.84	8.102
544.17	8.019
544.51	7.959
544.85	7.889
545.18	7.803
545.52	7.713
545.86	7.617
546.20	7.520
546.53	7.413
546.87	7.285
547.21	7.179
547.54	7.079
547.88	6.979
548.22	6.926
548.55	6.885
548.89	6.852
549.23	6.808
549.56	6.803
549.90	6.802
550.24	6.821
550.57	6.860
550.91	6.876
551.25	6.865
551.58	6.862
551.92	6.814
552.26	6.776
552.59	6.731
552.93	6.691
553.27	6.628
553.60	6.584
553.94	6.539
554.27	6.507
554.61	6.465
554.95	6.438
555.28	6.395
555.62	6.411
555.95	6.409
556.29	6.417
556.63	6.441
556.96	6.455
557.30	6.477
557.63	6.478
557.97	6.458
558.31	6.445
558.64	6.453
558.98	6.473
559.31	6.462
559.65	6.428
559.98	6.424
560.32	6.394
560.65	6.409
560.99	6.429
561.33	6.454
561.66	6.500
562.00	6.562
562.33	6.602
562.67	6.647
563.00	6.678
563.34	6.748
563.67	6.774
564.01	6.829
564.34	6.851
564.68	6.846
565.01	6.838
565.35	6.805
565.68	6.752
566.02	6.705
566.35	6.676
566.69	6.677
567.02	6.647
567.36	6.649
567.69	6.647
568.03	6.645
568.36	6.644
568.69	6.627
569.03	6.604
569.36	6.608
569.70	6.645
570.03	6.631
570.37	6.614
570.70	6.570
571.04	6.537
571.37	6.464
571.70	6.402
572.04	6.325
572.37	6.273
572.71	6.217
573.04	6.131
573.37	6.027
573.71	5.916
574.04	5.758
574.38	5.630
574.71	5.456
575.04	5.296
575.38	5.113
575.71	4.938
576.05	4.748
576.38	4.557
576.71	4.370
577.05	4.169
577.38	3.983
577.71	3.785
578.05	3.591
578.38	3.418
578.71	3.224
579.05	3.051
579.38	2.871
579.71	2.683
580.05	2.540
580.38	2.350
580.71	2.178
581.05	1.999
581.38	1.870
581.71	1.715
582.05	1.565
582.38	1.431
582.71	1.319
583.04	1.262
583.38	1.215
583.71	1.161
584.04	1.171
584.38	1.171
584.71	1.218
585.04	1.254
585.37	1.316
585.71	1.425
586.04	1.535
586.37	1.623
586.70	1.662
587.04	1.725
587.37	1.767
587.70	1.762
588.03	1.703
588.37	1.601
588.70	1.512
589.03	1.428
589.36	1.272
589.69	1.131
590.03	0.965
590.36	0.814
590.69	0.626
591.02	0.450
591.35	0.325
591.69	0.292
592.02	0.306
592.35	0.323
592.68	0.334
593.01	0.373
593.35	0.390
593.68	0.437
594.01	0.467
594.34	0.478
594.67	0.498
595.00	0.479
595.34	0.389
595.67	0.209
596.00	-0.030
596.33	-0.322
596.66	-0.672
596.99	-1.033
597.32	-1.437
597.65	-1.842
597.99	-2.215
598.32	-2.616
598.65	-2.971
598.98	-3.261
599.31	-3.394
599.64	-3.361
599.97	-3.273
600.30	-3.088
600.63	-2.865
600.96	-2.625
601.30	-2.388
601.63	-2.211
601.96	-2.068
602.29	-1.978
602.62	-1.921
602.95	-1.965
603.28	-2.086
603.61	-2.254
603.94	-2.496
604.27	-2.743
604.60	-2.996
604.93	-3.285
605.26	-3.506
605.59	-3.702
605.92	-3.877
606.25	-4.031
606.58	-4.131
606.91	-4.230
607.24	-4.241
607.57	-4.246
607.90	-4.302
608.23	-4.379
608.56	-4.503
608.89	-4.725
609.22	-5.005
609.55	-5.350
609.88	-5.750
610.21	-6.166
610.54	-6.645
610.87	-7.179
611.20	-7.658
611.53	-8.103
611.86	-8.604
612.19	-8.978
612.52	-9.265
612.85	-9.498
613.18	-9.637
613.51	-9.741
613.84	-9.822
614.17	-9.892
614.49	-9.870
614.82	-9.933
615.15	-9.999
615.48	-10.038
615.81	-10.092
616.14	-10.169
616.47	-10.271
616.80	-10.288
617.13	-10.394
617.46	-10.509
617.78	-10.623
618.11	-10.766
618.44	-10.910
618.77	-11.036
619.10	-11.100
619.43	-11.208
619.76	-11.277
620.09	-11.284
620.41	-11.346
620.74	-11.335
621.07	-11.247
621.40	-11.070
621.73	-10.883
622.06	-10.613
622.38	-10.316
622.71	-9.983
623.04	-9.574
623.37	-9.166
623.70	-8.758
624.02	-8.411
624.35	-8.058
624.68	-7.777
625.01	-7.536
625.34	-7.349
625.66	-7.160
625.99	-7.165
626.32	-7.195
626.65	-7.360
626.98	-7.553
627.30	-7.852
627.63	-8.141
627.96	-8.433
628.29	-8.765
628.61	-9.094
628.94	-9.382
629.27	-9.780
629.60	-9.983
629.92	-10.267
630.25	-10.405
630.58	-10.578
630.91	-10.625
631.23	-10.692
631.56	-10.732
631.89	-10.819
632.21	-10.911
632.54	-11.063
632.87	-11.162
633.19	-11.402
633.52	-11.592
633.85	-11.877
634.18	-12.172
634.50	-12.531
634.83	-12.898
635.16	-13.326
635.48	-13.681
635.81	-14.057
636.14	-14.470
636.46	-14.893
636.79	-15.214
637.11	-15.602
637.44	-15.950
637.77	-16.208
638.09	-16.464
638.42	-16.662
638.75	-16.832
639.07	-17.121
639.40	-17.390
639.73	-17.607
640.05	-17.857
640.38	-18.059
640.70	-18.127
641.03	-18.173
641.36	-18.189
641.68	-18.140
642.01	-18.076
642.33	-17.990
642.66	-17.791
642.98	-17.504
643.31	-17.229
643.64	-16.861
643.96	-16.507
644.29	-16.164
644.61	-15.907
644.94	-15.724
645.26	-15.562
645.59	-15.364
645.91	-15.165
646.24	-14.976
646.56	-14.942
646.89	-14.875
647.22	-14.870
647.54	-14.841
647.87	-14.925
648.19	-14.947
648.52	-15.005
648.84	-15.051
649.17	-15.230
649.49	-15.483
649.82	-15.672
650.14	-15.831
650.47	-16.003
650.79	-16.168
651.11	-16.396
651.44	-16.541
651.76	-16.675
652.09	-16.794
652.41	-16.923
652.74	-16.922
653.06	-16.904
653.39	-16.897
653.71	-16.838
654.04	-16.640
654.36	-16.339
654.68	-15.992
655.01	-15.779
655.33	-15.538
655.66	-15.253
655.98	-15.063
656.30	-14.910
656.63	-14.758
656.95	-14.755
657.28	-14.715
657.60	-14.852
657.92	-15.202
658.25	-15.656
658.57	-16.126
658.90	-16.687
659.22	-17.460
659.54	-18.268
659.87	-19.143
660.19	-20.091
660.51	-20.927
660.84	-21.928
661.16	-22.947
661.48	-23.855
661.81	-24.763
662.13	-25.446
662.45	-26.108
662.78	-26.539
663.10	-26.905
663.42	-27.182
663.75	-27.393
664.07	-27.481
664.39	-27.633
664.72	-27.603
665.04	-27.535
665.36	-27.341
665.69	-27.243
666.01	-27.234
666.33	-27.229
666.65	-27.181
666.98	-27.143
667.30	-27.140
667.62	-27.401
667.94	-27.536
668.27	-27.822
668.59	-28.178
668.91	-28.528
669.23	-28.994
669.56	-29.311
669.88	-29.616
670.20	-29.964
670.52	-30.383
670.85	-30.817
671.17	-31.131
671.49	-31.546
671.81	-31.901
672.13	-32.270
672.46	-32.588
672.78	-32.744
673.10	-32.904
673.42	-32.971
673.74	-33.126
674.07	-33.120
674.39	-32.967
674.71	-32.572
675.03	-32.042
675.35	-31.498
675.67	-30.757
676.00	-30.000
676.32	-29.273
676.64	-28.537
676.96	-27.890
677.28	-27.106
677.60	-26.540
677.92	-25.923
678.25	-25.500
678.57	-25.146
678.89	-24.889
679.21	-24.763
679.53	-24.790
679.85	-24.914
680.17	-25.152
680.49	-25.430
680.81	-25.661
681.13	-25.965
681.46	-26.169
681.78	-26.364
682.10	-26.352
682.42	-26.153
682.74	-25.853
683.06	-25.415
683.38	-24.830
683.70	-24.000
684.02	-22.993
684.34	-22.059
684.66	-20.866
684.98	-19.975
685.30	-19.076
685.62	-18.483
685.94	-18.075
686.26	-17.686
686.58	-17.455
686.90	-17.384
687.22	-17.494
687.54	-17.893
687.86	-18.378
688.18	-18.967
688.50	-19.698
688.82	-20.472
689.14	-21.215
689.46	-21.931
689.78	-22.616
690.10	-23.427
690.42	-24.181
690.74	-24.818
691.06	-25.318
691.38	-25.896
691.70	-26.467
692.02	-27.007
692.34	-27.563
692.66	-27.774
692.98	-27.965
693.30	-27.960
693.62	-27.397
693.94	-26.595
694.26	-25.892
694.57	-25.073
694.89	-24.100
695.21	-23.068
695.53	-21.901
695.85	-20.711
696.17	-19.799
696.49	-18.890
696.81	-18.176
697.13	-17.741
697.44	-17.465
697.76	-17.435
698.08	-17.687
698.40	-18.204
698.72	-19.026
699.04	-20.042
699.36	-21.501
699.67	-23.018
699.99	-24.869
700.31	-26.972
700.63	-29.159
700.95	-31.735
701.27	-33.989
701.58	-36.108
701.90	-37.830
702.22	-39.328
702.54	-40.721
702.86	-41.418
703.17	-42.328
703.49	-42.904
703.81	-43.214
704.13	-43.445
704.45	-43.429
704.76	-43.412
705.08	-43.211
705.40	-42.997
705.72	-42.666
706.03	-42.204
706.35	-42.076
706.67	-41.711
706.99	-41.193
707.30	-40.954
707.62	-40.720
707.94	-40.512
708.26	-40.143
708.57	-39.777
708.89	-39.305
709.21	-38.909
709.53	-38.646
709.84	-38.248
710.16	-37.807
710.48	-37.439
710.79	-36.763
711.11	-36.230
711.43	-35.171
711.74	-34.387
712.06	-33.419
712.38	-32.371
712.69	-31.193
713.01	-29.893
713.33	-28.410
713.64	-27.007
713.96	-25.470
714.28	-24.037
714.59	-22.485
714.91	-21.137
715.23	-19.764
715.54	-18.646
715.86	-17.739
716.17	-17.182
716.49	-16.772
716.81	-16.764
717.12	-16.909
717.44	-17.418
717.76	-17.853
718.07	-18.699
718.39	-19.818
718.70	-20.921
719.02	-22.185
719.33	-23.583
719.65	-24.513
719.97	-25.261
720.28	-25.707
720.60	-26.141
720.91	-26.136
721.23	-26.265
721.54	-26.009
721.86	-25.484
722.17	-25.015
722.49	-24.408
722.81	-23.527
723.12	-22.837
723.44	-22.248
723.75	-21.575
724.07	-20.846
724.38	-20.319
724.70	-19.928
725.01	-19.673
725.33	-19.406
725.64	-19.140
725.96	-18.800
726.27	-18.692
726.59	-18.541
726.90	-18.476
727.22	-18.582
727.53	-18.857
727.84	-18.904
728.16	-19.104
728.47	-19.504
728.79	-20.085
729.10	-20.694
729.42	-21.278
729.73	-21.883
730.05	-22.936
730.36	-23.878
730.67	-25.062
730.99	-26.169
731.30	-27.630
731.62	-28.974
731.93	-30.294
732.24	-31.636
732.56	-32.991
732.87	-34.578
733.19	-36.132
733.50	-37.573
733.81	-38.902
734.13	-39.876
734.44	-40.993
734.76	-42.224
735.07	-43.613
735.38	-44.241
735.70	-44.902
736.01	-45.739
736.32	-46.098
736.64	-46.993
736.95	-47.510
737.26	-48.194
737.58	-49.228
737.89	-50.131
738.20	-51.265
738.52	-51.731
738.83	-53.073
739.14	-54.792
739.45	-56.375
739.77	-58.651
740.08	-60.521
740.39	-62.369
740.71	-64.454
741.02	-66.476
741.33	-68.298
741.64	-69.542
741.96	-71.531
742.27	-73.676
742.58	-75.080
742.90	-76.587
743.21	-78.022
743.52	-78.937
743.83	-80.044
744.14	-81.550
744.46	-82.467
744.77	-82.602
745.08	-82.632
745.39	-83.195
745.71	-82.798
746.02	-82.238
746.33	-81.777
746.64	-80.979
746.95	-80.087
747.27	-79.188
747.58	-78.024
747.89	-77.421
748.20	-77.363
748.51	-77.585
748.82	-77.376
749.14	-77.125
749.45	-77.272
749.76	-77.549
750.07	-77.044
750.38	-77.394
750.69	-77.867
751.01	-78.106
751.32	-78.073
751.63	-78.219
751.94	-78.883
752.25	-79.047
752.56	-79.966
752.87	-80.171
753.18	-79.662
753.49	-79.727
753.81	-79.172
754.12	-77.488
754.43	-75.173
754.74	-71.776
755.05	-67.501
755.36	-61.988
755.67	-56.342
755.98	-50.223
756.29	-44.035
756.60	-37.980
756.91	-32.064
757.22	-26.505
757.53	-21.119
757.84	-16.427
758.15	-11.988
758.46	-8.331
758.77	-5.246
759.09	-2.882
759.40	-0.587
759.71	0.776
760.02	1.769
760.33	2.585
760.64	3.164
760.95	3.238
761.26	3.140
761.57	2.649
761.88	2.052
762.18	1.217
762.49	0.318
762.80	-0.964
763.11	-2.305
763.42	-3.975
763.73	-6.015
764.04	-8.490
764.35	-11.288
764.66	-14.607
764.97	-18.580
765.28	-22.785
765.59	-27.644
765.90	-33.090
766.21	-39.033
766.52	-45.548
766.83	-51.841
767.14	-58.216
767.44	-64.740
767.75	-71.033
768.06	-76.418
768.37	-81.277
768.68	-87.065
768.99	-91.485
769.30	-95.826
769.61	-101.652
769.91	-104.573
770.22	-108.113
770.53	-111.228
770.84	-113.256
771.15	-116.466
771.46	-119.923
771.77	-122.466
772.07	-123.957
772.38	-127.558
772.69	-130.816
773.00	-130.569
773.31	-132.200
773.61	-134.649
773.92	-136.941
774.23	-138.811
774.54	-138.817
774.85	-138.902
775.15	-139.614
775.46	-139.020
775.77	-136.874
776.08	-136.445
776.39	-135.873
776.69	-137.104
777.00	-134.604
777.31	-133.606
777.62	-133.420
777.92	-131.805
778.23	-130.909
778.54	-130.322
778.85	-130.979
779.15	-132.117
779.46	-132.008
779.77	-133.725
780.07	-132.690
780.38	-133.848
780.69	-134.450
781.00	-133.847
781.30	-135.784
781.61	-136.276
781.92	-134.698
782.22	-132.437
782.53	-130.108
782.84	-127.616
783.14	-124.032
783.45	-120.021
783.76	-116.281
784.06	-110.704
784.37	-104.560
784.68	-97.279
784.98	-91.857
785.29	-87.164
785.60	-83.283
785.90	-79.196
786.21	-74.392
786.51	-70.505
786.82	-67.492
787.13	-64.574
787.43	-62.894
787.74	-62.118
788.04	-61.525
788.35	-61.298
788.66	-60.861
788.96	-60.735
789.27	-62.326
789.57	-64.868
789.88	-66.930
790.19	-68.605
790.49	-70.036
790.80	-71.421
791.10	-72.592
791.41	-73.335
791.71	-73.383
792.02	-74.148
792.32	-74.379
792.63	-72.416
792.93	-70.176
793.24	-67.519
793.54	-65.783
793.85	-64.243
794.15	-61.871
794.46	-59.797
794.76	-58.381
795.07	-56.658
795.37	-55.412
795.68	-53.956
795.98	-53.062
796.29	-52.909
796.59	-53.153
796.90	-52.821
797.20	-52.492
797.51	-52.765
797.81	-52.943
798.12	-53.579
798.42	-54.268
798.72	-54.572
799.03	-55.741
799.33	-56.766
799.64	-55.968
799.94	-56.182
800.25	-56.923
800.55	-57.556
800.85	-58.094
801.16	-59.578
801.46	-59.952
801.77	-60.259
802.07	-59.967
802.37	-59.780
802.68	-59.133
802.98	-60.101
803.28	-59.658
803.59	-60.341
803.89	-60.728
804.20	-60.628
804.50	-58.899
804.80	-58.528
805.11	-58.297
805.41	-58.488
805.71	-57.738
806.02	-57.695
806.32	-57.913
806.62	-57.447
806.93	-55.470
807.23	-54.066
807.53	-53.403
807.83	-53.977
808.14	-53.364
808.44	-52.153
808.74	-50.625
809.05	-49.660
809.35	-47.464
809.65	-44.479
809.95	-43.078
810.26	-41.586
810.56	-39.361
810.86	-37.254
811.16	-34.379
811.47	-31.993
811.77	-30.915
812.07	-28.948
812.37	-26.656
812.68	-25.152
812.98	-23.168
813.28	-21.555
813.58	-20.400
813.88	-19.279
814.19	-17.739
814.49	-16.598
814.79	-15.333
815.09	-13.878
815.39	-13.025
815.70	-12.347
816.00	-11.776
816.30	-11.095
816.60	-9.813
816.90	-8.265
817.20	-6.945
817.50	-4.781
817.81	-2.046
818.11	0.202
818.41	2.503
818.71	4.128
819.01	5.548
819.31	6.662
819.61	7.456
819.92	8.088
820.22	8.572
820.52	9.041
820.82	9.302
821.12	9.503
821.42	9.641
821.72	9.574
822.02	9.552
822.32	9.315
822.62	9.084
822.92	8.847
823.22	8.536
823.52	8.289
823.83	7.871
824.13	7.609
824.43	7.252
824.73	6.783
825.03	6.397
825.33	5.977
825.63	5.826
825.93	5.721
826.23	5.485
826.53	5.249
826.83	4.777
827.13	4.555
827.43	3.960
827.73	3.248
828.03	2.673
828.33	1.873
828.63	0.962
828.93	0.002
829.23	-1.403
829.53	-2.212
829.83	-2.984
830.13	-3.508
830.42	-3.956
830.72	-4.193
831.02	-3.765
831.32	-3.344
831.62	-2.952
831.92	-2.201
832.22	-1.821
832.52	-1.223
832.82	-1.138
833.12	-1.052
833.42	-1.058
833.72	-1.240
834.01	-1.590
834.31	-2.657
834.61	-3.899
834.91	-4.799
835.21	-6.033
835.51	-7.317
835.81	-9.155
836.11	-11.456
836.40	-14.459
836.70	-16.952
837.00	-19.905
837.30	-22.196
837.60	-23.039
837.90	-23.429
838.19	-24.824
838.49	-26.577
838.79	-28.289
839.09	-28.575
839.39	-28.982
839.68	-28.147
839.98	-29.064
840.28	-29.805
840.58	-31.727
840.88	-34.436
841.17	-37.322
841.47	-40.801
841.77	-43.775
842.07	-47.160
842.36	-53.757
842.66	-59.580
842.96	-70.019
843.26	-83.901
843.55	-93.541
843.85	-101.132
844.15	-105.320
844.45	-115.890
844.74	-118.373
845.04	-133.305
845.34	-137.347
845.63	-142.194
845.93	-154.772
846.23	-158.862
846.53	-145.444
846.82	-147.264
847.12	-146.569
847.42	-155.538
847.71	-151.745
848.01	-165.187
848.31	-153.337
848.60	-159.145
848.90	-157.943
849.19	-152.963
849.49	-149.794
849.79	-146.016
850.08	-142.417
850.38	-149.362
850.68	-146.817
850.97	-146.312
851.27	-142.600
851.56	-143.335
851.86	-145.564
852.16	-145.358
852.45	-145.895
852.75	-145.005
853.04	-152.764
853.34	-155.832
853.64	-153.667
853.93	-154.231
854.23	-154.876
854.52	-151.475
854.82	-145.411
855.11	-141.715
855.41	-143.013
855.70	-140.242
856.00	-137.369
856.30	-144.582
856.59	-145.998
856.89	-139.168
857.18	-132.670
857.48	-133.524
857.77	-128.693
858.07	-130.457
858.36	-125.079
858.66	-133.065
858.95	-122.615
859.25	-119.036
859.54	-104.904
859.84	-105.467
860.13	-112.105
860.42	-118.075
860.72	-115.508
861.01	-119.037
861.31	-120.019
861.60	-117.164
861.90	-104.860
862.19	-107.533
862.49	-103.699
862.78	-106.371
863.07	-105.092
863.37	-96.787
863.66	-96.633
863.96	-89.704
864.25	-86.914
864.54	-84.070
864.84	-82.435
865.13	-83.750
865.43	-81.932
865.72	-88.565
866.01	-93.757
866.31	-56.471
866.60	-104.821
866.89	-56.809
>>>>>End Spectral Data<<<<<
