OOIBase32 Version 2.0.0.6 Data File
++++++++++++++++++++++++++++++++++++
Date: 01-20-2012, 23:20:24
User: Valued Ocean Optics Customer
Spectrometer Serial Number: USB2E2917
Spectrometer Channel: Master
Integration Time (msec): 3
Spectra Averaged: 10
Boxcar Smoothing: 5
Correct for Electrical Dark: Enabled
Time Normalized: Disabled
Dual-beam Reference: Disabled
Reference Channel: Master
Temperature: Not acquired
Spectrometer Type: S2000
ADC Type: USB2000
Number of Pixels in File: 2048
Graph Title: 
>>>>>Begin Spectral Data<<<<<
180.30	0.000
180.67	0.000
181.03	-11.923
181.40	-361.496
181.77	156.397
182.14	-3067.971
182.51	195.622
182.88	-66.945
183.25	-21.166
183.62	970.189
183.99	62.906
184.36	19.942
184.73	-30.261
185.10	-9.240
185.46	234.934
185.83	771.744
186.20	-30.258
186.57	32.392
186.94	-25.079
187.31	22.903
187.68	187.228
188.05	4.047
188.42	-4.189
188.78	-3.502
189.15	-1.986
189.52	9.539
189.89	-1.302
190.26	0.918
190.63	23.662
191.00	32.018
191.37	24.012
191.73	5.219
192.10	18.659
192.47	24.894
192.84	24.154
193.21	28.907
193.58	19.042
193.94	13.899
194.31	28.433
194.68	7.068
195.05	15.289
195.42	25.852
195.79	21.872
196.15	24.810
196.52	33.154
196.89	25.655
197.26	23.682
197.63	31.644
198.00	25.761
198.36	0.205
198.73	232.627
199.10	-2663.117
199.47	414.843
199.84	-46.920
200.20	-60.000
200.57	-176.105
200.94	-869.358
201.31	-375.829
201.68	-152.446
202.04	-29.241
202.41	-36.871
202.78	-43.191
203.15	-27.702
203.51	-35.890
203.88	-67.224
204.25	-72.003
204.62	-56.862
204.98	-37.832
205.35	-37.791
205.72	-31.444
206.09	-7.416
206.46	28.898
206.82	54.054
207.19	33.860
207.56	44.418
207.92	37.615
208.29	34.209
208.66	34.641
209.03	26.000
209.39	32.501
209.76	32.924
210.13	23.933
210.50	24.642
210.86	20.728
211.23	18.450
211.60	20.201
211.96	36.236
212.33	31.284
212.70	28.810
213.07	45.157
213.43	41.057
213.80	32.585
214.17	22.414
214.53	19.747
214.90	22.611
215.27	26.224
215.63	35.759
216.00	29.740
216.37	31.342
216.74	38.341
217.10	33.778
217.47	32.260
217.84	32.494
218.20	31.651
218.57	23.878
218.94	22.158
219.30	29.328
219.67	20.345
220.04	18.400
220.40	22.307
220.77	12.630
221.13	9.245
221.50	9.734
221.87	7.102
222.23	5.176
222.60	8.281
222.97	10.566
223.33	17.992
223.70	18.621
224.07	14.035
224.43	18.039
224.80	17.703
225.16	18.592
225.53	15.179
225.90	13.494
226.26	13.213
226.63	12.798
226.99	11.494
227.36	8.779
227.73	8.344
228.09	9.636
228.46	6.851
228.82	6.301
229.19	6.007
229.56	6.965
229.92	7.738
230.29	7.916
230.65	6.965
231.02	7.346
231.38	6.825
231.75	5.579
232.12	4.022
232.48	4.443
232.85	5.102
233.21	3.934
233.58	4.019
233.94	5.363
234.31	5.005
234.68	4.992
235.04	4.433
235.41	6.170
235.77	6.649
236.14	7.242
236.50	8.023
236.87	7.858
237.23	7.562
237.60	6.599
237.96	4.409
238.33	4.803
238.69	4.306
239.06	4.160
239.42	3.972
239.79	4.106
240.15	3.967
240.52	3.673
240.88	2.900
241.25	3.024
241.61	3.026
241.98	3.269
242.34	3.434
242.71	3.311
243.07	3.226
243.44	3.115
243.80	2.884
244.17	3.107
244.53	3.136
244.90	3.409
245.26	3.636
245.63	3.598
245.99	3.409
246.36	3.236
246.72	3.166
247.09	3.109
247.45	2.897
247.81	3.168
248.18	3.240
248.54	3.105
248.91	3.648
249.27	3.551
249.64	3.337
250.00	3.353
250.36	3.213
250.73	3.759
251.09	3.928
251.46	4.004
251.82	3.315
252.19	2.644
252.55	2.644
252.91	1.640
253.28	0.947
253.64	1.568
254.01	1.803
254.37	2.112
254.73	2.178
255.10	2.301
255.46	2.282
255.83	2.250
256.19	2.634
256.55	2.746
256.92	2.671
257.28	2.937
257.65	3.018
258.01	3.188
258.37	3.009
258.74	2.970
259.10	2.902
259.46	2.953
259.83	3.170
260.19	3.180
260.55	3.226
260.92	3.426
261.28	3.289
261.64	3.142
262.01	2.779
262.37	3.114
262.73	3.158
263.10	3.512
263.46	3.494
263.82	3.568
264.19	3.232
264.55	3.194
264.91	3.441
265.28	3.384
265.64	3.294
266.00	3.598
266.37	3.542
266.73	3.484
267.09	3.090
267.46	3.420
267.82	3.345
268.18	3.482
268.54	3.270
268.91	3.400
269.27	3.657
269.63	3.682
270.00	3.568
270.36	3.564
270.72	3.505
271.08	3.756
271.45	3.416
271.81	3.346
272.17	3.304
272.53	3.646
272.90	3.487
273.26	3.256
273.62	3.040
273.98	3.116
274.35	3.180
274.71	3.336
275.07	2.833
275.43	2.863
275.80	2.953
276.16	2.793
276.52	2.583
276.88	2.311
277.25	2.536
277.61	2.630
277.97	2.548
278.33	2.401
278.69	2.229
279.06	2.376
279.42	2.540
279.78	2.610
280.14	2.832
280.50	2.557
280.87	2.527
281.23	2.444
281.59	2.470
281.95	2.256
282.31	2.069
282.68	2.122
283.04	2.375
283.40	2.469
283.76	2.526
284.12	2.422
284.48	2.723
284.85	2.997
285.21	3.099
285.57	3.015
285.93	3.267
286.29	3.329
286.65	3.273
287.02	3.264
287.38	2.946
287.74	3.018
288.10	3.069
288.46	2.928
288.82	2.804
289.18	2.798
289.54	2.889
289.91	2.803
290.27	2.881
290.63	2.954
290.99	2.957
291.35	3.024
291.71	2.695
292.07	2.768
292.43	2.909
292.79	3.019
293.16	2.842
293.52	2.939
293.88	2.987
294.24	3.095
294.60	3.037
294.96	3.203
295.32	3.404
295.68	3.644
296.04	3.465
296.40	3.268
296.76	2.973
297.12	2.997
297.49	2.930
297.85	2.751
298.21	2.782
298.57	2.745
298.93	2.543
299.29	2.446
299.65	2.323
300.01	2.400
300.37	2.642
300.73	2.864
301.09	3.164
301.45	3.320
301.81	3.510
302.17	3.559
302.53	3.932
302.89	3.947
303.25	3.886
303.61	3.935
303.97	4.138
304.33	4.041
304.69	3.898
305.05	3.539
305.41	3.433
305.77	3.507
306.13	3.289
306.49	3.123
306.85	3.070
307.21	3.179
307.57	3.056
307.93	2.884
308.29	2.922
308.65	3.020
309.01	3.209
309.37	3.299
309.73	3.236
310.09	3.316
310.45	3.176
310.81	3.281
311.17	3.197
311.53	3.213
311.89	3.259
312.25	3.220
312.61	3.154
312.96	3.113
313.32	3.049
313.68	3.186
314.04	3.223
314.40	3.175
314.76	2.921
315.12	2.973
315.48	3.051
315.84	3.024
316.20	2.992
316.56	3.147
316.92	3.243
317.27	3.202
317.63	3.123
317.99	3.173
318.35	3.406
318.71	3.607
319.07	3.809
319.43	3.739
319.79	3.693
320.15	3.693
320.50	3.676
320.86	3.644
321.22	3.762
321.58	3.726
321.94	3.574
322.30	3.564
322.66	3.571
323.01	3.388
323.37	3.355
323.73	3.471
324.09	3.463
324.45	3.564
324.81	3.630
325.17	3.582
325.52	3.725
325.88	3.979
326.24	4.007
326.60	4.120
326.96	4.296
327.31	4.512
327.67	4.572
328.03	4.860
328.39	4.869
328.75	4.847
329.11	5.061
329.46	4.973
329.82	4.724
330.18	4.876
330.54	4.842
330.90	4.769
331.25	4.826
331.61	5.038
331.97	5.073
332.33	5.072
332.68	5.161
333.04	5.117
333.40	5.267
333.76	5.565
334.11	5.566
334.47	5.587
334.83	5.728
335.19	5.684
335.54	5.562
335.90	5.420
336.26	5.510
336.62	5.648
336.97	5.681
337.33	5.717
337.69	5.677
338.05	5.707
338.40	5.778
338.76	5.694
339.12	5.799
339.48	5.794
339.83	5.810
340.19	5.681
340.55	5.618
340.90	5.636
341.26	5.572
341.62	5.648
341.97	5.544
342.33	5.502
342.69	5.498
343.04	5.533
343.40	5.621
343.76	5.725
344.12	5.772
344.47	5.716
344.83	5.644
345.19	5.623
345.54	5.557
345.90	5.613
346.26	5.543
346.61	5.617
346.97	5.492
347.32	5.434
347.68	5.436
348.04	5.497
348.39	5.513
348.75	5.566
349.11	5.613
349.46	5.712
349.82	5.711
350.18	5.805
350.53	5.786
350.89	5.899
351.24	5.895
351.60	5.849
351.96	5.744
352.31	5.727
352.67	5.781
353.02	5.782
353.38	5.702
353.74	5.711
354.09	5.798
354.45	5.906
354.80	5.916
355.16	5.919
355.52	5.943
355.87	6.011
356.23	6.075
356.58	6.051
356.94	6.055
357.29	6.177
357.65	6.260
358.00	6.252
358.36	6.202
358.72	6.271
359.07	6.362
359.43	6.429
359.78	6.446
360.14	6.386
360.49	6.489
360.85	6.520
361.20	6.471
361.56	6.484
361.91	6.454
362.27	6.493
362.62	6.469
362.98	6.466
363.33	6.480
363.69	6.513
364.04	6.621
364.40	6.579
364.75	6.607
365.11	6.623
365.46	6.608
365.82	6.728
366.17	6.801
366.53	6.846
366.88	6.914
367.24	6.878
367.59	6.915
367.95	6.938
368.30	6.962
368.66	6.979
369.01	6.898
369.37	6.936
369.72	6.954
370.08	6.879
370.43	6.853
370.78	6.850
371.14	6.896
371.49	6.905
371.85	6.958
372.20	6.964
372.56	6.922
372.91	6.999
373.26	7.017
373.62	7.014
373.97	7.047
374.33	7.040
374.68	7.016
375.03	7.046
375.39	7.097
375.74	7.083
376.10	7.060
376.45	7.104
376.80	7.154
377.16	7.135
377.51	7.106
377.87	7.125
378.22	7.188
378.57	7.276
378.93	7.297
379.28	7.339
379.63	7.317
379.99	7.376
380.34	7.448
380.70	7.470
381.05	7.499
381.40	7.519
381.76	7.583
382.11	7.612
382.46	7.613
382.82	7.643
383.17	7.661
383.52	7.733
383.88	7.763
384.23	7.755
384.58	7.788
384.94	7.849
385.29	7.910
385.64	7.961
385.99	7.958
386.35	8.000
386.70	8.031
387.05	7.956
387.41	7.950
387.76	7.993
388.11	8.016
388.47	8.017
388.82	8.025
389.17	8.054
389.52	8.053
389.88	8.082
390.23	8.119
390.58	8.119
390.93	8.179
391.29	8.170
391.64	8.110
391.99	8.133
392.34	8.129
392.70	8.126
393.05	8.083
393.40	8.075
393.75	8.094
394.11	8.029
394.46	8.081
394.81	8.116
395.16	8.153
395.52	8.170
395.87	8.142
396.22	8.194
396.57	8.179
396.92	8.182
397.28	8.196
397.63	8.167
397.98	8.110
398.33	8.032
398.68	8.007
399.04	8.036
399.39	8.030
399.74	7.969
400.09	7.980
400.44	8.001
400.80	7.977
401.15	7.978
401.50	8.007
401.85	8.058
402.20	8.107
402.55	8.095
402.90	8.064
403.26	8.121
403.61	8.206
403.96	8.192
404.31	8.167
404.66	8.208
405.01	8.210
405.36	8.181
405.72	8.201
406.07	8.124
406.42	8.162
406.77	8.171
407.12	8.138
407.47	8.110
407.82	8.082
408.17	8.085
408.53	8.088
408.88	8.081
409.23	8.132
409.58	8.121
409.93	8.188
410.28	8.157
410.63	8.176
410.98	8.193
411.33	8.191
411.68	8.191
412.03	8.185
412.38	8.120
412.73	8.064
413.09	7.997
413.44	7.976
413.79	7.914
414.14	7.885
414.49	7.846
414.84	7.831
415.19	7.812
415.54	7.769
415.89	7.748
416.24	7.753
416.59	7.741
416.94	7.715
417.29	7.691
417.64	7.677
417.99	7.671
418.34	7.639
418.69	7.567
419.04	7.548
419.39	7.555
419.74	7.546
420.09	7.497
420.44	7.464
420.79	7.447
421.14	7.417
421.49	7.386
421.84	7.359
422.19	7.326
422.54	7.351
422.89	7.322
423.24	7.283
423.59	7.249
423.94	7.265
424.29	7.279
424.64	7.283
424.99	7.286
425.34	7.297
425.68	7.303
426.03	7.324
426.38	7.308
426.73	7.348
427.08	7.386
427.43	7.399
427.78	7.424
428.13	7.438
428.48	7.449
428.83	7.461
429.18	7.490
429.53	7.501
429.87	7.516
430.22	7.541
430.57	7.537
430.92	7.520
431.27	7.535
431.62	7.531
431.97	7.525
432.32	7.505
432.67	7.493
433.01	7.473
433.36	7.498
433.71	7.504
434.06	7.495
434.41	7.513
434.76	7.511
435.11	7.524
435.45	7.512
435.80	7.534
436.15	7.545
436.50	7.586
436.85	7.606
437.20	7.598
437.54	7.592
437.89	7.605
438.24	7.589
438.59	7.597
438.94	7.582
439.29	7.598
439.63	7.579
439.98	7.561
440.33	7.526
440.68	7.514
441.03	7.493
441.37	7.473
441.72	7.426
442.07	7.415
442.42	7.384
442.76	7.363
443.11	7.325
443.46	7.303
443.81	7.291
444.16	7.278
444.50	7.257
444.85	7.238
445.20	7.210
445.55	7.193
445.89	7.147
446.24	7.135
446.59	7.128
446.94	7.103
447.28	7.083
447.63	7.077
447.98	7.064
448.32	7.034
448.67	7.010
449.02	6.996
449.37	7.024
449.71	7.031
450.06	7.030
450.41	7.030
450.75	7.036
451.10	7.021
451.45	6.997
451.79	6.963
452.14	6.971
452.49	6.972
452.84	6.962
453.18	6.932
453.53	6.943
453.88	6.967
454.22	6.965
454.57	6.970
454.92	6.981
455.26	6.989
455.61	7.059
455.95	7.068
456.30	7.074
456.65	7.113
456.99	7.134
457.34	7.148
457.69	7.147
458.03	7.156
458.38	7.194
458.73	7.208
459.07	7.254
459.42	7.248
459.76	7.263
460.11	7.284
460.46	7.309
460.80	7.341
461.15	7.371
461.49	7.394
461.84	7.429
462.19	7.462
462.53	7.533
462.88	7.577
463.22	7.620
463.57	7.679
463.91	7.735
464.26	7.797
464.61	7.843
464.95	7.879
465.30	7.938
465.64	7.973
465.99	8.015
466.33	8.057
466.68	8.087
467.02	8.143
467.37	8.205
467.71	8.223
468.06	8.225
468.41	8.252
468.75	8.273
469.10	8.313
469.44	8.335
469.79	8.339
470.13	8.337
470.48	8.325
470.82	8.336
471.17	8.323
471.51	8.350
471.86	8.365
472.20	8.355
472.55	8.376
472.89	8.365
473.23	8.368
473.58	8.356
473.92	8.363
474.27	8.356
474.61	8.298
474.96	8.288
475.30	8.278
475.65	8.274
475.99	8.279
476.34	8.264
476.68	8.250
477.02	8.236
477.37	8.233
477.71	8.197
478.06	8.216
478.40	8.231
478.75	8.210
479.09	8.218
479.43	8.225
479.78	8.230
480.12	8.244
480.47	8.256
480.81	8.281
481.15	8.296
481.50	8.314
481.84	8.339
482.19	8.375
482.53	8.407
482.87	8.428
483.22	8.449
483.56	8.469
483.90	8.477
484.25	8.491
484.59	8.506
484.94	8.515
485.28	8.536
485.62	8.530
485.97	8.522
486.31	8.541
486.65	8.560
487.00	8.591
487.34	8.622
487.68	8.668
488.03	8.700
488.37	8.735
488.71	8.794
489.06	8.834
489.40	8.896
489.74	8.950
490.09	8.976
490.43	9.022
490.77	9.071
491.11	9.129
491.46	9.193
491.80	9.268
492.14	9.345
492.49	9.425
492.83	9.526
493.17	9.640
493.51	9.767
493.86	9.934
494.20	10.071
494.54	10.208
494.88	10.325
495.23	10.465
495.57	10.607
495.91	10.757
496.25	10.902
496.60	11.063
496.94	11.216
497.28	11.389
497.62	11.550
497.97	11.754
498.31	11.928
498.65	12.152
498.99	12.360
499.33	12.580
499.68	12.801
500.02	13.030
500.36	13.271
500.70	13.485
501.04	13.722
501.39	13.987
501.73	14.225
502.07	14.504
502.41	14.783
502.75	15.074
503.09	15.353
503.44	15.629
503.78	15.934
504.12	16.225
504.46	16.580
504.80	16.879
505.14	17.186
505.49	17.485
505.83	17.790
506.17	18.075
506.51	18.335
506.85	18.623
507.19	18.931
507.53	19.222
507.87	19.536
508.22	19.806
508.56	20.144
508.90	20.454
509.24	20.771
509.58	21.066
509.92	21.378
510.26	21.732
510.60	22.069
510.94	22.376
511.28	22.687
511.63	22.997
511.97	23.308
512.31	23.604
512.65	23.921
512.99	24.227
513.33	24.559
513.67	24.854
514.01	25.176
514.35	25.491
514.69	25.794
515.03	26.079
515.37	26.342
515.71	26.629
516.05	26.865
516.39	27.084
516.73	27.315
517.07	27.552
517.41	27.779
517.75	27.973
518.09	28.167
518.43	28.396
518.77	28.621
519.11	28.829
519.45	29.017
519.79	29.270
520.13	29.534
520.47	29.794
520.81	29.997
521.15	30.256
521.49	30.492
521.83	30.720
522.17	30.885
522.51	31.074
522.85	31.283
523.19	31.509
523.53	31.705
523.87	31.934
524.21	32.158
524.55	32.382
524.89	32.589
525.23	32.794
525.57	32.977
525.91	33.188
526.25	33.334
526.58	33.475
526.92	33.612
527.26	33.750
527.60	33.852
527.94	33.940
528.28	34.042
528.62	34.111
528.96	34.171
529.30	34.245
529.64	34.267
529.97	34.358
530.31	34.419
530.65	34.466
530.99	34.511
531.33	34.565
531.67	34.640
532.01	34.718
532.35	34.799
532.68	34.856
533.02	34.907
533.36	34.958
533.70	34.994
534.04	35.065
534.38	35.131
534.71	35.175
535.05	35.236
535.39	35.302
535.73	35.329
536.07	35.390
536.41	35.433
536.74	35.526
537.08	35.620
537.42	35.667
537.76	35.733
538.10	35.828
538.43	35.937
538.77	36.011
539.11	36.056
539.45	36.127
539.79	36.173
540.12	36.249
540.46	36.280
540.80	36.340
541.14	36.407
541.47	36.453
541.81	36.478
542.15	36.493
542.49	36.528
542.82	36.601
543.16	36.650
543.50	36.715
543.84	36.762
544.17	36.807
544.51	36.844
544.85	36.904
545.18	36.981
545.52	37.048
545.86	37.111
546.20	37.152
546.53	37.166
546.87	37.256
547.21	37.303
547.54	37.319
547.88	37.339
548.22	37.369
548.55	37.404
548.89	37.409
549.23	37.456
549.56	37.527
549.90	37.593
550.24	37.630
550.57	37.616
550.91	37.601
551.25	37.641
551.58	37.681
551.92	37.698
552.26	37.741
552.59	37.759
552.93	37.735
553.27	37.783
553.60	37.786
553.94	37.842
554.27	37.834
554.61	37.902
554.95	37.939
555.28	37.999
555.62	38.021
555.95	37.997
556.29	38.024
556.63	38.086
556.96	38.022
557.30	38.061
557.63	38.033
557.97	38.070
558.31	38.048
558.64	38.073
558.98	38.078
559.31	38.116
559.65	38.169
559.98	38.144
560.32	38.104
560.65	38.091
560.99	38.066
561.33	38.102
561.66	38.080
562.00	38.124
562.33	38.120
562.67	38.092
563.00	38.057
563.34	38.015
563.67	38.024
564.01	38.033
564.34	38.093
564.68	38.144
565.01	38.080
565.35	38.060
565.68	38.024
566.02	38.008
566.35	37.993
566.69	37.993
567.02	37.970
567.36	37.964
567.69	37.946
568.03	37.903
568.36	37.837
568.69	37.845
569.03	37.835
569.36	37.781
569.70	37.769
570.03	37.793
570.37	37.778
570.70	37.765
571.04	37.732
571.37	37.711
571.70	37.696
572.04	37.682
572.37	37.697
572.71	37.710
573.04	37.734
573.37	37.747
573.71	37.701
574.04	37.724
574.38	37.786
574.71	37.808
575.04	37.863
575.38	37.857
575.71	37.896
576.05	37.901
576.38	37.883
576.71	37.883
577.05	37.885
577.38	37.926
577.71	37.922
578.05	37.866
578.38	37.855
578.71	37.813
579.05	37.751
579.38	37.712
579.71	37.639
580.05	37.633
580.38	37.578
580.71	37.546
581.05	37.500
581.38	37.442
581.71	37.427
582.05	37.402
582.38	37.341
582.71	37.359
583.04	37.301
583.38	37.315
583.71	37.257
584.04	37.248
584.38	37.176
584.71	37.146
585.04	37.090
585.37	36.990
585.71	36.928
586.04	36.898
586.37	36.848
586.70	36.852
587.04	36.808
587.37	36.792
587.70	36.745
588.03	36.722
588.37	36.655
588.70	36.620
589.03	36.593
589.36	36.566
589.69	36.518
590.03	36.466
590.36	36.395
590.69	36.276
591.02	36.183
591.35	36.122
591.69	36.058
592.02	36.026
592.35	35.937
592.68	35.904
593.01	35.795
593.35	35.735
593.68	35.706
594.01	35.639
594.34	35.639
594.67	35.580
595.00	35.509
595.34	35.413
595.67	35.318
596.00	35.330
596.33	35.283
596.66	35.299
596.99	35.281
597.32	35.185
597.65	35.140
597.99	35.062
598.32	35.045
598.65	35.028
598.98	35.041
599.31	35.031
599.64	34.894
599.97	34.781
600.30	34.668
600.63	34.578
600.96	34.549
601.30	34.476
601.63	34.436
601.96	34.380
602.29	34.353
602.62	34.324
602.95	34.293
603.28	34.253
603.61	34.232
603.94	34.239
604.27	34.198
604.60	34.211
604.93	34.190
605.26	34.118
605.59	34.065
605.92	33.967
606.25	33.897
606.58	33.794
606.91	33.763
607.24	33.718
607.57	33.696
607.90	33.699
608.23	33.645
608.56	33.615
608.89	33.630
609.22	33.586
609.55	33.571
609.88	33.580
610.21	33.605
610.54	33.560
610.87	33.503
611.20	33.388
611.53	33.272
611.86	33.209
612.19	33.172
612.52	33.086
612.85	33.074
613.18	33.057
613.51	32.924
613.84	32.815
614.17	32.825
614.49	32.776
614.82	32.781
615.15	32.705
615.48	32.649
615.81	32.514
616.14	32.500
616.47	32.466
616.80	32.366
617.13	32.353
617.46	32.345
617.78	32.283
618.11	32.289
618.44	32.231
618.77	32.264
619.10	32.204
619.43	32.253
619.76	32.146
620.09	32.074
620.41	32.052
620.74	31.936
621.07	31.820
621.40	31.711
621.73	31.642
622.06	31.485
622.38	31.386
622.71	31.285
623.04	31.187
623.37	31.158
623.70	31.071
624.02	31.000
624.35	30.966
624.68	30.978
625.01	30.919
625.34	30.872
625.66	30.873
625.99	30.824
626.32	30.840
626.65	30.802
626.98	30.843
627.30	30.787
627.63	30.734
627.96	30.682
628.29	30.600
628.61	30.598
628.94	30.526
629.27	30.481
629.60	30.515
629.92	30.435
630.25	30.390
630.58	30.271
630.91	30.323
631.23	30.283
631.56	30.292
631.89	30.198
632.21	30.169
632.54	30.086
632.87	29.986
633.19	29.902
633.52	29.831
633.85	29.770
634.18	29.717
634.50	29.648
634.83	29.656
635.16	29.598
635.48	29.641
635.81	29.572
636.14	29.649
636.46	29.651
636.79	29.573
637.11	29.515
637.44	29.472
637.77	29.487
638.09	29.447
638.42	29.377
638.75	29.305
639.07	29.287
639.40	29.267
639.73	29.167
640.05	29.118
640.38	29.129
640.70	29.179
641.03	29.160
641.36	29.035
641.68	28.955
642.01	28.943
642.33	28.906
642.66	28.714
642.98	28.690
643.31	28.652
643.64	28.680
643.96	28.598
644.29	28.526
644.61	28.497
644.94	28.448
645.26	28.378
645.59	28.288
645.91	28.248
646.24	28.302
646.56	28.293
646.89	28.205
647.22	28.123
647.54	28.103
647.87	28.096
648.19	28.050
648.52	28.009
648.84	27.992
649.17	27.965
649.49	27.939
649.82	27.897
650.14	27.760
650.47	27.721
650.79	27.635
651.11	27.600
651.44	27.550
651.76	27.529
652.09	27.497
652.41	27.494
652.74	27.472
653.06	27.431
653.39	27.408
653.71	27.357
654.04	27.418
654.36	27.397
654.68	27.365
655.01	27.214
655.33	27.097
655.66	27.111
655.98	27.010
656.30	26.948
656.63	26.887
656.95	26.857
657.28	26.848
657.60	26.762
657.92	26.748
658.25	26.692
658.57	26.685
658.90	26.745
659.22	26.712
659.54	26.761
659.87	26.826
660.19	26.827
660.51	26.759
660.84	26.761
661.16	26.730
661.48	26.706
661.81	26.628
662.13	26.697
662.45	26.591
662.78	26.547
663.10	26.507
663.42	26.396
663.75	26.335
664.07	26.354
664.39	26.284
664.72	26.295
665.04	26.234
665.36	26.272
665.69	26.154
666.01	26.193
666.33	26.138
666.65	26.062
666.98	25.941
667.30	25.966
667.62	25.881
667.94	25.853
668.27	25.787
668.59	25.751
668.91	25.688
669.23	25.677
669.56	25.656
669.88	25.607
670.20	25.579
670.52	25.609
670.85	25.523
671.17	25.598
671.49	25.566
671.81	25.509
672.13	25.519
672.46	25.487
672.78	25.471
673.10	25.481
673.42	25.460
673.74	25.419
674.07	25.381
674.39	25.291
674.71	25.058
675.03	25.057
675.35	25.021
675.67	25.031
676.00	24.939
676.32	24.914
676.64	24.797
676.96	24.791
677.28	24.698
677.60	24.647
677.92	24.702
678.25	24.800
678.57	24.764
678.89	24.774
679.21	24.729
679.53	24.760
679.85	24.752
680.17	24.724
680.49	24.746
680.81	24.771
681.13	24.905
681.46	24.962
681.78	24.971
682.10	24.952
682.42	24.935
682.74	24.951
683.06	24.958
683.38	24.989
683.70	24.919
684.02	24.804
684.34	24.892
684.66	24.758
684.98	24.729
685.30	24.695
685.62	24.679
685.94	24.616
686.26	24.536
686.58	24.577
686.90	24.602
687.22	24.655
687.54	24.652
687.86	24.536
688.18	24.431
688.50	24.320
688.82	24.219
689.14	24.177
689.46	24.113
689.78	24.086
690.10	23.958
690.42	23.847
690.74	23.842
691.06	23.856
691.38	23.768
691.70	23.813
692.02	23.786
692.34	23.870
692.66	23.787
692.98	23.816
693.30	23.922
693.62	23.772
693.94	23.738
694.26	23.697
694.57	23.636
694.89	23.591
695.21	23.573
695.53	23.478
695.85	23.411
696.17	23.459
696.49	23.446
696.81	23.370
697.13	23.467
697.44	23.443
697.76	23.350
698.08	23.338
698.40	23.423
698.72	23.457
699.04	23.505
699.36	23.473
699.67	23.344
699.99	23.294
700.31	23.200
700.63	23.167
700.95	23.120
701.27	23.182
701.58	23.081
701.90	22.957
702.22	22.816
702.54	22.782
702.86	22.718
703.17	22.835
703.49	22.914
703.81	22.966
704.13	22.839
704.45	22.776
704.76	22.778
705.08	22.873
705.40	22.856
705.72	22.972
706.03	22.941
706.35	22.982
706.67	22.920
706.99	22.871
707.30	22.750
707.62	22.730
707.94	22.670
708.26	22.543
708.57	22.528
708.89	22.576
709.21	22.502
709.53	22.462
709.84	22.468
710.16	22.435
710.48	22.438
710.79	22.449
711.11	22.489
711.43	22.551
711.74	22.510
712.06	22.352
712.38	22.329
712.69	22.142
713.01	22.159
713.33	22.039
713.64	22.003
713.96	21.856
714.28	21.874
714.59	21.856
714.91	21.889
715.23	21.982
715.54	22.023
715.86	21.992
716.17	22.250
716.49	22.363
716.81	22.310
717.12	22.286
717.44	22.350
717.76	22.275
718.07	22.180
718.39	22.016
718.70	21.915
719.02	22.042
719.33	21.956
719.65	21.915
719.97	21.722
720.28	21.862
720.60	22.008
720.91	22.127
721.23	22.127
721.54	22.197
721.86	22.244
722.17	22.211
722.49	22.056
722.81	22.170
723.12	22.125
723.44	22.183
723.75	22.059
724.07	21.995
724.38	22.027
724.70	22.022
725.01	21.887
725.33	21.881
725.64	21.945
725.96	22.020
726.27	21.998
726.59	21.894
726.90	21.816
727.22	21.817
727.53	21.759
727.84	21.623
728.16	21.566
728.47	21.775
728.79	21.840
729.10	21.868
729.42	21.771
729.73	21.603
730.05	21.665
730.36	21.653
730.67	21.585
730.99	21.624
731.30	21.698
731.62	21.777
731.93	21.716
732.24	21.603
732.56	21.461
732.87	21.480
733.19	21.555
733.50	21.378
733.81	21.301
734.13	21.441
734.44	21.287
734.76	21.240
735.07	21.212
735.38	20.955
735.70	20.927
736.01	20.970
736.32	21.129
736.64	21.117
736.95	21.274
737.26	21.431
737.58	21.262
737.89	21.354
738.20	21.092
738.52	20.966
738.83	21.147
739.14	21.020
739.45	21.112
739.77	20.932
740.08	20.783
740.39	20.652
740.71	20.582
741.02	20.703
741.33	20.517
741.64	20.537
741.96	20.481
742.27	20.462
742.58	20.628
742.90	20.376
743.21	20.265
743.52	20.491
743.83	20.480
744.14	20.283
744.46	20.260
744.77	20.541
745.08	20.910
745.39	21.005
745.71	21.008
746.02	20.982
746.33	21.109
746.64	21.146
746.95	20.914
747.27	20.976
747.58	21.152
747.89	21.164
748.20	20.920
748.51	20.716
748.82	20.727
749.14	20.519
749.45	20.432
749.76	20.521
750.07	20.442
750.38	20.467
750.69	20.428
751.01	20.364
751.32	20.305
751.63	20.605
751.94	20.545
752.25	20.477
752.56	20.300
752.87	20.113
753.18	19.916
753.49	20.019
753.81	20.065
754.12	19.894
754.43	19.803
754.74	19.689
755.05	19.433
755.36	19.451
755.67	19.331
755.98	19.715
756.29	19.902
756.60	19.871
756.91	19.729
757.22	19.641
757.53	19.650
757.84	19.604
758.15	19.725
758.46	19.797
758.77	19.795
759.09	19.989
759.40	19.797
759.71	19.900
760.02	19.738
760.33	19.770
760.64	19.812
760.95	20.031
761.26	20.049
761.57	19.927
761.88	19.864
762.18	19.937
762.49	19.965
762.80	20.055
763.11	19.919
763.42	20.167
763.73	20.228
764.04	20.327
764.35	20.192
764.66	20.091
764.97	20.159
765.28	20.231
765.59	20.066
765.90	19.850
766.21	19.778
766.52	19.824
766.83	19.514
767.14	19.495
767.44	19.282
767.75	19.224
768.06	19.196
768.37	19.062
768.68	18.811
768.99	18.739
769.30	18.737
769.61	18.779
769.91	18.730
770.22	18.561
770.53	18.401
770.84	18.552
771.15	18.446
771.46	18.530
771.77	18.732
772.07	18.931
772.38	18.803
772.69	18.952
773.00	18.707
773.31	18.701
773.61	18.840
773.92	18.995
774.23	18.751
774.54	19.345
774.85	19.550
775.15	19.173
775.46	18.999
775.77	19.184
776.08	19.392
776.39	19.834
776.69	19.757
777.00	19.733
777.31	19.572
777.62	19.778
777.92	19.334
778.23	19.431
778.54	19.616
778.85	19.844
779.15	19.906
779.46	19.551
779.77	19.042
780.07	18.948
780.38	19.221
780.69	19.275
781.00	19.240
781.30	19.384
781.61	19.023
781.92	19.088
782.22	19.188
782.53	19.018
782.84	19.053
783.14	18.963
783.45	19.165
783.76	19.123
784.06	19.139
784.37	19.334
784.68	19.198
784.98	19.146
785.29	19.429
785.60	19.400
785.90	19.633
786.21	19.787
786.51	20.090
786.82	20.100
787.13	20.104
787.43	19.819
787.74	19.563
788.04	19.687
788.35	19.683
788.66	19.101
788.96	18.540
789.27	18.326
789.57	18.309
789.88	18.246
790.19	18.205
790.49	18.137
790.80	18.547
791.10	18.293
791.41	18.105
791.71	18.386
792.02	18.720
792.32	19.135
792.63	19.192
792.93	19.258
793.24	19.573
793.54	19.464
793.85	19.363
794.15	19.373
794.46	19.780
794.76	19.907
795.07	19.892
795.37	19.934
795.68	19.716
795.98	19.535
796.29	19.452
796.59	19.158
796.90	19.216
797.20	19.661
797.51	19.186
797.81	18.463
798.12	18.045
798.42	17.964
798.72	17.788
799.03	18.260
799.33	18.666
799.64	18.782
799.94	18.731
800.25	18.730
800.55	18.521
800.85	18.900
801.16	19.282
801.46	19.286
801.77	19.049
802.07	19.058
802.37	18.519
802.68	18.436
802.98	17.994
803.28	17.755
803.59	17.932
803.89	17.970
804.20	18.027
804.50	18.256
804.80	18.189
805.11	18.372
805.41	18.539
805.71	18.629
806.02	18.441
806.32	18.373
806.62	18.838
806.93	18.495
807.23	18.281
807.53	18.125
807.83	18.771
808.14	18.707
808.44	19.078
808.74	18.768
809.05	19.380
809.35	19.091
809.65	19.454
809.95	19.359
810.26	19.088
810.56	19.513
810.86	19.797
811.16	19.433
811.47	19.707
811.77	19.289
812.07	19.373
812.37	18.762
812.68	19.319
812.98	19.250
813.28	19.223
813.58	19.301
813.88	18.565
814.19	18.320
814.49	17.905
814.79	17.707
815.09	18.358
815.39	18.990
815.70	19.061
816.00	18.764
816.30	18.910
816.60	18.602
816.90	18.647
817.20	19.177
817.50	19.309
817.81	19.396
818.11	19.646
818.41	19.554
818.71	19.368
819.01	19.387
819.31	19.421
819.61	19.492
819.92	19.573
820.22	19.706
820.52	19.570
820.82	19.574
821.12	19.539
821.42	19.566
821.72	19.537
822.02	19.496
822.32	19.458
822.62	19.507
822.92	19.503
823.22	19.597
823.52	19.472
823.83	19.454
824.13	19.406
824.43	19.416
824.73	19.348
825.03	19.427
825.33	19.555
825.63	19.697
825.93	19.665
826.23	19.488
826.53	19.335
826.83	19.417
827.13	19.634
827.43	19.564
827.73	19.674
828.03	19.804
828.33	19.743
828.63	19.738
828.93	19.627
829.23	19.493
829.53	19.523
829.83	19.529
830.13	19.930
830.42	19.748
830.72	19.838
831.02	19.953
831.32	19.720
831.62	19.880
831.92	19.700
832.22	20.151
832.52	20.163
832.82	20.254
833.12	19.931
833.42	19.516
833.72	19.633
834.01	19.559
834.31	18.942
834.61	18.620
834.91	18.213
835.21	18.018
835.51	17.734
835.81	17.226
836.11	17.091
836.40	17.201
836.70	17.437
837.00	17.130
837.30	16.970
837.60	17.705
837.90	17.714
838.19	17.781
838.49	17.997
838.79	17.042
839.09	17.987
839.39	18.428
839.68	18.514
839.98	18.245
840.28	18.337
840.58	18.546
840.88	18.125
841.17	19.313
841.47	19.713
841.77	20.404
842.07	21.054
842.36	20.595
842.66	18.804
842.96	19.116
843.26	18.691
843.55	18.701
843.85	18.908
844.15	20.332
844.45	18.982
844.74	16.877
845.04	16.842
845.34	15.607
845.63	16.796
845.93	18.671
846.23	17.862
846.53	18.882
846.82	17.303
847.12	17.244
847.42	15.521
847.71	15.829
848.01	17.446
848.31	17.690
848.60	18.609
848.90	17.086
849.19	15.775
849.49	17.558
849.79	18.510
850.08	20.948
850.38	21.864
850.68	23.098
850.97	24.084
851.27	23.776
851.56	22.853
851.86	23.941
852.16	23.839
852.45	24.247
852.75	25.128
853.04	23.673
853.34	22.394
853.64	19.951
853.93	20.023
854.23	19.292
854.52	19.444
854.82	18.958
855.11	18.271
855.41	16.677
855.70	17.038
856.00	14.881
856.30	15.114
856.59	14.422
856.89	15.122
857.18	13.961
857.48	14.011
857.77	13.971
858.07	15.053
858.36	13.763
858.66	16.422
858.95	17.822
859.25	16.488
859.54	15.772
859.84	15.893
860.13	15.074
860.42	15.087
860.72	16.345
861.01	15.216
861.31	14.384
861.60	15.288
861.90	15.298
862.19	15.123
862.49	16.086
862.78	16.010
863.07	18.142
863.37	19.279
863.66	19.023
863.96	18.173
864.25	18.307
864.54	18.847
864.84	16.664
865.13	15.238
865.43	15.477
865.72	11.650
866.01	21.913
866.31	-7.027
866.60	6.010
866.89	29.748
>>>>>End Spectral Data<<<<<
