OOIBase32 Version 2.0.0.6 Data File
++++++++++++++++++++++++++++++++++++
Date: 01-23-2012, 23:06:18
User: Valued Ocean Optics Customer
Spectrometer Serial Number: USB2E2917
Spectrometer Channel: Master
Integration Time (msec): 5
Spectra Averaged: 10
Boxcar Smoothing: 5
Correct for Electrical Dark: Enabled
Time Normalized: Disabled
Dual-beam Reference: Disabled
Reference Channel: Master
Temperature: Not acquired
Spectrometer Type: S2000
ADC Type: USB2000
Number of Pixels in File: 2048
Graph Title: 
>>>>>Begin Spectral Data<<<<<
180.30	0.000
180.67	0.000
181.03	-10.464
181.40	485.591
181.77	-744.495
182.14	67.149
182.51	-644.990
182.88	259.281
183.25	-39.352
183.62	67.252
183.99	158.015
184.36	118.960
184.73	326.720
185.10	129.712
185.46	407.459
185.83	-93.068
186.20	-695.017
186.57	173.783
186.94	98.781
187.31	56.498
187.68	65.381
188.05	24.621
188.42	10.657
188.78	127.044
189.15	392.819
189.52	-11.854
189.89	25.315
190.26	6.305
190.63	6.336
191.00	22.202
191.37	34.093
191.73	38.764
192.10	36.694
192.47	38.514
192.84	47.723
193.21	52.583
193.58	38.065
193.94	39.377
194.31	41.955
194.68	41.274
195.05	22.879
195.42	10.970
195.79	18.789
196.15	3.407
196.52	-11.595
196.89	-24.711
197.26	-37.999
197.63	-0.746
198.00	-0.910
198.36	20.688
198.73	-14.875
199.10	6.295
199.47	27.733
199.84	18.022
200.20	16.832
200.57	34.043
200.94	36.368
201.31	49.584
201.68	41.189
202.04	24.553
202.41	6.375
202.78	27.339
203.15	21.605
203.51	17.938
203.88	25.177
204.25	29.277
204.62	-3.130
204.98	2.594
205.35	-27.990
205.72	-51.603
206.09	-19.630
206.46	-35.783
206.82	-32.343
207.19	-27.858
207.56	-55.223
207.92	-77.638
208.29	-71.299
208.66	-18.210
209.03	-35.229
209.39	-5.930
209.76	13.788
210.13	-5.136
210.50	-8.766
210.86	3.338
211.23	-4.375
211.60	-7.707
211.96	10.861
212.33	3.389
212.70	-8.970
213.07	-5.930
213.43	-32.812
213.80	-39.420
214.17	-16.566
214.53	-9.583
214.90	-10.145
215.27	-7.214
215.63	-6.772
216.00	-16.618
216.37	-17.161
216.74	-25.166
217.10	-19.076
217.47	-17.270
217.84	-11.340
218.20	-12.436
218.57	-11.097
218.94	-14.976
219.30	-18.089
219.67	-18.884
220.04	-11.822
220.40	-13.333
220.77	-16.305
221.13	-11.578
221.50	-6.845
221.87	-9.971
222.23	-16.442
222.60	-23.400
222.97	-24.515
223.33	-20.231
223.70	-17.642
224.07	-17.713
224.43	-15.289
224.80	-11.488
225.16	-12.517
225.53	-14.025
225.90	-15.731
226.26	-12.598
226.63	-9.001
226.99	-7.422
227.36	-5.592
227.73	-3.321
228.09	-3.697
228.46	-1.410
228.82	0.172
229.19	-0.136
229.56	1.268
229.92	4.012
230.29	4.120
230.65	4.479
231.02	3.807
231.38	2.083
231.75	-0.901
232.12	-1.081
232.48	-5.362
232.85	-6.148
233.21	-5.285
233.58	-6.711
233.94	-6.757
234.31	-6.895
234.68	-6.248
235.04	-6.689
235.41	-3.680
235.77	-0.999
236.14	-0.230
236.50	2.495
236.87	2.156
237.23	2.965
237.60	3.630
237.96	3.437
238.33	3.748
238.69	2.334
239.06	2.730
239.42	1.591
239.79	0.187
240.15	0.011
240.52	-0.222
240.88	0.133
241.25	-0.288
241.61	-0.212
241.98	-0.494
242.34	-0.905
242.71	-0.272
243.07	-0.122
243.44	-0.077
243.80	0.473
244.17	0.742
244.53	0.503
244.90	0.207
245.26	0.171
245.63	0.091
245.99	-0.140
246.36	-0.229
246.72	-0.097
247.09	-0.373
247.45	-0.397
247.81	-0.447
248.18	-0.716
248.54	-0.333
248.91	-0.162
249.27	-0.212
249.64	-0.218
250.00	0.257
250.36	0.272
250.73	-0.383
251.09	-0.270
251.46	-0.304
251.82	-0.383
252.19	-0.295
252.55	-1.342
252.91	-1.266
253.28	-1.225
253.64	-1.365
254.01	-1.306
254.37	-0.683
254.73	-0.038
255.10	0.319
255.46	0.824
255.83	0.967
256.19	0.796
256.55	1.030
256.92	0.953
257.28	1.003
257.65	1.069
258.01	1.190
258.37	1.072
258.74	0.914
259.10	0.661
259.46	0.378
259.83	0.087
260.19	0.122
260.55	0.015
260.92	-0.095
261.28	-0.009
261.64	0.098
262.01	-0.112
262.37	-0.135
262.73	-0.137
263.10	0.228
263.46	0.135
263.82	0.552
264.19	0.403
264.55	0.238
264.91	0.421
265.28	0.048
265.64	-0.350
266.00	-0.332
266.37	-0.251
266.73	-0.152
267.09	-0.133
267.46	-0.106
267.82	-0.439
268.18	-0.274
268.54	0.004
268.91	-0.214
269.27	-0.046
269.63	0.245
270.00	0.207
270.36	0.425
270.72	0.446
271.08	0.255
271.45	0.314
271.81	0.391
272.17	0.223
272.53	0.072
272.90	0.250
273.26	0.383
273.62	0.320
273.98	0.176
274.35	-0.097
274.71	-0.240
275.07	-0.150
275.43	0.080
275.80	0.146
276.16	0.312
276.52	0.389
276.88	0.207
277.25	-0.301
277.61	-0.576
277.97	-0.663
278.33	-0.424
278.69	-0.610
279.06	-0.578
279.42	-0.611
279.78	-0.544
280.14	-0.516
280.50	-0.408
280.87	-0.195
281.23	0.275
281.59	0.445
281.95	0.421
282.31	0.337
282.68	0.426
283.04	0.285
283.40	0.200
283.76	0.265
284.12	0.452
284.48	0.416
284.85	0.290
285.21	0.233
285.57	0.282
285.93	0.374
286.29	0.118
286.65	0.236
287.02	0.613
287.38	0.646
287.74	0.523
288.10	0.402
288.46	0.526
288.82	0.595
289.18	0.520
289.54	0.600
289.91	0.688
290.27	0.947
290.63	1.068
290.99	0.909
291.35	0.997
291.71	1.252
292.07	1.238
292.43	1.156
292.79	1.079
293.16	1.018
293.52	1.030
293.88	1.086
294.24	1.006
294.60	0.914
294.96	0.913
295.32	0.929
295.68	0.898
296.04	0.912
296.40	0.985
296.76	1.096
297.12	1.170
297.49	1.070
297.85	0.955
298.21	0.992
298.57	0.893
298.93	0.914
299.29	0.845
299.65	0.917
300.01	0.872
300.37	0.715
300.73	0.807
301.09	0.798
301.45	1.108
301.81	1.303
302.17	1.418
302.53	1.433
302.89	1.354
303.25	1.369
303.61	1.305
303.97	1.143
304.33	1.237
304.69	1.163
305.05	1.202
305.41	1.084
305.77	1.165
306.13	1.105
306.49	1.197
306.85	1.324
307.21	1.355
307.57	1.329
307.93	1.451
308.29	1.610
308.65	1.631
309.01	1.619
309.37	1.555
309.73	1.427
310.09	1.485
310.45	1.569
310.81	1.537
311.17	1.493
311.53	1.460
311.89	1.503
312.25	1.411
312.61	1.305
312.96	1.351
313.32	1.463
313.68	1.446
314.04	1.280
314.40	1.274
314.76	1.190
315.12	1.258
315.48	1.325
315.84	1.281
316.20	1.382
316.56	1.417
316.92	1.352
317.27	1.271
317.63	1.341
317.99	1.503
318.35	1.394
318.71	1.487
319.07	1.528
319.43	1.521
319.79	1.592
320.15	1.483
320.50	1.506
320.86	1.531
321.22	1.503
321.58	1.521
321.94	1.409
322.30	1.465
322.66	1.407
323.01	1.323
323.37	1.242
323.73	1.162
324.09	1.112
324.45	1.210
324.81	1.165
325.17	1.251
325.52	1.191
325.88	1.297
326.24	1.383
326.60	1.466
326.96	1.504
327.31	1.504
327.67	1.587
328.03	1.704
328.39	1.688
328.75	1.774
329.11	1.773
329.46	1.909
329.82	1.890
330.18	1.880
330.54	1.897
330.90	1.922
331.25	1.945
331.61	2.001
331.97	1.959
332.33	2.065
332.68	2.211
333.04	2.230
333.40	2.093
333.76	2.032
334.11	1.995
334.47	2.020
334.83	2.028
335.19	2.122
335.54	2.153
335.90	2.270
336.26	2.184
336.62	2.034
336.97	1.977
337.33	2.076
337.69	2.147
338.05	2.152
338.40	2.161
338.76	2.223
339.12	2.327
339.48	2.309
339.83	2.322
340.19	2.302
340.55	2.431
340.90	2.505
341.26	2.558
341.62	2.625
341.97	2.682
342.33	2.721
342.69	2.767
343.04	2.749
343.40	2.765
343.76	2.732
344.12	2.884
344.47	2.892
344.83	2.947
345.19	2.969
345.54	2.988
345.90	3.080
346.26	3.176
346.61	3.333
346.97	3.381
347.32	3.445
347.68	3.476
348.04	3.442
348.39	3.347
348.75	3.429
349.11	3.488
349.46	3.515
349.82	3.466
350.18	3.356
350.53	3.287
350.89	3.325
351.24	3.305
351.60	3.390
351.96	3.485
352.31	3.625
352.67	3.620
353.02	3.645
353.38	3.688
353.74	3.715
354.09	3.827
354.45	3.887
354.80	3.889
355.16	3.980
355.52	3.970
355.87	3.926
356.23	3.992
356.58	4.053
356.94	4.028
357.29	4.112
357.65	4.200
358.00	4.244
358.36	4.193
358.72	4.232
359.07	4.267
359.43	4.356
359.78	4.447
360.14	4.449
360.49	4.387
360.85	4.450
361.20	4.430
361.56	4.390
361.91	4.396
362.27	4.415
362.62	4.416
362.98	4.431
363.33	4.417
363.69	4.424
364.04	4.489
364.40	4.576
364.75	4.601
365.11	4.631
365.46	4.690
365.82	4.713
366.17	4.755
366.53	4.822
366.88	4.882
367.24	4.895
367.59	4.917
367.95	4.889
368.30	4.898
368.66	4.929
369.01	4.932
369.37	4.985
369.72	5.080
370.08	5.159
370.43	5.186
370.78	5.189
371.14	5.200
371.49	5.260
371.85	5.288
372.20	5.296
372.56	5.332
372.91	5.396
373.26	5.428
373.62	5.338
373.97	5.394
374.33	5.397
374.68	5.388
375.03	5.470
375.39	5.431
375.74	5.446
376.10	5.472
376.45	5.504
376.80	5.501
377.16	5.500
377.51	5.612
377.87	5.584
378.22	5.580
378.57	5.582
378.93	5.559
379.28	5.598
379.63	5.649
379.99	5.729
380.34	5.723
380.70	5.770
381.05	5.823
381.40	5.777
381.76	5.822
382.11	5.902
382.46	5.992
382.82	6.034
383.17	6.028
383.52	6.034
383.88	6.027
384.23	6.066
384.58	6.062
384.94	6.027
385.29	6.058
385.64	6.053
385.99	6.054
386.35	6.055
386.70	6.077
387.05	6.087
387.41	6.065
387.76	6.065
388.11	6.051
388.47	6.049
388.82	6.080
389.17	6.084
389.52	6.061
389.88	6.053
390.23	6.036
390.58	6.074
390.93	6.110
391.29	6.131
391.64	6.156
391.99	6.211
392.34	6.249
392.70	6.230
393.05	6.190
393.40	6.236
393.75	6.241
394.11	6.255
394.46	6.205
394.81	6.167
395.16	6.154
395.52	6.154
395.87	6.118
396.22	6.113
396.57	6.114
396.92	6.127
397.28	6.094
397.63	6.060
397.98	6.026
398.33	6.029
398.68	6.028
399.04	6.048
399.39	6.001
399.74	5.974
400.09	5.935
400.44	5.944
400.80	5.933
401.15	5.928
401.50	5.922
401.85	5.919
402.20	5.865
402.55	5.886
402.90	5.853
403.26	5.826
403.61	5.778
403.96	5.752
404.31	5.708
404.66	5.710
405.01	5.664
405.36	5.666
405.72	5.636
406.07	5.629
406.42	5.568
406.77	5.520
407.12	5.510
407.47	5.530
407.82	5.514
408.17	5.484
408.53	5.463
408.88	5.427
409.23	5.367
409.58	5.332
409.93	5.324
410.28	5.342
410.63	5.357
410.98	5.329
411.33	5.301
411.68	5.289
412.03	5.325
412.38	5.273
412.73	5.305
413.09	5.337
413.44	5.383
413.79	5.375
414.14	5.372
414.49	5.394
414.84	5.420
415.19	5.421
415.54	5.456
415.89	5.439
416.24	5.501
416.59	5.521
416.94	5.521
417.29	5.520
417.64	5.508
417.99	5.504
418.34	5.496
418.69	5.493
419.04	5.505
419.39	5.503
419.74	5.502
420.09	5.488
420.44	5.470
420.79	5.455
421.14	5.443
421.49	5.467
421.84	5.466
422.19	5.472
422.54	5.464
422.89	5.444
423.24	5.418
423.59	5.408
423.94	5.391
424.29	5.384
424.64	5.383
424.99	5.362
425.34	5.324
425.68	5.301
426.03	5.254
426.38	5.246
426.73	5.240
427.08	5.212
427.43	5.216
427.78	5.207
428.13	5.180
428.48	5.165
428.83	5.155
429.18	5.162
429.53	5.154
429.87	5.150
430.22	5.117
430.57	5.121
430.92	5.127
431.27	5.121
431.62	5.095
431.97	5.118
432.32	5.111
432.67	5.095
433.01	5.072
433.36	5.061
433.71	5.052
434.06	5.041
434.41	5.022
434.76	5.038
435.11	5.019
435.45	5.016
435.80	4.998
436.15	5.000
436.50	5.023
436.85	5.026
437.20	5.029
437.54	5.031
437.89	5.062
438.24	5.064
438.59	5.048
438.94	5.070
439.29	5.061
439.63	5.073
439.98	5.072
440.33	5.072
440.68	5.116
441.03	5.145
441.37	5.173
441.72	5.189
442.07	5.214
442.42	5.239
442.76	5.249
443.11	5.287
443.46	5.316
443.81	5.363
444.16	5.396
444.50	5.395
444.85	5.398
445.20	5.405
445.55	5.405
445.89	5.410
446.24	5.424
446.59	5.428
446.94	5.433
447.28	5.428
447.63	5.417
447.98	5.424
448.32	5.429
448.67	5.441
449.02	5.453
449.37	5.458
449.71	5.483
450.06	5.479
450.41	5.504
450.75	5.537
451.10	5.557
451.45	5.551
451.79	5.550
452.14	5.554
452.49	5.568
452.84	5.580
453.18	5.600
453.53	5.602
453.88	5.626
454.22	5.631
454.57	5.632
454.92	5.644
455.26	5.682
455.61	5.733
455.95	5.780
456.30	5.813
456.65	5.843
456.99	5.858
457.34	5.887
457.69	5.893
458.03	5.892
458.38	5.914
458.73	5.923
459.07	5.925
459.42	5.890
459.76	5.858
460.11	5.828
460.46	5.794
460.80	5.784
461.15	5.748
461.49	5.715
461.84	5.710
462.19	5.669
462.53	5.639
462.88	5.615
463.22	5.608
463.57	5.597
463.91	5.589
464.26	5.616
464.61	5.608
464.95	5.610
465.30	5.620
465.64	5.626
465.99	5.641
466.33	5.652
466.68	5.637
467.02	5.614
467.37	5.614
467.71	5.598
468.06	5.586
468.41	5.551
468.75	5.543
469.10	5.542
469.44	5.516
469.79	5.485
470.13	5.452
470.48	5.464
470.82	5.472
471.17	5.481
471.51	5.491
471.86	5.469
472.20	5.500
472.55	5.502
472.89	5.510
473.23	5.516
473.58	5.538
473.92	5.547
474.27	5.530
474.61	5.501
474.96	5.507
475.30	5.524
475.65	5.523
475.99	5.513
476.34	5.520
476.68	5.526
477.02	5.552
477.37	5.557
477.71	5.598
478.06	5.658
478.40	5.769
478.75	5.829
479.09	5.919
479.43	6.043
479.78	6.181
480.12	6.323
480.47	6.468
480.81	6.601
481.15	6.747
481.50	6.893
481.84	7.056
482.19	7.211
482.53	7.356
482.87	7.442
483.22	7.452
483.56	7.387
483.90	7.276
484.25	7.142
484.59	6.996
484.94	6.850
485.28	6.718
485.62	6.563
485.97	6.399
486.31	6.268
486.65	6.173
487.00	6.145
487.34	6.174
487.68	6.215
488.03	6.279
488.37	6.347
488.71	6.401
489.06	6.433
489.40	6.449
489.74	6.460
490.09	6.457
490.43	6.455
490.77	6.449
491.11	6.434
491.46	6.445
491.80	6.434
492.14	6.423
492.49	6.428
492.83	6.416
493.17	6.407
493.51	6.417
493.86	6.438
494.20	6.481
494.54	6.517
494.88	6.590
495.23	6.649
495.57	6.700
495.91	6.775
496.25	6.843
496.60	6.901
496.94	6.981
497.28	7.040
497.62	7.111
497.97	7.179
498.31	7.250
498.65	7.296
498.99	7.358
499.33	7.466
499.68	7.562
500.02	7.661
500.36	7.748
500.70	7.852
501.04	7.943
501.39	8.028
501.73	8.123
502.07	8.251
502.41	8.378
502.75	8.523
503.09	8.631
503.44	8.734
503.78	8.823
504.12	8.976
504.46	9.096
504.80	9.241
505.14	9.394
505.49	9.521
505.83	9.629
506.17	9.770
506.51	9.904
506.85	10.040
507.19	10.187
507.53	10.334
507.87	10.463
508.22	10.611
508.56	10.745
508.90	10.866
509.24	11.040
509.58	11.183
509.92	11.325
510.26	11.457
510.60	11.610
510.94	11.761
511.28	11.907
511.63	12.058
511.97	12.202
512.31	12.369
512.65	12.533
512.99	12.696
513.33	12.933
513.67	13.152
514.01	13.392
514.35	13.586
514.69	13.793
515.03	14.014
515.37	14.225
515.71	14.443
516.05	14.629
516.39	14.808
516.73	14.968
517.07	15.085
517.41	15.189
517.75	15.295
518.09	15.433
518.43	15.570
518.77	15.681
519.11	15.792
519.45	15.895
519.79	16.044
520.13	16.221
520.47	16.400
520.81	16.581
521.15	16.820
521.49	17.024
521.83	17.225
522.17	17.411
522.51	17.650
522.85	17.888
523.19	18.177
523.53	18.477
523.87	18.766
524.21	19.051
524.55	19.344
524.89	19.595
525.23	19.846
525.57	20.076
525.91	20.312
526.25	20.499
526.58	20.677
526.92	20.789
527.26	20.858
527.60	20.894
527.94	20.942
528.28	20.970
528.62	20.986
528.96	20.993
529.30	20.984
529.64	20.944
529.97	20.922
530.31	20.895
530.65	20.908
530.99	20.956
531.33	21.039
531.67	21.086
532.01	21.124
532.35	21.150
532.68	21.166
533.02	21.187
533.36	21.215
533.70	21.233
534.04	21.248
534.38	21.261
534.71	21.260
535.05	21.249
535.39	21.261
535.73	21.274
536.07	21.322
536.41	21.381
536.74	21.441
537.08	21.503
537.42	21.603
537.76	21.680
538.10	21.771
538.43	21.850
538.77	21.946
539.11	22.018
539.45	22.094
539.79	22.141
540.12	22.168
540.46	22.183
540.80	22.179
541.14	22.138
541.47	22.098
541.81	22.057
542.15	22.031
542.49	21.976
542.82	21.927
543.16	21.854
543.50	21.788
543.84	21.751
544.17	21.721
544.51	21.731
544.85	21.726
545.18	21.736
545.52	21.715
545.86	21.704
546.20	21.703
546.53	21.696
546.87	21.699
547.21	21.709
547.54	21.689
547.88	21.698
548.22	21.665
548.55	21.666
548.89	21.658
549.23	21.679
549.56	21.661
549.90	21.674
550.24	21.673
550.57	21.693
550.91	21.673
551.25	21.686
551.58	21.681
551.92	21.675
552.26	21.652
552.59	21.658
552.93	21.634
553.27	21.616
553.60	21.574
553.94	21.520
554.27	21.468
554.61	21.481
554.95	21.423
555.28	21.383
555.62	21.352
555.95	21.339
556.29	21.309
556.63	21.271
556.96	21.252
557.30	21.207
557.63	21.173
557.97	21.129
558.31	21.051
558.64	21.011
558.98	20.952
559.31	20.919
559.65	20.848
559.98	20.767
560.32	20.708
560.65	20.648
560.99	20.586
561.33	20.534
561.66	20.465
562.00	20.425
562.33	20.350
562.67	20.289
563.00	20.195
563.34	20.154
563.67	20.102
564.01	20.032
564.34	19.930
564.68	19.872
565.01	19.782
565.35	19.713
565.68	19.608
566.02	19.545
566.35	19.473
566.69	19.373
567.02	19.272
567.36	19.155
567.69	19.047
568.03	18.990
568.36	18.875
568.69	18.788
569.03	18.698
569.36	18.615
569.70	18.514
570.03	18.423
570.37	18.329
570.70	18.254
571.04	18.193
571.37	18.123
571.70	18.043
572.04	17.974
572.37	17.903
572.71	17.810
573.04	17.738
573.37	17.688
573.71	17.631
574.04	17.607
574.38	17.524
574.71	17.440
575.04	17.371
575.38	17.289
575.71	17.206
576.05	17.124
576.38	17.074
576.71	16.988
577.05	16.900
577.38	16.782
577.71	16.677
578.05	16.597
578.38	16.535
578.71	16.459
579.05	16.385
579.38	16.311
579.71	16.226
580.05	16.136
580.38	16.079
580.71	16.003
581.05	15.950
581.38	15.881
581.71	15.826
582.05	15.770
582.38	15.697
582.71	15.641
583.04	15.618
583.38	15.576
583.71	15.552
584.04	15.506
584.38	15.485
584.71	15.445
585.04	15.444
585.37	15.413
585.71	15.381
586.04	15.367
586.37	15.357
586.70	15.318
587.04	15.299
587.37	15.264
587.70	15.243
588.03	15.202
588.37	15.201
588.70	15.167
589.03	15.112
589.36	15.081
589.69	15.053
590.03	15.009
590.36	14.993
590.69	14.971
591.02	14.918
591.35	14.884
591.69	14.844
592.02	14.794
592.35	14.736
592.68	14.739
593.01	14.677
593.35	14.630
593.68	14.608
594.01	14.567
594.34	14.513
594.67	14.491
595.00	14.453
595.34	14.416
595.67	14.364
596.00	14.329
596.33	14.252
596.66	14.204
596.99	14.157
597.32	14.082
597.65	14.043
597.99	14.017
598.32	13.956
598.65	13.893
598.98	13.830
599.31	13.791
599.64	13.777
599.97	13.767
600.30	13.767
600.63	13.755
600.96	13.768
601.30	13.762
601.63	13.748
601.96	13.757
602.29	13.739
602.62	13.734
602.95	13.701
603.28	13.663
603.61	13.619
603.94	13.587
604.27	13.570
604.60	13.538
604.93	13.459
605.26	13.418
605.59	13.375
605.92	13.349
606.25	13.313
606.58	13.299
606.91	13.244
607.24	13.229
607.57	13.192
607.90	13.136
608.23	13.070
608.56	13.018
608.89	12.942
609.22	12.879
609.55	12.800
609.88	12.710
610.21	12.610
610.54	12.541
610.87	12.440
611.20	12.348
611.53	12.284
611.86	12.199
612.19	12.160
612.52	12.086
612.85	12.029
613.18	11.988
613.51	11.946
613.84	11.880
614.17	11.837
614.49	11.827
614.82	11.765
615.15	11.702
615.48	11.661
615.81	11.587
616.14	11.544
616.47	11.487
616.80	11.435
617.13	11.405
617.46	11.361
617.78	11.296
618.11	11.233
618.44	11.232
618.77	11.179
619.10	11.137
619.43	11.147
619.76	11.127
620.09	11.119
620.41	11.108
620.74	11.074
621.07	11.106
621.40	11.125
621.73	11.110
622.06	11.089
622.38	11.120
622.71	11.146
623.04	11.136
623.37	11.178
623.70	11.165
624.02	11.171
624.35	11.194
624.68	11.202
625.01	11.227
625.34	11.268
625.66	11.279
625.99	11.261
626.32	11.249
626.65	11.241
626.98	11.188
627.30	11.173
627.63	11.166
627.96	11.093
628.29	11.041
628.61	10.996
628.94	10.914
629.27	10.865
629.60	10.838
629.92	10.820
630.25	10.782
630.58	10.760
630.91	10.725
631.23	10.676
631.56	10.693
631.89	10.674
632.21	10.625
632.54	10.594
632.87	10.559
633.19	10.480
633.52	10.382
633.85	10.293
634.18	10.193
634.50	10.114
634.83	10.022
635.16	9.916
635.48	9.791
635.81	9.652
636.14	9.547
636.46	9.430
636.79	9.339
637.11	9.239
637.44	9.138
637.77	9.053
638.09	8.938
638.42	8.821
638.75	8.729
639.07	8.649
639.40	8.594
639.73	8.440
640.05	8.313
640.38	8.195
640.70	8.067
641.03	7.980
641.36	7.868
641.68	7.771
642.01	7.695
642.33	7.605
642.66	7.513
642.98	7.396
643.31	7.374
643.64	7.315
643.96	7.261
644.29	7.226
644.61	7.173
644.94	7.146
645.26	7.125
645.59	7.110
645.91	7.098
646.24	7.053
646.56	7.024
646.89	7.005
647.22	6.960
647.54	6.967
647.87	6.972
648.19	6.926
648.52	6.864
648.84	6.847
649.17	6.833
649.49	6.783
649.82	6.793
650.14	6.806
650.47	6.795
650.79	6.836
651.11	6.814
651.44	6.803
651.76	6.822
652.09	6.915
652.41	6.932
652.74	6.905
653.06	6.887
653.39	6.915
653.71	6.946
654.04	6.956
654.36	6.936
654.68	6.939
655.01	6.962
655.33	6.983
655.66	6.898
655.98	6.912
656.30	6.866
656.63	6.893
656.95	6.866
657.28	6.848
657.60	6.799
657.92	6.799
658.25	6.771
658.57	6.745
658.90	6.695
659.22	6.707
659.54	6.667
659.87	6.686
660.19	6.634
660.51	6.602
660.84	6.532
661.16	6.484
661.48	6.448
661.81	6.427
662.13	6.343
662.45	6.365
662.78	6.392
663.10	6.394
663.42	6.427
663.75	6.451
664.07	6.456
664.39	6.445
664.72	6.499
665.04	6.527
665.36	6.596
665.69	6.703
666.01	6.799
666.33	6.878
666.65	6.888
666.98	6.977
667.30	7.109
667.62	7.213
667.94	7.376
668.27	7.536
668.59	7.671
668.91	7.817
669.23	7.925
669.56	7.986
669.88	8.097
670.20	8.279
670.52	8.428
670.85	8.497
671.17	8.660
671.49	8.827
671.81	9.008
672.13	9.170
672.46	9.353
672.78	9.566
673.10	9.786
673.42	9.954
673.74	10.144
674.07	10.352
674.39	10.662
674.71	10.848
675.03	11.053
675.35	11.214
675.67	11.459
676.00	11.621
676.32	11.786
676.64	11.939
676.96	12.170
677.28	12.355
677.60	12.497
677.92	12.633
678.25	12.816
678.57	12.971
678.89	13.172
679.21	13.290
679.53	13.497
679.85	13.707
680.17	13.966
680.49	14.153
680.81	14.403
681.13	14.668
681.46	14.932
681.78	15.275
682.10	15.680
682.42	15.990
682.74	16.378
683.06	16.683
683.38	17.023
683.70	17.365
684.02	17.737
684.34	18.080
684.66	18.371
684.98	18.653
685.30	18.919
685.62	19.112
685.94	19.395
686.26	19.636
686.58	19.913
686.90	20.151
687.22	20.363
687.54	20.523
687.86	20.755
688.18	21.063
688.50	21.372
688.82	21.601
689.14	21.860
689.46	22.112
689.78	22.352
690.10	22.604
690.42	22.913
690.74	23.193
691.06	23.481
691.38	23.757
691.70	24.005
692.02	24.256
692.34	24.516
692.66	24.787
692.98	25.009
693.30	25.274
693.62	25.525
693.94	25.635
694.26	25.792
694.57	25.917
694.89	26.035
695.21	26.125
695.53	26.231
695.85	26.298
696.17	26.397
696.49	26.587
696.81	26.702
697.13	26.859
697.44	27.095
697.76	27.321
698.08	27.638
698.40	27.934
698.72	28.287
699.04	28.625
699.36	29.123
699.67	29.533
699.99	29.887
700.31	30.451
700.63	30.955
700.95	31.438
701.27	31.907
701.58	32.340
701.90	32.721
702.22	33.067
702.54	33.414
702.86	33.701
703.17	34.003
703.49	34.313
703.81	34.463
704.13	34.592
704.45	34.849
704.76	35.092
705.08	35.345
705.40	35.597
705.72	35.831
706.03	36.000
706.35	36.147
706.67	36.443
706.99	36.634
707.30	36.856
707.62	37.071
707.94	37.249
708.26	37.489
708.57	37.594
708.89	37.792
709.21	38.018
709.53	38.306
709.84	38.534
710.16	38.699
710.48	38.996
710.79	39.207
711.11	39.498
711.43	39.711
711.74	39.920
712.06	40.248
712.38	40.518
712.69	40.788
713.01	41.030
713.33	41.400
713.64	41.796
713.96	42.062
714.28	42.437
714.59	42.876
714.91	43.266
715.23	43.664
715.54	44.030
715.86	44.374
716.17	44.667
716.49	45.200
716.81	45.600
717.12	45.890
717.44	46.389
717.76	46.841
718.07	47.040
718.39	47.285
718.70	47.570
719.02	47.829
719.33	48.194
719.65	48.539
719.97	48.602
720.28	48.702
720.60	48.968
720.91	49.100
721.23	49.328
721.54	49.556
721.86	49.853
722.17	50.090
722.49	50.363
722.81	50.468
723.12	50.643
723.44	50.953
723.75	51.232
724.07	51.389
724.38	51.438
724.70	51.542
725.01	51.785
725.33	52.001
725.64	52.094
725.96	52.212
726.27	52.271
726.59	52.481
726.90	52.546
727.22	52.488
727.53	52.648
727.84	52.801
728.16	52.848
728.47	52.963
728.79	53.044
729.10	53.160
729.42	53.235
729.73	53.420
730.05	53.611
730.36	53.724
730.67	53.928
730.99	54.093
731.30	54.282
731.62	54.527
731.93	54.639
732.24	54.818
732.56	54.941
732.87	55.171
733.19	55.384
733.50	55.507
733.81	55.603
734.13	55.807
734.44	55.882
734.76	56.059
735.07	56.195
735.38	56.211
735.70	56.318
736.01	56.399
736.32	56.507
736.64	56.616
736.95	56.571
737.26	56.664
737.58	56.799
737.89	56.903
738.20	57.007
738.52	56.987
738.83	57.246
739.14	57.231
739.45	57.501
739.77	57.599
740.08	57.758
740.39	57.908
740.71	58.187
741.02	58.241
741.33	58.116
741.64	58.330
741.96	58.454
742.27	58.282
742.58	58.399
742.90	58.577
743.21	58.512
743.52	58.440
743.83	58.450
744.14	58.384
744.46	58.593
744.77	58.777
745.08	58.564
745.39	58.531
745.71	58.638
746.02	58.562
746.33	58.296
746.64	58.369
746.95	58.304
747.27	58.322
747.58	58.287
747.89	58.117
748.20	57.938
748.51	57.941
748.82	58.045
749.14	58.049
749.45	58.169
749.76	58.258
750.07	58.318
750.38	58.383
750.69	58.214
751.01	58.234
751.32	58.272
751.63	58.430
751.94	58.136
752.25	57.899
752.56	57.711
752.87	57.541
753.18	57.308
753.49	57.232
753.81	57.179
754.12	57.096
754.43	57.015
754.74	56.830
755.05	56.659
755.36	56.920
755.67	57.074
755.98	57.323
756.29	57.402
756.60	57.472
756.91	57.369
757.22	57.487
757.53	57.731
757.84	57.776
758.15	57.916
758.46	58.055
758.77	57.762
759.09	57.481
759.40	57.214
759.71	56.916
760.02	56.664
760.33	56.567
760.64	56.281
760.95	56.090
761.26	55.806
761.57	55.649
761.88	55.548
762.18	55.631
762.49	55.613
762.80	55.722
763.11	55.870
763.42	55.896
763.73	55.863
764.04	55.824
764.35	55.877
764.66	55.901
764.97	55.807
765.28	55.678
765.59	55.614
765.90	55.603
766.21	55.322
766.52	55.133
766.83	55.038
767.14	54.945
767.44	54.928
767.75	54.454
768.06	54.425
768.37	54.134
768.68	53.979
768.99	53.648
769.30	53.542
769.61	53.530
769.91	53.409
770.22	53.408
770.53	53.148
770.84	53.145
771.15	53.281
771.46	52.976
771.77	53.223
772.07	53.305
772.38	53.349
772.69	53.356
773.00	53.357
773.31	53.390
773.61	53.439
773.92	53.498
774.23	53.267
774.54	53.259
774.85	53.609
775.15	53.535
775.46	53.245
775.77	53.334
776.08	53.243
776.39	52.886
776.69	52.749
777.00	52.549
777.31	52.919
777.62	53.008
777.92	52.751
778.23	52.638
778.54	52.448
778.85	52.675
779.15	52.558
779.46	52.259
779.77	52.375
780.07	52.550
780.38	52.381
780.69	51.748
781.00	51.815
781.30	51.791
781.61	51.674
781.92	52.012
782.22	51.806
782.53	51.741
782.84	51.912
783.14	51.981
783.45	51.807
783.76	51.897
784.06	52.249
784.37	51.992
784.68	52.143
784.98	52.056
785.29	51.883
785.60	52.218
785.90	52.508
786.21	52.418
786.51	52.409
786.82	52.397
787.13	52.494
787.43	52.215
787.74	52.661
788.04	52.935
788.35	52.947
788.66	52.965
788.96	52.665
789.27	52.486
789.57	52.470
789.88	52.404
790.19	52.346
790.49	52.199
790.80	52.209
791.10	52.016
791.41	51.620
791.71	51.633
792.02	51.320
792.32	51.480
792.63	51.402
792.93	51.324
793.24	51.365
793.54	51.391
793.85	51.429
794.15	51.486
794.46	51.439
794.76	51.679
795.07	51.992
795.37	52.183
795.68	52.241
795.98	52.549
796.29	53.171
796.59	53.264
796.90	53.479
797.20	53.693
797.51	53.682
797.81	53.293
798.12	53.106
798.42	53.015
798.72	53.196
799.03	53.255
799.33	53.161
799.64	52.853
799.94	52.895
800.25	52.495
800.55	52.520
800.85	53.183
801.16	53.615
801.46	53.503
801.77	53.332
802.07	53.406
802.37	53.456
802.68	53.176
802.98	53.307
803.28	53.026
803.59	53.154
803.89	53.024
804.20	52.800
804.50	52.672
804.80	52.688
805.11	52.679
805.41	52.273
805.71	52.184
806.02	52.175
806.32	51.831
806.62	52.095
806.93	52.065
807.23	52.444
807.53	52.229
807.83	52.300
808.14	52.653
808.44	52.740
808.74	52.864
809.05	52.643
809.35	52.535
809.65	53.072
809.95	53.163
810.26	53.245
810.56	52.637
810.86	53.073
811.16	53.519
811.47	54.048
811.77	54.260
812.07	54.405
812.37	54.670
812.68	55.344
812.98	55.189
813.28	55.239
813.58	55.945
813.88	56.011
814.19	56.123
814.49	56.121
814.79	55.940
815.09	56.021
815.39	56.154
815.70	56.160
816.00	55.808
816.30	55.823
816.60	55.751
816.90	55.064
817.20	55.421
817.50	55.023
817.81	54.622
818.11	54.337
818.41	54.305
818.71	54.281
819.01	54.482
819.31	54.840
819.61	55.049
819.92	55.168
820.22	55.390
820.52	55.519
820.82	55.766
821.12	56.128
821.42	56.383
821.72	56.673
822.02	57.064
822.32	57.381
822.62	57.603
822.92	57.783
823.22	58.049
823.52	58.318
823.83	58.500
824.13	58.483
824.43	58.294
824.73	58.473
825.03	58.345
825.33	58.157
825.63	57.878
825.93	57.686
826.23	57.666
826.53	57.644
826.83	57.493
827.13	57.698
827.43	57.987
827.73	58.397
828.03	58.452
828.33	58.805
828.63	58.853
828.93	58.928
829.23	58.744
829.53	58.368
829.83	58.187
830.13	57.665
830.42	56.803
830.72	56.476
831.02	56.225
831.32	55.768
831.62	55.668
831.92	55.580
832.22	55.543
832.52	55.623
832.82	55.909
833.12	55.782
833.42	56.367
833.72	56.651
834.01	56.871
834.31	57.022
834.61	57.526
834.91	57.824
835.21	57.979
835.51	58.182
835.81	58.058
836.11	57.902
836.40	57.752
836.70	57.465
837.00	57.524
837.30	56.817
837.60	56.732
837.90	55.934
838.19	55.306
838.49	55.384
838.79	56.074
839.09	56.159
839.39	56.586
839.68	56.868
839.98	56.426
840.28	56.328
840.58	56.818
840.88	56.709
841.17	56.819
841.47	57.210
841.77	57.470
842.07	56.421
842.36	57.351
842.66	56.551
842.96	56.608
843.26	55.817
843.55	55.622
843.85	55.099
844.15	55.136
844.45	53.566
844.74	52.475
845.04	51.192
845.34	51.486
845.63	50.597
845.93	51.269
846.23	51.217
846.53	52.318
846.82	51.931
847.12	53.440
847.42	52.807
847.71	54.234
848.01	54.661
848.31	56.914
848.60	56.572
848.90	55.607
849.19	54.096
849.49	54.547
849.79	54.632
850.08	54.875
850.38	53.965
850.68	54.398
850.97	54.880
851.27	54.397
851.56	52.429
851.86	52.776
852.16	54.532
852.45	54.724
852.75	54.981
853.04	55.782
853.34	54.862
853.64	53.745
853.93	52.093
854.23	51.373
854.52	52.308
854.82	53.512
855.11	52.691
855.41	52.962
855.70	53.927
856.00	52.393
856.30	51.332
856.59	53.366
856.89	55.921
857.18	58.103
857.48	57.284
857.77	55.716
858.07	56.055
858.36	55.741
858.66	55.390
858.95	55.787
859.25	56.240
859.54	55.738
859.84	53.983
860.13	51.535
860.42	50.344
860.72	51.342
861.01	51.508
861.31	50.207
861.60	52.223
861.90	51.204
862.19	51.488
862.49	51.693
862.78	54.158
863.07	54.945
863.37	55.687
863.66	56.022
863.96	56.576
864.25	57.615
864.54	57.594
864.84	56.310
865.13	56.731
865.43	55.399
865.72	60.558
866.01	50.661
866.31	56.036
866.60	53.217
866.89	46.785
>>>>>End Spectral Data<<<<<
