OOIBase32 Version 2.0.0.6 Data File
++++++++++++++++++++++++++++++++++++
Date: 01-23-2012, 23:06:31
User: Valued Ocean Optics Customer
Spectrometer Serial Number: USB2E2917
Spectrometer Channel: Master
Integration Time (msec): 5
Spectra Averaged: 10
Boxcar Smoothing: 5
Correct for Electrical Dark: Enabled
Time Normalized: Disabled
Dual-beam Reference: Disabled
Reference Channel: Master
Temperature: Not acquired
Spectrometer Type: S2000
ADC Type: USB2000
Number of Pixels in File: 2048
Graph Title: 
>>>>>Begin Spectral Data<<<<<
180.30	0.000
180.67	0.000
181.03	207.370
181.40	672.383
181.77	-6290.367
182.14	25.577
182.51	-459.009
182.88	7.803
183.25	-4.546
183.62	9.894
183.99	291.359
184.36	29.569
184.73	263.499
185.10	21.436
185.46	-301.140
185.83	-87.108
186.20	-746.746
186.57	185.327
186.94	-13.354
187.31	6.697
187.68	96.604
188.05	74.424
188.42	58.643
188.78	119.931
189.15	242.123
189.52	-10.164
189.89	14.016
190.26	30.193
190.63	28.196
191.00	34.258
191.37	36.454
191.73	39.504
192.10	45.297
192.47	40.243
192.84	31.674
193.21	44.257
193.58	22.203
193.94	25.901
194.31	19.512
194.68	25.378
195.05	7.478
195.42	5.901
195.79	-16.252
196.15	-16.699
196.52	-14.325
196.89	-1.713
197.26	-42.370
197.63	-2.533
198.00	11.663
198.36	-0.333
198.73	-33.141
199.10	-22.813
199.47	-17.530
199.84	9.611
200.20	-4.086
200.57	-7.368
200.94	-10.494
201.31	8.698
201.68	3.281
202.04	2.121
202.41	15.508
202.78	7.598
203.15	24.345
203.51	27.652
203.88	20.855
204.25	19.991
204.62	16.320
204.98	17.533
205.35	0.872
205.72	12.365
206.09	-10.080
206.46	-54.963
206.82	-31.489
207.19	-40.975
207.56	-91.145
207.92	-86.396
208.29	-96.070
208.66	-48.369
209.03	-45.661
209.39	-10.921
209.76	-16.526
210.13	-40.928
210.50	-21.963
210.86	-7.326
211.23	3.226
211.60	16.616
211.96	16.832
212.33	17.014
212.70	0.692
213.07	-2.038
213.43	-43.412
213.80	-43.206
214.17	0.606
214.53	8.379
214.90	11.845
215.27	15.142
215.63	10.197
216.00	8.235
216.37	17.156
216.74	15.748
217.10	20.668
217.47	23.093
217.84	26.254
218.20	13.317
218.57	16.054
218.94	14.193
219.30	8.001
219.67	5.793
220.04	6.836
220.40	-2.726
220.77	-6.011
221.13	-3.032
221.50	-0.401
221.87	-1.907
222.23	0.294
222.60	-9.597
222.97	-10.938
223.33	-8.282
223.70	-4.335
224.07	-3.865
224.43	-0.035
224.80	3.612
225.16	0.617
225.53	-1.605
225.90	-5.015
226.26	-2.905
226.63	-0.529
226.99	1.405
227.36	2.299
227.73	3.156
228.09	3.779
228.46	5.002
228.82	5.255
229.19	5.493
229.56	5.259
229.92	8.368
230.29	8.883
230.65	8.696
231.02	5.351
231.38	1.144
231.75	-0.526
232.12	-2.764
232.48	-6.532
232.85	-8.273
233.21	-7.561
233.58	-7.981
233.94	-7.279
234.31	-8.935
234.68	-8.013
235.04	-6.653
235.41	-3.438
235.77	-2.250
236.14	-0.740
236.50	1.550
236.87	1.096
237.23	0.685
237.60	0.346
237.96	-0.667
238.33	-0.943
238.69	-1.833
239.06	-1.493
239.42	-1.359
239.79	-1.602
240.15	-1.449
240.52	-1.269
240.88	0.330
241.25	0.638
241.61	1.480
241.98	1.096
242.34	1.350
242.71	1.927
243.07	2.233
243.44	2.110
243.80	1.919
244.17	1.686
244.53	1.107
244.90	0.627
245.26	0.661
245.63	0.527
245.99	0.619
246.36	0.272
246.72	0.419
247.09	-0.032
247.45	0.088
247.81	0.415
248.18	0.549
248.54	0.845
248.91	0.740
249.27	0.642
249.64	1.117
250.00	1.457
250.36	2.022
250.73	1.657
251.09	2.213
251.46	2.199
251.82	2.191
252.19	2.013
252.55	2.259
252.91	2.458
253.28	2.012
253.64	0.970
254.01	0.585
254.37	0.634
254.73	1.119
255.10	1.112
255.46	1.250
255.83	1.237
256.19	1.469
256.55	1.363
256.92	1.407
257.28	1.377
257.65	1.611
258.01	1.729
258.37	1.722
258.74	1.595
259.10	1.492
259.46	1.371
259.83	1.427
260.19	1.502
260.55	1.424
260.92	1.342
261.28	1.742
261.64	1.815
262.01	1.979
262.37	2.046
262.73	1.845
263.10	1.965
263.46	2.032
263.82	1.758
264.19	1.412
264.55	1.113
264.91	1.104
265.28	0.751
265.64	0.424
266.00	0.346
266.37	0.152
266.73	0.236
267.09	0.244
267.46	0.161
267.82	0.130
268.18	0.274
268.54	0.707
268.91	0.860
269.27	0.928
269.63	1.187
270.00	1.201
270.36	1.456
270.72	1.671
271.08	1.563
271.45	1.467
271.81	1.577
272.17	1.508
272.53	1.395
272.90	1.276
273.26	1.414
273.62	1.514
273.98	1.040
274.35	0.803
274.71	0.545
275.07	0.664
275.43	0.915
275.80	1.044
276.16	1.096
276.52	1.010
276.88	0.855
277.25	0.517
277.61	0.199
277.97	0.552
278.33	0.740
278.69	0.598
279.06	0.637
279.42	0.751
279.78	0.725
280.14	0.727
280.50	0.989
280.87	1.145
281.23	1.243
281.59	1.469
281.95	1.523
282.31	1.584
282.68	1.643
283.04	1.489
283.40	1.516
283.76	1.528
284.12	1.666
284.48	1.702
284.85	1.779
285.21	1.932
285.57	1.993
285.93	2.013
286.29	1.768
286.65	1.774
287.02	2.111
287.38	1.928
287.74	1.847
288.10	1.697
288.46	1.529
288.82	1.413
289.18	1.465
289.54	1.336
289.91	1.381
290.27	1.570
290.63	1.841
290.99	1.809
291.35	2.047
291.71	2.286
292.07	2.321
292.43	2.415
292.79	2.452
293.16	2.319
293.52	2.518
293.88	2.565
294.24	2.648
294.60	2.537
294.96	2.460
295.32	2.411
295.68	2.255
296.04	2.275
296.40	2.284
296.76	2.315
297.12	2.314
297.49	2.118
297.85	2.012
298.21	1.978
298.57	1.814
298.93	1.820
299.29	1.814
299.65	1.850
300.01	1.910
300.37	1.924
300.73	2.014
301.09	2.102
301.45	2.213
301.81	2.339
302.17	2.276
302.53	2.291
302.89	2.109
303.25	2.113
303.61	2.090
303.97	1.948
304.33	1.963
304.69	2.013
305.05	2.000
305.41	1.944
305.77	1.950
306.13	1.879
306.49	1.926
306.85	2.005
307.21	1.931
307.57	2.034
307.93	2.137
308.29	2.295
308.65	2.253
309.01	2.234
309.37	2.272
309.73	2.272
310.09	2.441
310.45	2.553
310.81	2.606
311.17	2.598
311.53	2.500
311.89	2.545
312.25	2.376
312.61	2.375
312.96	2.387
313.32	2.440
313.68	2.346
314.04	2.174
314.40	2.109
314.76	2.010
315.12	1.969
315.48	2.067
315.84	1.958
316.20	1.933
316.56	1.878
316.92	1.811
317.27	1.602
317.63	1.630
317.99	1.710
318.35	1.693
318.71	1.900
319.07	1.975
319.43	1.996
319.79	2.079
320.15	2.058
320.50	2.110
320.86	2.166
321.22	2.276
321.58	2.288
321.94	2.244
322.30	2.190
322.66	2.086
323.01	2.073
323.37	1.981
323.73	1.946
324.09	1.911
324.45	1.861
324.81	1.751
325.17	1.795
325.52	1.748
325.88	1.718
326.24	1.723
326.60	1.788
326.96	1.825
327.31	1.775
327.67	1.675
328.03	1.676
328.39	1.615
328.75	1.644
329.11	1.625
329.46	1.711
329.82	1.807
330.18	1.789
330.54	1.685
330.90	1.562
331.25	1.622
331.61	1.872
331.97	1.971
332.33	2.019
332.68	2.163
333.04	2.155
333.40	2.051
333.76	2.011
334.11	2.026
334.47	2.014
334.83	2.087
335.19	2.027
335.54	1.907
335.90	1.844
336.26	1.865
336.62	1.686
336.97	1.573
337.33	1.606
337.69	1.588
338.05	1.623
338.40	1.588
338.76	1.615
339.12	1.754
339.48	1.782
339.83	1.826
340.19	1.859
340.55	2.034
340.90	2.113
341.26	2.084
341.62	2.061
341.97	2.015
342.33	2.095
342.69	2.090
343.04	2.080
343.40	2.045
343.76	1.945
344.12	1.980
344.47	2.028
344.83	2.080
345.19	2.229
345.54	2.260
345.90	2.356
346.26	2.376
346.61	2.394
346.97	2.348
347.32	2.419
347.68	2.507
348.04	2.433
348.39	2.261
348.75	2.268
349.11	2.249
349.46	2.253
349.82	2.220
350.18	2.183
350.53	2.208
350.89	2.152
351.24	2.087
351.60	2.079
351.96	2.135
352.31	2.205
352.67	2.229
353.02	2.115
353.38	2.160
353.74	2.169
354.09	2.157
354.45	2.109
354.80	2.175
355.16	2.276
355.52	2.270
355.87	2.227
356.23	2.297
356.58	2.289
356.94	2.394
357.29	2.370
357.65	2.384
358.00	2.437
358.36	2.444
358.72	2.428
359.07	2.405
359.43	2.461
359.78	2.499
360.14	2.483
360.49	2.434
360.85	2.385
361.20	2.358
361.56	2.376
361.91	2.351
362.27	2.350
362.62	2.376
362.98	2.338
363.33	2.275
363.69	2.259
364.04	2.259
364.40	2.266
364.75	2.271
365.11	2.261
365.46	2.237
365.82	2.265
366.17	2.270
366.53	2.270
366.88	2.277
367.24	2.331
367.59	2.314
367.95	2.327
368.30	2.323
368.66	2.336
369.01	2.350
369.37	2.371
369.72	2.400
370.08	2.455
370.43	2.485
370.78	2.482
371.14	2.408
371.49	2.420
371.85	2.423
372.20	2.455
372.56	2.459
372.91	2.473
373.26	2.440
373.62	2.377
373.97	2.384
374.33	2.327
374.68	2.355
375.03	2.401
375.39	2.391
375.74	2.314
376.10	2.328
376.45	2.345
376.80	2.373
377.16	2.353
377.51	2.372
377.87	2.409
378.22	2.406
378.57	2.364
378.93	2.365
379.28	2.400
379.63	2.468
379.99	2.461
380.34	2.448
380.70	2.423
381.05	2.458
381.40	2.487
381.76	2.458
382.11	2.528
382.46	2.621
382.82	2.664
383.17	2.658
383.52	2.668
383.88	2.669
384.23	2.667
384.58	2.702
384.94	2.715
385.29	2.698
385.64	2.685
385.99	2.664
386.35	2.644
386.70	2.627
387.05	2.616
387.41	2.591
387.76	2.574
388.11	2.591
388.47	2.544
388.82	2.537
389.17	2.553
389.52	2.576
389.88	2.606
390.23	2.612
390.58	2.663
390.93	2.691
391.29	2.677
391.64	2.694
391.99	2.718
392.34	2.786
392.70	2.788
393.05	2.780
393.40	2.780
393.75	2.740
394.11	2.699
394.46	2.652
394.81	2.657
395.16	2.660
395.52	2.673
395.87	2.628
396.22	2.624
396.57	2.601
396.92	2.584
397.28	2.523
397.63	2.525
397.98	2.543
398.33	2.526
398.68	2.507
399.04	2.507
399.39	2.472
399.74	2.464
400.09	2.428
400.44	2.448
400.80	2.456
401.15	2.475
401.50	2.465
401.85	2.463
402.20	2.453
402.55	2.443
402.90	2.421
403.26	2.432
403.61	2.443
403.96	2.431
404.31	2.434
404.66	2.440
405.01	2.422
405.36	2.432
405.72	2.413
406.07	2.433
406.42	2.407
406.77	2.403
407.12	2.403
407.47	2.425
407.82	2.421
408.17	2.406
408.53	2.389
408.88	2.384
409.23	2.343
409.58	2.324
409.93	2.338
410.28	2.367
410.63	2.387
410.98	2.381
411.33	2.341
411.68	2.358
412.03	2.364
412.38	2.383
412.73	2.410
413.09	2.446
413.44	2.484
413.79	2.478
414.14	2.482
414.49	2.512
414.84	2.541
415.19	2.558
415.54	2.577
415.89	2.585
416.24	2.600
416.59	2.612
416.94	2.633
417.29	2.655
417.64	2.649
417.99	2.675
418.34	2.678
418.69	2.674
419.04	2.686
419.39	2.695
419.74	2.704
420.09	2.704
420.44	2.714
420.79	2.708
421.14	2.700
421.49	2.732
421.84	2.722
422.19	2.737
422.54	2.740
422.89	2.732
423.24	2.728
423.59	2.723
423.94	2.720
424.29	2.716
424.64	2.727
424.99	2.715
425.34	2.685
425.68	2.677
426.03	2.651
426.38	2.638
426.73	2.642
427.08	2.629
427.43	2.632
427.78	2.644
428.13	2.617
428.48	2.598
428.83	2.604
429.18	2.599
429.53	2.609
429.87	2.597
430.22	2.594
430.57	2.606
430.92	2.609
431.27	2.601
431.62	2.577
431.97	2.599
432.32	2.615
432.67	2.595
433.01	2.594
433.36	2.577
433.71	2.581
434.06	2.564
434.41	2.552
434.76	2.556
435.11	2.563
435.45	2.573
435.80	2.551
436.15	2.537
436.50	2.551
436.85	2.561
437.20	2.566
437.54	2.559
437.89	2.570
438.24	2.577
438.59	2.567
438.94	2.571
439.29	2.547
439.63	2.571
439.98	2.567
440.33	2.567
440.68	2.579
441.03	2.599
441.37	2.622
441.72	2.648
442.07	2.652
442.42	2.679
442.76	2.694
443.11	2.715
443.46	2.724
443.81	2.750
444.16	2.772
444.50	2.756
444.85	2.745
445.20	2.738
445.55	2.736
445.89	2.748
446.24	2.747
446.59	2.732
446.94	2.736
447.28	2.726
447.63	2.710
447.98	2.685
448.32	2.704
448.67	2.699
449.02	2.702
449.37	2.695
449.71	2.683
450.06	2.666
450.41	2.665
450.75	2.682
451.10	2.699
451.45	2.691
451.79	2.686
452.14	2.670
452.49	2.690
452.84	2.686
453.18	2.684
453.53	2.656
453.88	2.663
454.22	2.679
454.57	2.693
454.92	2.700
455.26	2.711
455.61	2.755
455.95	2.784
456.30	2.794
456.65	2.820
456.99	2.843
457.34	2.889
457.69	2.907
458.03	2.910
458.38	2.904
458.73	2.904
459.07	2.903
459.42	2.876
459.76	2.847
460.11	2.828
460.46	2.788
460.80	2.751
461.15	2.713
461.49	2.668
461.84	2.649
462.19	2.638
462.53	2.613
462.88	2.624
463.22	2.607
463.57	2.628
463.91	2.627
464.26	2.658
464.61	2.669
464.95	2.662
465.30	2.654
465.64	2.664
465.99	2.666
466.33	2.672
466.68	2.659
467.02	2.676
467.37	2.653
467.71	2.637
468.06	2.633
468.41	2.628
468.75	2.642
469.10	2.673
469.44	2.651
469.79	2.639
470.13	2.610
470.48	2.599
470.82	2.581
471.17	2.588
471.51	2.577
471.86	2.561
472.20	2.551
472.55	2.520
472.89	2.509
473.23	2.502
473.58	2.497
473.92	2.497
474.27	2.500
474.61	2.498
474.96	2.497
475.30	2.510
475.65	2.500
475.99	2.500
476.34	2.518
476.68	2.510
477.02	2.524
477.37	2.525
477.71	2.572
478.06	2.606
478.40	2.680
478.75	2.750
479.09	2.844
479.43	2.940
479.78	3.039
480.12	3.134
480.47	3.237
480.81	3.329
481.15	3.423
481.50	3.507
481.84	3.600
482.19	3.683
482.53	3.758
482.87	3.805
483.22	3.806
483.56	3.777
483.90	3.716
484.25	3.632
484.59	3.548
484.94	3.467
485.28	3.394
485.62	3.308
485.97	3.219
486.31	3.143
486.65	3.081
487.00	3.057
487.34	3.054
487.68	3.066
488.03	3.092
488.37	3.117
488.71	3.134
489.06	3.129
489.40	3.134
489.74	3.122
490.09	3.115
490.43	3.106
490.77	3.087
491.11	3.067
491.46	3.049
491.80	3.028
492.14	2.998
492.49	2.982
492.83	2.965
493.17	2.932
493.51	2.922
493.86	2.901
494.20	2.890
494.54	2.900
494.88	2.915
495.23	2.942
495.57	2.978
495.91	3.026
496.25	3.052
496.60	3.068
496.94	3.097
497.28	3.119
497.62	3.151
497.97	3.172
498.31	3.201
498.65	3.224
498.99	3.237
499.33	3.268
499.68	3.300
500.02	3.336
500.36	3.375
500.70	3.415
501.04	3.451
501.39	3.481
501.73	3.528
502.07	3.580
502.41	3.631
502.75	3.716
503.09	3.763
503.44	3.812
503.78	3.864
504.12	3.925
504.46	3.992
504.80	4.073
505.14	4.156
505.49	4.237
505.83	4.301
506.17	4.375
506.51	4.434
506.85	4.517
507.19	4.593
507.53	4.660
507.87	4.726
508.22	4.796
508.56	4.859
508.90	4.919
509.24	4.990
509.58	5.056
509.92	5.144
510.26	5.220
510.60	5.305
510.94	5.375
511.28	5.467
511.63	5.567
511.97	5.650
512.31	5.751
512.65	5.870
512.99	5.979
513.33	6.127
513.67	6.255
514.01	6.411
514.35	6.548
514.69	6.714
515.03	6.860
515.37	7.005
515.71	7.148
516.05	7.282
516.39	7.377
516.73	7.475
517.07	7.561
517.41	7.640
517.75	7.712
518.09	7.784
518.43	7.846
518.77	7.899
519.11	7.977
519.45	8.042
519.79	8.126
520.13	8.231
520.47	8.350
520.81	8.465
521.15	8.594
521.49	8.714
521.83	8.842
522.17	8.975
522.51	9.138
522.85	9.282
523.19	9.491
523.53	9.693
523.87	9.914
524.21	10.111
524.55	10.304
524.89	10.485
525.23	10.656
525.57	10.809
525.91	10.953
526.25	11.068
526.58	11.177
526.92	11.254
527.26	11.300
527.60	11.316
527.94	11.341
528.28	11.359
528.62	11.359
528.96	11.360
529.30	11.355
529.64	11.341
529.97	11.336
530.31	11.323
530.65	11.321
530.99	11.353
531.33	11.379
531.67	11.404
532.01	11.432
532.35	11.458
532.68	11.469
533.02	11.485
533.36	11.492
533.70	11.508
534.04	11.529
534.38	11.530
534.71	11.522
535.05	11.547
535.39	11.568
535.73	11.570
536.07	11.607
536.41	11.639
536.74	11.683
537.08	11.731
537.42	11.787
537.76	11.833
538.10	11.887
538.43	11.946
538.77	12.004
539.11	12.046
539.45	12.090
539.79	12.115
540.12	12.147
540.46	12.158
540.80	12.168
541.14	12.158
541.47	12.125
541.81	12.101
542.15	12.076
542.49	12.040
542.82	11.999
543.16	11.977
543.50	11.952
543.84	11.907
544.17	11.878
544.51	11.856
544.85	11.825
545.18	11.840
545.52	11.839
545.86	11.824
546.20	11.830
546.53	11.828
546.87	11.804
547.21	11.774
547.54	11.763
547.88	11.753
548.22	11.729
548.55	11.728
548.89	11.721
549.23	11.716
549.56	11.702
549.90	11.695
550.24	11.694
550.57	11.711
550.91	11.699
551.25	11.713
551.58	11.708
551.92	11.696
552.26	11.681
552.59	11.673
552.93	11.668
553.27	11.673
553.60	11.658
553.94	11.622
554.27	11.588
554.61	11.591
554.95	11.571
555.28	11.539
555.62	11.504
555.95	11.497
556.29	11.505
556.63	11.455
556.96	11.444
557.30	11.407
557.63	11.384
557.97	11.356
558.31	11.296
558.64	11.253
558.98	11.225
559.31	11.232
559.65	11.177
559.98	11.108
560.32	11.063
560.65	11.002
560.99	10.944
561.33	10.911
561.66	10.874
562.00	10.852
562.33	10.805
562.67	10.771
563.00	10.712
563.34	10.680
563.67	10.627
564.01	10.603
564.34	10.542
564.68	10.496
565.01	10.428
565.35	10.349
565.68	10.289
566.02	10.213
566.35	10.126
566.69	10.042
567.02	9.987
567.36	9.917
567.69	9.840
568.03	9.792
568.36	9.736
568.69	9.673
569.03	9.630
569.36	9.573
569.70	9.532
570.03	9.509
570.37	9.489
570.70	9.439
571.04	9.398
571.37	9.343
571.70	9.282
572.04	9.239
572.37	9.190
572.71	9.133
573.04	9.074
573.37	9.029
573.71	8.965
574.04	8.877
574.38	8.811
574.71	8.761
575.04	8.711
575.38	8.660
575.71	8.577
576.05	8.534
576.38	8.492
576.71	8.427
577.05	8.377
577.38	8.303
577.71	8.261
578.05	8.208
578.38	8.135
578.71	8.087
579.05	8.029
579.38	7.979
579.71	7.916
580.05	7.839
580.38	7.795
580.71	7.732
581.05	7.690
581.38	7.645
581.71	7.598
582.05	7.564
582.38	7.546
582.71	7.504
583.04	7.465
583.38	7.432
583.71	7.424
584.04	7.402
584.38	7.372
584.71	7.356
585.04	7.343
585.37	7.342
585.71	7.329
586.04	7.286
586.37	7.293
586.70	7.296
587.04	7.289
587.37	7.254
587.70	7.246
588.03	7.229
588.37	7.237
588.70	7.243
589.03	7.196
589.36	7.173
589.69	7.146
590.03	7.102
590.36	7.073
590.69	7.033
591.02	7.001
591.35	6.987
591.69	6.968
592.02	6.922
592.35	6.890
592.68	6.886
593.01	6.857
593.35	6.861
593.68	6.870
594.01	6.865
594.34	6.842
594.67	6.850
595.00	6.824
595.34	6.795
595.67	6.760
596.00	6.731
596.33	6.678
596.66	6.646
596.99	6.602
597.32	6.540
597.65	6.491
597.99	6.458
598.32	6.406
598.65	6.334
598.98	6.292
599.31	6.276
599.64	6.240
599.97	6.232
600.30	6.230
600.63	6.235
600.96	6.233
601.30	6.247
601.63	6.257
601.96	6.250
602.29	6.252
602.62	6.255
602.95	6.235
603.28	6.212
603.61	6.181
603.94	6.142
604.27	6.095
604.60	6.056
604.93	6.012
605.26	5.978
605.59	5.953
605.92	5.935
606.25	5.908
606.58	5.882
606.91	5.820
607.24	5.806
607.57	5.794
607.90	5.767
608.23	5.707
608.56	5.667
608.89	5.606
609.22	5.547
609.55	5.492
609.88	5.403
610.21	5.332
610.54	5.313
610.87	5.245
611.20	5.152
611.53	5.089
611.86	5.056
612.19	4.982
612.52	4.931
612.85	4.898
613.18	4.880
613.51	4.855
613.84	4.795
614.17	4.742
614.49	4.741
614.82	4.692
615.15	4.672
615.48	4.643
615.81	4.617
616.14	4.602
616.47	4.545
616.80	4.475
617.13	4.459
617.46	4.449
617.78	4.425
618.11	4.373
618.44	4.397
618.77	4.339
619.10	4.320
619.43	4.304
619.76	4.263
620.09	4.289
620.41	4.268
620.74	4.258
621.07	4.277
621.40	4.279
621.73	4.278
622.06	4.254
622.38	4.291
622.71	4.307
623.04	4.337
623.37	4.404
623.70	4.396
624.02	4.425
624.35	4.458
624.68	4.460
625.01	4.489
625.34	4.530
625.66	4.548
625.99	4.548
626.32	4.553
626.65	4.551
626.98	4.497
627.30	4.506
627.63	4.491
627.96	4.423
628.29	4.406
628.61	4.362
628.94	4.301
629.27	4.283
629.60	4.234
629.92	4.214
630.25	4.147
630.58	4.150
630.91	4.074
631.23	4.039
631.56	4.040
631.89	4.012
632.21	3.995
632.54	3.965
632.87	3.913
633.19	3.876
633.52	3.804
633.85	3.798
634.18	3.738
634.50	3.706
634.83	3.661
635.16	3.604
635.48	3.503
635.81	3.433
636.14	3.347
636.46	3.297
636.79	3.239
637.11	3.169
637.44	3.073
637.77	3.001
638.09	2.901
638.42	2.825
638.75	2.743
639.07	2.716
639.40	2.646
639.73	2.629
640.05	2.536
640.38	2.527
640.70	2.453
641.03	2.419
641.36	2.374
641.68	2.379
642.01	2.349
642.33	2.363
642.66	2.356
642.98	2.326
643.31	2.307
643.64	2.292
643.96	2.238
644.29	2.263
644.61	2.266
644.94	2.253
645.26	2.248
645.59	2.275
645.91	2.247
646.24	2.239
646.56	2.231
646.89	2.220
647.22	2.250
647.54	2.263
647.87	2.268
648.19	2.242
648.52	2.281
648.84	2.280
649.17	2.238
649.49	2.258
649.82	2.261
650.14	2.303
650.47	2.309
650.79	2.336
651.11	2.323
651.44	2.357
651.76	2.385
652.09	2.408
652.41	2.469
652.74	2.528
653.06	2.545
653.39	2.609
653.71	2.623
654.04	2.621
654.36	2.636
654.68	2.671
655.01	2.692
655.33	2.701
655.66	2.680
655.98	2.657
656.30	2.642
656.63	2.678
656.95	2.649
657.28	2.650
657.60	2.634
657.92	2.620
658.25	2.613
658.57	2.602
658.90	2.601
659.22	2.594
659.54	2.598
659.87	2.622
660.19	2.568
660.51	2.523
660.84	2.500
661.16	2.555
661.48	2.548
661.81	2.571
662.13	2.565
662.45	2.619
662.78	2.662
663.10	2.712
663.42	2.742
663.75	2.847
664.07	2.927
664.39	2.971
664.72	3.019
665.04	3.097
665.36	3.197
665.69	3.335
666.01	3.437
666.33	3.563
666.65	3.664
666.98	3.786
667.30	3.877
667.62	4.014
667.94	4.173
668.27	4.314
668.59	4.474
668.91	4.623
669.23	4.739
669.56	4.851
669.88	5.036
670.20	5.203
670.52	5.394
670.85	5.555
671.17	5.762
671.49	5.942
671.81	6.155
672.13	6.345
672.46	6.524
672.78	6.747
673.10	6.975
673.42	7.133
673.74	7.344
674.07	7.542
674.39	7.824
674.71	7.978
675.03	8.265
675.35	8.472
675.67	8.698
676.00	8.861
676.32	8.944
676.64	9.115
676.96	9.310
677.28	9.499
677.60	9.629
677.92	9.746
678.25	9.919
678.57	10.048
678.89	10.160
679.21	10.292
679.53	10.499
679.85	10.799
680.17	11.029
680.49	11.186
680.81	11.376
681.13	11.620
681.46	11.880
681.78	12.170
682.10	12.442
682.42	12.689
682.74	12.979
683.06	13.158
683.38	13.328
683.70	13.536
684.02	13.815
684.34	14.014
684.66	14.192
684.98	14.348
685.30	14.464
685.62	14.472
685.94	14.625
686.26	14.672
686.58	14.794
686.90	14.868
687.22	14.923
687.54	14.888
687.86	14.915
688.18	14.963
688.50	15.051
688.82	15.095
689.14	15.254
689.46	15.415
689.78	15.543
690.10	15.696
690.42	15.835
690.74	15.911
691.06	16.091
691.38	16.250
691.70	16.377
692.02	16.451
692.34	16.682
692.66	16.858
692.98	16.900
693.30	16.982
693.62	17.100
693.94	17.150
694.26	17.222
694.57	17.291
694.89	17.360
695.21	17.480
695.53	17.593
695.85	17.551
696.17	17.590
696.49	17.716
696.81	17.845
697.13	17.915
697.44	18.097
697.76	18.321
698.08	18.647
698.40	18.929
698.72	19.168
699.04	19.461
699.36	19.922
699.67	20.288
699.99	20.641
700.31	21.073
700.63	21.513
700.95	21.997
701.27	22.429
701.58	22.713
701.90	23.073
702.22	23.501
702.54	23.766
702.86	24.013
703.17	24.258
703.49	24.615
703.81	24.887
704.13	25.176
704.45	25.365
704.76	25.565
705.08	25.764
705.40	25.949
705.72	26.136
706.03	26.432
706.35	26.652
706.67	26.953
706.99	27.140
707.30	27.373
707.62	27.625
707.94	27.938
708.26	28.217
708.57	28.481
708.89	28.787
709.21	29.006
709.53	29.271
709.84	29.508
710.16	29.835
710.48	30.090
710.79	30.376
711.11	30.689
711.43	30.900
711.74	31.238
712.06	31.575
712.38	31.914
712.69	32.295
713.01	32.640
713.33	32.981
713.64	33.408
713.96	33.760
714.28	34.176
714.59	34.606
714.91	35.055
715.23	35.514
715.54	35.882
715.86	36.291
716.17	36.660
716.49	37.076
716.81	37.565
717.12	37.801
717.44	38.272
717.76	38.760
718.07	39.142
718.39	39.517
718.70	39.799
719.02	40.196
719.33	40.509
719.65	40.901
719.97	41.085
720.28	41.426
720.60	41.907
720.91	42.260
721.23	42.546
721.54	42.911
721.86	43.278
722.17	43.629
722.49	43.994
722.81	44.141
723.12	44.502
723.44	44.932
723.75	45.271
724.07	45.424
724.38	45.689
724.70	45.848
725.01	45.963
725.33	46.166
725.64	46.421
725.96	46.521
726.27	46.774
726.59	46.949
726.90	47.099
727.22	47.084
727.53	47.237
727.84	47.263
728.16	47.466
728.47	47.585
728.79	47.724
729.10	47.757
729.42	47.927
729.73	48.213
730.05	48.343
730.36	48.445
730.67	48.680
730.99	48.950
731.30	49.180
731.62	49.378
731.93	49.687
732.24	49.929
732.56	50.263
732.87	50.593
733.19	50.822
733.50	51.026
733.81	51.194
734.13	51.446
734.44	51.591
734.76	51.843
735.07	51.959
735.38	52.055
735.70	52.359
736.01	52.408
736.32	52.467
736.64	52.706
736.95	52.821
737.26	53.058
737.58	53.188
737.89	53.342
738.20	53.515
738.52	53.701
738.83	53.823
739.14	53.738
739.45	53.871
739.77	53.999
740.08	53.952
740.39	54.218
740.71	54.484
741.02	54.668
741.33	54.643
741.64	54.773
741.96	54.811
742.27	54.945
742.58	55.244
742.90	55.396
743.21	55.559
743.52	55.704
743.83	55.538
744.14	55.420
744.46	55.528
744.77	55.735
745.08	55.674
745.39	55.678
745.71	55.525
746.02	55.310
746.33	55.215
746.64	55.118
746.95	54.995
747.27	54.955
747.58	54.813
747.89	54.493
748.20	54.106
748.51	54.074
748.82	53.935
749.14	54.021
749.45	54.025
749.76	53.929
750.07	53.905
750.38	53.815
750.69	53.882
751.01	53.933
751.32	53.997
751.63	54.222
751.94	53.951
752.25	54.012
752.56	53.948
752.87	53.846
753.18	53.783
753.49	53.577
753.81	53.666
754.12	53.616
754.43	53.644
754.74	53.598
755.05	53.622
755.36	53.853
755.67	53.825
755.98	53.975
756.29	53.975
756.60	54.113
756.91	54.237
757.22	54.272
757.53	54.326
757.84	54.310
758.15	54.356
758.46	54.302
758.77	54.013
759.09	53.855
759.40	53.541
759.71	53.350
760.02	53.136
760.33	52.819
760.64	52.544
760.95	52.465
761.26	52.369
761.57	52.193
761.88	51.998
762.18	51.941
762.49	51.867
762.80	51.865
763.11	51.659
763.42	51.564
763.73	51.623
764.04	51.585
764.35	51.372
764.66	51.281
764.97	51.148
765.28	51.194
765.59	51.095
765.90	50.856
766.21	50.560
766.52	50.639
766.83	50.499
767.14	50.455
767.44	50.221
767.75	49.980
768.06	49.737
768.37	49.401
768.68	49.211
768.99	49.168
769.30	49.186
769.61	49.177
769.91	49.171
770.22	48.993
770.53	48.802
770.84	48.791
771.15	48.685
771.46	48.567
771.77	48.840
772.07	48.689
772.38	48.714
772.69	48.668
773.00	48.557
773.31	48.568
773.61	48.551
773.92	48.316
774.23	48.324
774.54	48.354
774.85	48.350
775.15	48.035
775.46	47.816
775.77	47.754
776.08	47.766
776.39	47.727
776.69	47.633
777.00	47.777
777.31	47.956
777.62	47.790
777.92	47.802
778.23	47.826
778.54	47.779
778.85	48.050
779.15	47.862
779.46	47.787
779.77	47.675
780.07	47.486
780.38	47.497
780.69	47.360
781.00	47.619
781.30	47.609
781.61	47.113
781.92	47.427
782.22	47.306
782.53	47.007
782.84	47.141
783.14	47.493
783.45	47.623
783.76	47.651
784.06	47.720
784.37	47.511
784.68	47.441
784.98	47.909
785.29	47.969
785.60	48.039
785.90	48.299
786.21	47.957
786.51	47.864
786.82	48.057
787.13	48.113
787.43	48.245
787.74	48.417
788.04	48.681
788.35	48.735
788.66	48.791
788.96	48.758
789.27	48.970
789.57	49.158
789.88	49.290
790.19	49.052
790.49	48.748
790.80	48.617
791.10	48.762
791.41	48.670
791.71	48.707
792.02	48.752
792.32	48.521
792.63	48.382
792.93	48.364
793.24	48.198
793.54	48.116
793.85	48.332
794.15	48.180
794.46	47.989
794.76	47.823
795.07	47.810
795.37	47.792
795.68	48.109
795.98	48.499
796.29	48.815
796.59	49.032
796.90	49.110
797.20	49.035
797.51	49.410
797.81	49.407
798.12	49.517
798.42	49.690
798.72	49.561
799.03	49.373
799.33	49.000
799.64	48.818
799.94	48.949
800.25	48.800
800.55	48.899
800.85	48.683
801.16	48.544
801.46	48.324
801.77	48.194
802.07	48.347
802.37	48.719
802.68	48.757
802.98	48.689
803.28	48.175
803.59	48.355
803.89	48.268
804.20	48.308
804.50	48.224
804.80	48.027
805.11	47.770
805.41	47.476
805.71	47.167
806.02	47.340
806.32	47.672
806.62	48.148
806.93	48.447
807.23	48.490
807.53	48.586
807.83	48.880
808.14	49.980
808.44	50.196
808.74	50.197
809.05	50.291
809.35	50.218
809.65	50.257
809.95	50.231
810.26	49.829
810.56	49.979
810.86	50.094
811.16	50.182
811.47	50.047
811.77	50.642
812.07	51.250
812.37	51.313
812.68	51.396
812.98	51.282
813.28	51.442
813.58	52.179
813.88	51.883
814.19	52.159
814.49	52.363
814.79	51.896
815.09	51.568
815.39	51.188
815.70	51.684
816.00	51.689
816.30	51.920
816.60	51.644
816.90	51.060
817.20	51.365
817.50	51.093
817.81	50.532
818.11	50.499
818.41	50.576
818.71	50.533
819.01	50.551
819.31	50.694
819.61	50.914
819.92	51.149
820.22	51.517
820.52	51.630
820.82	51.882
821.12	52.316
821.42	52.623
821.72	52.772
822.02	53.171
822.32	53.431
822.62	53.707
822.92	53.876
823.22	54.085
823.52	54.271
823.83	54.477
824.13	54.565
824.43	54.400
824.73	54.398
825.03	54.445
825.33	54.205
825.63	54.081
825.93	53.903
826.23	53.799
826.53	53.787
826.83	53.562
827.13	53.634
827.43	53.710
827.73	54.043
828.03	54.213
828.33	54.404
828.63	54.649
828.93	54.694
829.23	54.846
829.53	54.872
829.83	54.531
830.13	54.423
830.42	53.820
830.72	53.540
831.02	53.297
831.32	52.977
831.62	52.963
831.92	52.734
832.22	53.021
832.52	52.894
832.82	52.950
833.12	52.985
833.42	52.947
833.72	53.163
834.01	53.415
834.31	53.727
834.61	53.854
834.91	54.170
835.21	54.813
835.51	54.528
835.81	54.700
836.11	54.837
836.40	54.909
836.70	55.351
837.00	55.523
837.30	54.893
837.60	54.463
837.90	54.912
838.19	54.315
838.49	53.645
838.79	53.567
839.09	53.478
839.39	53.353
839.68	53.678
839.98	53.248
840.28	53.175
840.58	53.557
840.88	53.620
841.17	52.535
841.47	52.877
841.77	52.306
842.07	52.130
842.36	52.216
842.66	51.405
842.96	50.017
843.26	49.011
843.55	49.664
843.85	49.729
844.15	50.797
844.45	50.109
844.74	49.674
845.04	49.906
845.34	50.054
845.63	49.306
845.93	49.804
846.23	51.369
846.53	51.477
846.82	49.995
847.12	49.512
847.42	47.030
847.71	48.953
848.01	48.430
848.31	47.782
848.60	47.586
848.90	46.376
849.19	46.211
849.49	45.528
849.79	46.494
850.08	47.782
850.38	47.595
850.68	48.431
850.97	49.806
851.27	50.328
851.56	52.009
851.86	52.678
852.16	55.779
852.45	55.789
852.75	55.716
853.04	56.705
853.34	56.473
853.64	56.126
853.93	56.305
854.23	52.978
854.52	51.947
854.82	51.523
855.11	52.019
855.41	50.737
855.70	52.530
856.00	52.368
856.30	51.524
856.59	51.968
856.89	53.980
857.18	55.766
857.48	58.143
857.77	58.358
858.07	59.692
858.36	55.635
858.66	55.105
858.95	53.283
859.25	54.036
859.54	53.530
859.84	53.935
860.13	52.499
860.42	49.842
860.72	47.754
861.01	48.373
861.31	47.036
861.60	50.227
861.90	50.704
862.19	52.402
862.49	50.789
862.78	51.893
863.07	51.086
863.37	51.326
863.66	52.097
863.96	54.661
864.25	55.252
864.54	55.806
864.84	56.520
865.13	55.983
865.43	55.529
865.72	63.062
866.01	60.281
866.31	60.232
866.60	45.188
866.89	61.150
>>>>>End Spectral Data<<<<<
