OOIBase32 Version 2.0.0.6 Data File
++++++++++++++++++++++++++++++++++++
Date: 01-23-2012, 23:06:56
User: Valued Ocean Optics Customer
Spectrometer Serial Number: USB2E2917
Spectrometer Channel: Master
Integration Time (msec): 5
Spectra Averaged: 10
Boxcar Smoothing: 5
Correct for Electrical Dark: Enabled
Time Normalized: Disabled
Dual-beam Reference: Disabled
Reference Channel: Master
Temperature: Not acquired
Spectrometer Type: S2000
ADC Type: USB2000
Number of Pixels in File: 2048
Graph Title: 
>>>>>Begin Spectral Data<<<<<
180.30	0.000
180.67	0.000
181.03	-34.909
181.40	718.895
181.77	-19518.960
182.14	76.137
182.51	-343.175
182.88	384.383
183.25	65.901
183.62	92.184
183.99	336.280
184.36	10.014
184.73	140.460
185.10	63.393
185.46	-290.557
185.83	-293.764
186.20	-391.169
186.57	-108.885
186.94	88.979
187.31	54.188
187.68	58.755
188.05	163.460
188.42	246.267
188.78	383.652
189.15	1028.027
189.52	-259.199
189.89	-94.568
190.26	-73.667
190.63	-30.001
191.00	-10.596
191.37	7.136
191.73	25.985
192.10	28.428
192.47	39.106
192.84	39.768
193.21	39.004
193.58	32.021
193.94	38.799
194.31	47.168
194.68	54.169
195.05	31.830
195.42	40.192
195.79	28.094
196.15	32.264
196.52	22.524
196.89	27.101
197.26	9.387
197.63	40.278
198.00	39.958
198.36	33.284
198.73	18.003
199.10	0.570
199.47	-5.999
199.84	-3.884
200.20	-10.670
200.57	-3.125
200.94	-13.695
201.31	-10.323
201.68	-34.107
202.04	-32.544
202.41	-31.955
202.78	-37.982
203.15	-40.725
203.51	-67.841
203.88	-67.935
204.25	-65.187
204.62	-86.760
204.98	-80.957
205.35	-80.152
205.72	-80.297
206.09	-84.560
206.46	-164.285
206.82	-126.233
207.19	-89.773
207.56	-116.889
207.92	-101.246
208.29	-107.099
208.66	-67.177
209.03	-71.654
209.39	-37.768
209.76	-38.098
210.13	-41.240
210.50	-8.794
210.86	-1.525
211.23	-19.195
211.60	-9.343
211.96	-16.865
212.33	-16.867
212.70	-19.745
213.07	-21.779
213.43	-54.458
213.80	-52.856
214.17	-44.865
214.53	-41.276
214.90	-35.742
215.27	-23.483
215.63	-9.647
216.00	-1.970
216.37	1.797
216.74	-7.382
217.10	9.114
217.47	8.947
217.84	16.728
218.20	20.159
218.57	25.681
218.94	27.221
219.30	24.253
219.67	12.039
220.04	6.564
220.40	2.796
220.77	8.228
221.13	5.659
221.50	6.942
221.87	3.416
222.23	0.746
222.60	3.597
222.97	-2.413
223.33	-4.102
223.70	0.284
224.07	2.012
224.43	5.347
224.80	4.487
225.16	-1.749
225.53	-2.916
225.90	-5.490
226.26	-2.242
226.63	-3.778
226.99	-2.438
227.36	-1.412
227.73	-0.797
228.09	-1.886
228.46	-0.281
228.82	0.090
229.19	1.418
229.56	2.856
229.92	5.806
230.29	4.973
230.65	5.205
231.02	3.250
231.38	1.806
231.75	0.216
232.12	0.758
232.48	-3.917
232.85	-6.235
233.21	-6.410
233.58	-9.614
233.94	-10.391
234.31	-10.639
234.68	-10.971
235.04	-9.797
235.41	-8.548
235.77	-5.949
236.14	-4.106
236.50	-1.012
236.87	0.286
237.23	1.375
237.60	2.085
237.96	2.740
238.33	2.122
238.69	1.796
239.06	2.234
239.42	2.175
239.79	0.621
240.15	-0.120
240.52	-0.255
240.88	0.015
241.25	-0.493
241.61	-0.262
241.98	-0.599
242.34	-0.506
242.71	-0.365
243.07	-0.485
243.44	-0.621
243.80	-0.290
244.17	-0.209
244.53	-0.540
244.90	-0.659
245.26	-0.538
245.63	-0.631
245.99	-0.703
246.36	-0.908
246.72	-0.824
247.09	-1.123
247.45	-0.919
247.81	-0.817
248.18	-1.049
248.54	-0.846
248.91	-0.998
249.27	-0.721
249.64	-0.215
250.00	-0.188
250.36	-0.011
250.73	0.003
251.09	0.312
251.46	0.192
251.82	-0.086
252.19	0.252
252.55	-0.191
252.91	0.003
253.28	-0.276
253.64	-1.287
254.01	-1.070
254.37	-0.831
254.73	-0.402
255.10	0.066
255.46	0.637
255.83	0.880
256.19	0.799
256.55	0.818
256.92	0.955
257.28	1.133
257.65	1.598
258.01	1.575
258.37	1.649
258.74	1.499
259.10	1.270
259.46	0.856
259.83	0.809
260.19	0.917
260.55	0.987
260.92	0.740
261.28	0.523
261.64	0.236
262.01	0.240
262.37	0.323
262.73	0.434
263.10	0.550
263.46	0.816
263.82	0.794
264.19	0.740
264.55	0.316
264.91	0.300
265.28	0.077
265.64	0.081
266.00	-0.347
266.37	-0.591
266.73	-0.573
267.09	-0.421
267.46	-0.473
267.82	-0.503
268.18	-0.446
268.54	0.071
268.91	0.179
269.27	0.304
269.63	0.621
270.00	1.079
270.36	1.048
270.72	1.029
271.08	0.945
271.45	0.947
271.81	1.123
272.17	1.147
272.53	1.014
272.90	1.050
273.26	1.132
273.62	0.722
273.98	0.572
274.35	0.649
274.71	0.676
275.07	0.764
275.43	0.841
275.80	0.744
276.16	0.725
276.52	0.635
276.88	0.462
277.25	0.375
277.61	0.341
277.97	0.142
278.33	0.184
278.69	0.006
279.06	-0.046
279.42	-0.064
279.78	0.024
280.14	-0.017
280.50	0.335
280.87	0.569
281.23	0.558
281.59	0.466
281.95	0.554
282.31	0.626
282.68	0.570
283.04	0.543
283.40	0.613
283.76	0.621
284.12	0.818
284.48	0.782
284.85	0.603
285.21	0.630
285.57	0.627
285.93	0.673
286.29	0.475
286.65	0.655
287.02	0.940
287.38	1.037
287.74	0.951
288.10	0.828
288.46	0.736
288.82	0.703
289.18	0.761
289.54	0.954
289.91	0.999
290.27	1.106
290.63	1.142
290.99	0.986
291.35	0.940
291.71	1.130
292.07	1.069
292.43	1.084
292.79	1.133
293.16	1.081
293.52	1.055
293.88	1.087
294.24	0.998
294.60	0.947
294.96	0.936
295.32	0.923
295.68	0.898
296.04	0.993
296.40	1.057
296.76	1.162
297.12	1.184
297.49	1.086
297.85	0.842
298.21	0.895
298.57	0.800
298.93	0.821
299.29	0.789
299.65	0.750
300.01	0.678
300.37	0.619
300.73	0.678
301.09	0.646
301.45	0.829
301.81	1.147
302.17	1.214
302.53	1.185
302.89	0.990
303.25	0.868
303.61	0.873
303.97	0.767
304.33	0.676
304.69	0.630
305.05	0.635
305.41	0.511
305.77	0.406
306.13	0.393
306.49	0.444
306.85	0.551
307.21	0.671
307.57	0.609
307.93	0.651
308.29	0.789
308.65	0.774
309.01	0.844
309.37	0.875
309.73	0.863
310.09	0.953
310.45	0.957
310.81	0.918
311.17	0.809
311.53	0.789
311.89	0.852
312.25	0.846
312.61	0.806
312.96	0.682
313.32	0.832
313.68	0.768
314.04	0.636
314.40	0.773
314.76	0.814
315.12	0.882
315.48	0.924
315.84	0.854
316.20	0.803
316.56	0.780
316.92	0.768
317.27	0.559
317.63	0.621
317.99	0.618
318.35	0.528
318.71	0.523
319.07	0.566
319.43	0.540
319.79	0.715
320.15	0.712
320.50	0.857
320.86	0.971
321.22	1.074
321.58	1.002
321.94	0.950
322.30	0.835
322.66	0.753
323.01	0.692
323.37	0.653
323.73	0.532
324.09	0.412
324.45	0.413
324.81	0.252
325.17	0.239
325.52	0.341
325.88	0.366
326.24	0.479
326.60	0.484
326.96	0.530
327.31	0.536
327.67	0.501
328.03	0.574
328.39	0.404
328.75	0.526
329.11	0.579
329.46	0.564
329.82	0.547
330.18	0.522
330.54	0.579
330.90	0.525
331.25	0.606
331.61	0.696
331.97	0.743
332.33	0.885
332.68	0.993
333.04	1.010
333.40	0.975
333.76	0.960
334.11	0.987
334.47	1.039
334.83	1.025
335.19	0.932
335.54	0.924
335.90	0.937
336.26	0.875
336.62	0.744
336.97	0.662
337.33	0.625
337.69	0.701
338.05	0.587
338.40	0.491
338.76	0.593
339.12	0.657
339.48	0.539
339.83	0.544
340.19	0.684
340.55	0.801
340.90	0.765
341.26	0.771
341.62	0.746
341.97	0.839
342.33	0.977
342.69	1.005
343.04	1.055
343.40	1.121
343.76	1.057
344.12	1.050
344.47	1.033
344.83	1.156
345.19	1.268
345.54	1.363
345.90	1.470
346.26	1.492
346.61	1.515
346.97	1.492
347.32	1.540
347.68	1.658
348.04	1.634
348.39	1.605
348.75	1.625
349.11	1.611
349.46	1.591
349.82	1.555
350.18	1.537
350.53	1.537
350.89	1.521
351.24	1.521
351.60	1.537
351.96	1.664
352.31	1.728
352.67	1.762
353.02	1.810
353.38	1.878
353.74	1.844
354.09	1.821
354.45	1.881
354.80	2.007
355.16	2.086
355.52	2.106
355.87	2.019
356.23	2.072
356.58	2.083
356.94	2.076
357.29	2.081
357.65	2.219
358.00	2.305
358.36	2.317
358.72	2.291
359.07	2.339
359.43	2.356
359.78	2.426
360.14	2.465
360.49	2.463
360.85	2.506
361.20	2.463
361.56	2.418
361.91	2.422
362.27	2.419
362.62	2.469
362.98	2.450
363.33	2.416
363.69	2.399
364.04	2.444
364.40	2.455
364.75	2.470
365.11	2.501
365.46	2.493
365.82	2.539
366.17	2.519
366.53	2.547
366.88	2.553
367.24	2.620
367.59	2.648
367.95	2.619
368.30	2.654
368.66	2.694
369.01	2.752
369.37	2.801
369.72	2.844
370.08	2.952
370.43	2.998
370.78	3.026
371.14	3.018
371.49	3.058
371.85	3.018
372.20	3.027
372.56	3.008
372.91	3.016
373.26	3.049
373.62	2.986
373.97	2.962
374.33	2.923
374.68	2.908
375.03	2.925
375.39	2.875
375.74	2.904
376.10	2.934
376.45	2.935
376.80	2.959
377.16	2.909
377.51	2.943
377.87	2.945
378.22	2.920
378.57	2.929
378.93	2.966
379.28	3.009
379.63	3.011
379.99	3.048
380.34	3.065
380.70	3.061
381.05	3.131
381.40	3.133
381.76	3.149
382.11	3.213
382.46	3.247
382.82	3.240
383.17	3.209
383.52	3.238
383.88	3.193
384.23	3.255
384.58	3.277
384.94	3.261
385.29	3.298
385.64	3.323
385.99	3.336
386.35	3.355
386.70	3.386
387.05	3.425
387.41	3.438
387.76	3.442
388.11	3.394
388.47	3.377
388.82	3.400
389.17	3.395
389.52	3.377
389.88	3.377
390.23	3.378
390.58	3.409
390.93	3.424
391.29	3.410
391.64	3.456
391.99	3.497
392.34	3.559
392.70	3.552
393.05	3.538
393.40	3.546
393.75	3.537
394.11	3.548
394.46	3.483
394.81	3.487
395.16	3.468
395.52	3.445
395.87	3.426
396.22	3.401
396.57	3.362
396.92	3.352
397.28	3.322
397.63	3.280
397.98	3.246
398.33	3.237
398.68	3.181
399.04	3.185
399.39	3.155
399.74	3.121
400.09	3.079
400.44	3.103
400.80	3.093
401.15	3.063
401.50	3.075
401.85	3.092
402.20	3.081
402.55	3.105
402.90	3.096
403.26	3.101
403.61	3.096
403.96	3.097
404.31	3.091
404.66	3.101
405.01	3.107
405.36	3.089
405.72	3.051
406.07	3.040
406.42	3.014
406.77	3.031
407.12	3.010
407.47	3.010
407.82	2.988
408.17	2.942
408.53	2.932
408.88	2.893
409.23	2.877
409.58	2.848
409.93	2.864
410.28	2.857
410.63	2.822
410.98	2.812
411.33	2.783
411.68	2.795
412.03	2.832
412.38	2.808
412.73	2.871
413.09	2.917
413.44	2.950
413.79	2.959
414.14	2.982
414.49	3.008
414.84	3.033
415.19	3.044
415.54	3.071
415.89	3.076
416.24	3.111
416.59	3.111
416.94	3.105
417.29	3.134
417.64	3.125
417.99	3.132
418.34	3.154
418.69	3.157
419.04	3.164
419.39	3.163
419.74	3.153
420.09	3.151
420.44	3.143
420.79	3.131
421.14	3.115
421.49	3.130
421.84	3.126
422.19	3.112
422.54	3.115
422.89	3.107
423.24	3.089
423.59	3.095
423.94	3.090
424.29	3.099
424.64	3.097
424.99	3.081
425.34	3.041
425.68	3.025
426.03	2.987
426.38	2.965
426.73	2.973
427.08	2.967
427.43	2.957
427.78	2.946
428.13	2.917
428.48	2.941
428.83	2.935
429.18	2.968
429.53	2.969
429.87	2.962
430.22	2.940
430.57	2.922
430.92	2.932
431.27	2.934
431.62	2.923
431.97	2.917
432.32	2.896
432.67	2.904
433.01	2.872
433.36	2.859
433.71	2.873
434.06	2.880
434.41	2.892
434.76	2.880
435.11	2.870
435.45	2.863
435.80	2.870
436.15	2.878
436.50	2.893
436.85	2.927
437.20	2.933
437.54	2.940
437.89	2.959
438.24	2.974
438.59	2.982
438.94	2.981
439.29	2.984
439.63	3.000
439.98	3.017
440.33	3.004
440.68	3.010
441.03	3.038
441.37	3.056
441.72	3.071
442.07	3.067
442.42	3.092
442.76	3.135
443.11	3.169
443.46	3.198
443.81	3.213
444.16	3.241
444.50	3.247
444.85	3.246
445.20	3.247
445.55	3.262
445.89	3.281
446.24	3.268
446.59	3.240
446.94	3.230
447.28	3.216
447.63	3.197
447.98	3.186
448.32	3.184
448.67	3.182
449.02	3.178
449.37	3.148
449.71	3.152
450.06	3.162
450.41	3.199
450.75	3.211
451.10	3.216
451.45	3.216
451.79	3.215
452.14	3.203
452.49	3.213
452.84	3.228
453.18	3.238
453.53	3.218
453.88	3.236
454.22	3.234
454.57	3.239
454.92	3.261
455.26	3.287
455.61	3.322
455.95	3.374
456.30	3.395
456.65	3.432
456.99	3.459
457.34	3.488
457.69	3.502
458.03	3.504
458.38	3.511
458.73	3.521
459.07	3.523
459.42	3.509
459.76	3.486
460.11	3.467
460.46	3.422
460.80	3.396
461.15	3.369
461.49	3.339
461.84	3.334
462.19	3.318
462.53	3.293
462.88	3.292
463.22	3.285
463.57	3.270
463.91	3.284
464.26	3.303
464.61	3.322
464.95	3.322
465.30	3.310
465.64	3.313
465.99	3.330
466.33	3.330
466.68	3.322
467.02	3.330
467.37	3.325
467.71	3.305
468.06	3.306
468.41	3.275
468.75	3.276
469.10	3.288
469.44	3.278
469.79	3.250
470.13	3.223
470.48	3.209
470.82	3.200
471.17	3.218
471.51	3.201
471.86	3.191
472.20	3.205
472.55	3.219
472.89	3.223
473.23	3.202
473.58	3.202
473.92	3.219
474.27	3.214
474.61	3.212
474.96	3.208
475.30	3.234
475.65	3.232
475.99	3.234
476.34	3.230
476.68	3.230
477.02	3.250
477.37	3.267
477.71	3.313
478.06	3.363
478.40	3.433
478.75	3.518
479.09	3.614
479.43	3.718
479.78	3.844
480.12	3.959
480.47	4.080
480.81	4.193
481.15	4.301
481.50	4.410
481.84	4.524
482.19	4.637
482.53	4.721
482.87	4.776
483.22	4.785
483.56	4.734
483.90	4.655
484.25	4.553
484.59	4.449
484.94	4.357
485.28	4.259
485.62	4.154
485.97	4.040
486.31	3.950
486.65	3.887
487.00	3.861
487.34	3.872
487.68	3.913
488.03	3.960
488.37	4.004
488.71	4.028
489.06	4.036
489.40	4.055
489.74	4.067
490.09	4.072
490.43	4.063
490.77	4.049
491.11	4.026
491.46	4.005
491.80	3.993
492.14	3.973
492.49	3.970
492.83	3.964
493.17	3.938
493.51	3.930
493.86	3.927
494.20	3.951
494.54	3.972
494.88	4.018
495.23	4.059
495.57	4.095
495.91	4.163
496.25	4.216
496.60	4.257
496.94	4.294
497.28	4.337
497.62	4.387
497.97	4.419
498.31	4.479
498.65	4.517
498.99	4.557
499.33	4.617
499.68	4.666
500.02	4.726
500.36	4.803
500.70	4.875
501.04	4.943
501.39	5.003
501.73	5.087
502.07	5.187
502.41	5.281
502.75	5.381
503.09	5.480
503.44	5.581
503.78	5.660
504.12	5.738
504.46	5.836
504.80	5.934
505.14	6.057
505.49	6.156
505.83	6.229
506.17	6.327
506.51	6.423
506.85	6.526
507.19	6.626
507.53	6.726
507.87	6.836
508.22	6.939
508.56	7.035
508.90	7.107
509.24	7.208
509.58	7.321
509.92	7.418
510.26	7.518
510.60	7.602
510.94	7.696
511.28	7.801
511.63	7.902
511.97	7.998
512.31	8.103
512.65	8.229
512.99	8.335
513.33	8.489
513.67	8.643
514.01	8.821
514.35	8.976
514.69	9.132
515.03	9.280
515.37	9.440
515.71	9.606
516.05	9.761
516.39	9.886
516.73	10.018
517.07	10.112
517.41	10.203
517.75	10.282
518.09	10.379
518.43	10.448
518.77	10.520
519.11	10.588
519.45	10.648
519.79	10.726
520.13	10.832
520.47	10.945
520.81	11.050
521.15	11.180
521.49	11.301
521.83	11.431
522.17	11.572
522.51	11.729
522.85	11.902
523.19	12.104
523.53	12.327
523.87	12.554
524.21	12.762
524.55	12.973
524.89	13.157
525.23	13.330
525.57	13.485
525.91	13.627
526.25	13.750
526.58	13.877
526.92	13.955
527.26	14.001
527.60	14.017
527.94	14.031
528.28	14.036
528.62	14.030
528.96	14.023
529.30	13.997
529.64	13.986
529.97	13.972
530.31	13.927
530.65	13.922
530.99	13.921
531.33	13.952
531.67	13.981
532.01	13.996
532.35	14.007
532.68	14.025
533.02	14.039
533.36	14.037
533.70	14.026
534.04	14.024
534.38	14.020
534.71	14.033
535.05	14.028
535.39	14.032
535.73	14.058
536.07	14.087
536.41	14.110
536.74	14.162
537.08	14.217
537.42	14.302
537.76	14.369
538.10	14.434
538.43	14.504
538.77	14.577
539.11	14.632
539.45	14.682
539.79	14.732
540.12	14.757
540.46	14.775
540.80	14.780
541.14	14.756
541.47	14.728
541.81	14.707
542.15	14.678
542.49	14.627
542.82	14.576
543.16	14.531
543.50	14.492
543.84	14.449
544.17	14.410
544.51	14.381
544.85	14.363
545.18	14.375
545.52	14.357
545.86	14.316
546.20	14.321
546.53	14.332
546.87	14.327
547.21	14.299
547.54	14.295
547.88	14.291
548.22	14.293
548.55	14.306
548.89	14.283
549.23	14.299
549.56	14.318
549.90	14.321
550.24	14.319
550.57	14.316
550.91	14.314
551.25	14.333
551.58	14.343
551.92	14.342
552.26	14.322
552.59	14.341
552.93	14.325
553.27	14.303
553.60	14.297
553.94	14.272
554.27	14.256
554.61	14.267
554.95	14.256
555.28	14.262
555.62	14.252
555.95	14.279
556.29	14.259
556.63	14.229
556.96	14.233
557.30	14.188
557.63	14.170
557.97	14.148
558.31	14.109
558.64	14.069
558.98	14.014
559.31	14.004
559.65	13.954
559.98	13.939
560.32	13.926
560.65	13.904
560.99	13.893
561.33	13.868
561.66	13.836
562.00	13.829
562.33	13.803
562.67	13.818
563.00	13.771
563.34	13.753
563.67	13.724
564.01	13.694
564.34	13.661
564.68	13.642
565.01	13.616
565.35	13.593
565.68	13.544
566.02	13.510
566.35	13.432
566.69	13.394
567.02	13.358
567.36	13.297
567.69	13.265
568.03	13.242
568.36	13.193
568.69	13.141
569.03	13.099
569.36	13.058
569.70	13.022
570.03	13.013
570.37	12.967
570.70	12.917
571.04	12.895
571.37	12.851
571.70	12.793
572.04	12.742
572.37	12.722
572.71	12.673
573.04	12.653
573.37	12.615
573.71	12.560
574.04	12.531
574.38	12.509
574.71	12.475
575.04	12.435
575.38	12.406
575.71	12.390
576.05	12.357
576.38	12.336
576.71	12.289
577.05	12.279
577.38	12.249
577.71	12.230
578.05	12.196
578.38	12.163
578.71	12.150
579.05	12.112
579.38	12.074
579.71	12.059
580.05	12.031
580.38	12.022
580.71	11.988
581.05	11.983
581.38	11.950
581.71	11.930
582.05	11.921
582.38	11.912
582.71	11.919
583.04	11.932
583.38	11.895
583.71	11.924
584.04	11.922
584.38	11.949
584.71	11.957
585.04	12.016
585.37	12.048
585.71	12.072
586.04	12.097
586.37	12.138
586.70	12.165
587.04	12.222
587.37	12.221
587.70	12.239
588.03	12.257
588.37	12.280
588.70	12.270
589.03	12.282
589.36	12.280
589.69	12.269
590.03	12.267
590.36	12.259
590.69	12.209
591.02	12.194
591.35	12.185
591.69	12.174
592.02	12.167
592.35	12.201
592.68	12.213
593.01	12.216
593.35	12.232
593.68	12.228
594.01	12.234
594.34	12.262
594.67	12.274
595.00	12.270
595.34	12.243
595.67	12.209
596.00	12.165
596.33	12.121
596.66	12.108
596.99	12.085
597.32	12.060
597.65	12.024
597.99	11.990
598.32	11.926
598.65	11.874
598.98	11.854
599.31	11.863
599.64	11.858
599.97	11.847
600.30	11.843
600.63	11.851
600.96	11.833
601.30	11.821
601.63	11.844
601.96	11.873
602.29	11.910
602.62	11.910
602.95	11.861
603.28	11.833
603.61	11.820
603.94	11.767
604.27	11.733
604.60	11.708
604.93	11.706
605.26	11.654
605.59	11.623
605.92	11.564
606.25	11.518
606.58	11.529
606.91	11.469
607.24	11.442
607.57	11.423
607.90	11.387
608.23	11.340
608.56	11.301
608.89	11.263
609.22	11.222
609.55	11.159
609.88	11.128
610.21	11.089
610.54	11.044
610.87	10.983
611.20	10.931
611.53	10.888
611.86	10.857
612.19	10.789
612.52	10.746
612.85	10.700
613.18	10.693
613.51	10.603
613.84	10.540
614.17	10.542
614.49	10.536
614.82	10.491
615.15	10.458
615.48	10.436
615.81	10.403
616.14	10.358
616.47	10.329
616.80	10.289
617.13	10.271
617.46	10.220
617.78	10.161
618.11	10.077
618.44	10.052
618.77	10.006
619.10	9.960
619.43	9.927
619.76	9.899
620.09	9.891
620.41	9.882
620.74	9.920
621.07	9.938
621.40	9.947
621.73	9.975
622.06	9.995
622.38	10.012
622.71	10.055
623.04	10.082
623.37	10.126
623.70	10.133
624.02	10.159
624.35	10.168
624.68	10.187
625.01	10.207
625.34	10.228
625.66	10.252
625.99	10.260
626.32	10.223
626.65	10.201
626.98	10.193
627.30	10.184
627.63	10.145
627.96	10.103
628.29	10.064
628.61	10.039
628.94	10.031
629.27	9.967
629.60	9.911
629.92	9.905
630.25	9.907
630.58	9.891
630.91	9.865
631.23	9.850
631.56	9.816
631.89	9.790
632.21	9.772
632.54	9.739
632.87	9.718
633.19	9.688
633.52	9.655
633.85	9.649
634.18	9.588
634.50	9.514
634.83	9.485
635.16	9.451
635.48	9.346
635.81	9.284
636.14	9.156
636.46	9.111
636.79	9.073
637.11	8.995
637.44	8.855
637.77	8.768
638.09	8.680
638.42	8.585
638.75	8.497
639.07	8.474
639.40	8.374
639.73	8.327
640.05	8.213
640.38	8.165
640.70	8.057
641.03	8.013
641.36	7.974
641.68	7.983
642.01	7.953
642.33	7.915
642.66	7.873
642.98	7.883
643.31	7.867
643.64	7.839
643.96	7.775
644.29	7.794
644.61	7.783
644.94	7.768
645.26	7.710
645.59	7.727
645.91	7.713
646.24	7.708
646.56	7.670
646.89	7.676
647.22	7.696
647.54	7.711
647.87	7.741
648.19	7.711
648.52	7.718
648.84	7.739
649.17	7.671
649.49	7.658
649.82	7.644
650.14	7.640
650.47	7.618
650.79	7.610
651.11	7.575
651.44	7.535
651.76	7.531
652.09	7.498
652.41	7.486
652.74	7.491
653.06	7.511
653.39	7.539
653.71	7.583
654.04	7.581
654.36	7.583
654.68	7.619
655.01	7.613
655.33	7.633
655.66	7.638
655.98	7.649
656.30	7.617
656.63	7.645
656.95	7.613
657.28	7.577
657.60	7.540
657.92	7.525
658.25	7.486
658.57	7.506
658.90	7.484
659.22	7.461
659.54	7.429
659.87	7.411
660.19	7.287
660.51	7.251
660.84	7.220
661.16	7.185
661.48	7.161
661.81	7.097
662.13	6.989
662.45	6.958
662.78	6.955
663.10	6.960
663.42	6.977
663.75	7.068
664.07	7.056
664.39	6.995
664.72	7.021
665.04	7.010
665.36	7.069
665.69	7.131
666.01	7.167
666.33	7.180
666.65	7.137
666.98	7.175
667.30	7.219
667.62	7.263
667.94	7.364
668.27	7.441
668.59	7.497
668.91	7.558
669.23	7.629
669.56	7.648
669.88	7.720
670.20	7.825
670.52	7.903
670.85	7.909
671.17	8.038
671.49	8.114
671.81	8.229
672.13	8.340
672.46	8.411
672.78	8.508
673.10	8.622
673.42	8.694
673.74	8.810
674.07	8.956
674.39	9.118
674.71	9.214
675.03	9.350
675.35	9.416
675.67	9.490
676.00	9.617
676.32	9.677
676.64	9.817
676.96	9.977
677.28	10.126
677.60	10.241
677.92	10.370
678.25	10.462
678.57	10.564
678.89	10.656
679.21	10.788
679.53	10.887
679.85	11.068
680.17	11.187
680.49	11.353
680.81	11.461
681.13	11.551
681.46	11.649
681.78	11.813
682.10	11.972
682.42	12.178
682.74	12.366
683.06	12.605
683.38	12.834
683.70	13.051
684.02	13.195
684.34	13.363
684.66	13.609
684.98	13.859
685.30	14.025
685.62	14.185
685.94	14.368
686.26	14.530
686.58	14.657
686.90	14.767
687.22	14.881
687.54	15.017
687.86	15.163
688.18	15.248
688.50	15.410
688.82	15.572
689.14	15.749
689.46	15.900
689.78	16.051
690.10	16.256
690.42	16.376
690.74	16.589
691.06	16.788
691.38	16.963
691.70	17.122
692.02	17.222
692.34	17.431
692.66	17.603
692.98	17.775
693.30	18.009
693.62	18.204
693.94	18.397
694.26	18.542
694.57	18.701
694.89	18.906
695.21	19.125
695.53	19.257
695.85	19.324
696.17	19.448
696.49	19.642
696.81	19.722
697.13	19.785
697.44	19.940
697.76	20.080
698.08	20.256
698.40	20.426
698.72	20.559
699.04	20.762
699.36	21.008
699.67	21.230
699.99	21.296
700.31	21.543
700.63	21.845
700.95	22.098
701.27	22.365
701.58	22.507
701.90	22.646
702.22	22.840
702.54	23.037
702.86	23.258
703.17	23.373
703.49	23.675
703.81	23.927
704.13	24.084
704.45	24.259
704.76	24.421
705.08	24.585
705.40	24.709
705.72	24.897
706.03	25.080
706.35	25.231
706.67	25.413
706.99	25.517
707.30	25.594
707.62	25.719
707.94	25.873
708.26	25.973
708.57	26.180
708.89	26.406
709.21	26.584
709.53	26.729
709.84	26.976
710.16	27.138
710.48	27.452
710.79	27.696
711.11	27.887
711.43	28.022
711.74	28.242
712.06	28.378
712.38	28.556
712.69	28.711
713.01	29.026
713.33	29.119
713.64	29.467
713.96	29.608
714.28	29.812
714.59	30.043
714.91	30.313
715.23	30.553
715.54	30.710
715.86	30.966
716.17	31.214
716.49	31.352
716.81	31.557
717.12	31.609
717.44	31.825
717.76	32.132
718.07	32.313
718.39	32.466
718.70	32.564
719.02	32.812
719.33	32.935
719.65	33.155
719.97	33.238
720.28	33.471
720.60	33.768
720.91	33.994
721.23	34.109
721.54	34.355
721.86	34.572
722.17	34.773
722.49	35.080
722.81	35.249
723.12	35.342
723.44	35.421
723.75	35.632
724.07	35.707
724.38	35.847
724.70	35.973
725.01	36.026
725.33	36.165
725.64	36.366
725.96	36.421
726.27	36.482
726.59	36.582
726.90	36.790
727.22	36.667
727.53	36.723
727.84	36.772
728.16	36.846
728.47	36.963
728.79	37.088
729.10	37.096
729.42	37.183
729.73	37.373
730.05	37.459
730.36	37.538
730.67	37.815
730.99	37.917
731.30	37.918
731.62	37.897
731.93	37.944
732.24	37.990
732.56	38.119
732.87	38.190
733.19	38.239
733.50	38.247
733.81	38.308
734.13	38.307
734.44	38.500
734.76	38.511
735.07	38.643
735.38	38.754
735.70	38.900
736.01	38.879
736.32	38.895
736.64	39.094
736.95	39.313
737.26	39.316
737.58	39.445
737.89	39.401
738.20	39.573
738.52	39.762
738.83	39.718
739.14	39.687
739.45	39.929
739.77	40.026
740.08	39.926
740.39	39.956
740.71	40.289
741.02	40.296
741.33	40.301
741.64	40.420
741.96	40.388
742.27	40.557
742.58	40.600
742.90	40.464
743.21	40.700
743.52	40.793
743.83	40.699
744.14	40.468
744.46	40.622
744.77	40.682
745.08	40.381
745.39	40.279
745.71	40.062
746.02	40.132
746.33	40.323
746.64	40.077
746.95	40.159
747.27	40.429
747.58	40.558
747.89	40.390
748.20	40.328
748.51	40.760
748.82	40.780
749.14	41.161
749.45	41.260
749.76	41.313
750.07	41.421
750.38	41.349
750.69	41.226
751.01	41.126
751.32	41.242
751.63	41.362
751.94	41.175
752.25	41.313
752.56	41.196
752.87	41.004
753.18	40.856
753.49	40.829
753.81	40.917
754.12	40.836
754.43	41.022
754.74	40.874
755.05	41.089
755.36	41.137
755.67	41.245
755.98	41.400
756.29	41.726
756.60	42.087
756.91	42.484
757.22	42.573
757.53	42.937
757.84	43.068
758.15	43.583
758.46	43.728
758.77	43.875
759.09	43.901
759.40	44.032
759.71	43.964
760.02	43.860
760.33	43.607
760.64	43.544
760.95	43.530
761.26	43.462
761.57	43.325
761.88	43.258
762.18	43.225
762.49	43.167
762.80	43.039
763.11	42.967
763.42	42.739
763.73	42.586
764.04	42.522
764.35	42.380
764.66	42.185
764.97	41.959
765.28	41.625
765.59	41.393
765.90	41.076
766.21	40.788
766.52	40.505
766.83	40.464
767.14	40.693
767.44	40.423
767.75	40.205
768.06	40.243
768.37	39.998
768.68	39.800
768.99	39.647
769.30	39.603
769.61	39.479
769.91	39.419
770.22	39.341
770.53	39.080
770.84	38.954
771.15	38.855
771.46	38.616
771.77	38.528
772.07	38.401
772.38	38.389
772.69	38.275
773.00	38.465
773.31	38.620
773.61	38.508
773.92	38.334
774.23	38.447
774.54	38.324
774.85	38.366
775.15	38.351
775.46	38.660
775.77	38.663
776.08	38.607
776.39	38.365
776.69	38.201
777.00	38.296
777.31	38.561
777.62	38.640
777.92	38.604
778.23	38.652
778.54	38.895
778.85	38.732
779.15	38.706
779.46	38.829
779.77	39.012
780.07	39.075
780.38	39.306
780.69	39.060
781.00	39.007
781.30	38.997
781.61	38.770
781.92	38.614
782.22	38.839
782.53	38.669
782.84	38.796
783.14	38.796
783.45	38.531
783.76	38.521
784.06	38.431
784.37	38.257
784.68	38.207
784.98	38.418
785.29	38.389
785.60	38.457
785.90	38.725
786.21	38.864
786.51	38.843
786.82	39.013
787.13	38.880
787.43	39.180
787.74	39.457
788.04	39.874
788.35	39.859
788.66	40.219
788.96	40.230
789.27	40.321
789.57	40.029
789.88	40.084
790.19	40.118
790.49	39.790
790.80	39.604
791.10	39.423
791.41	39.234
791.71	39.308
792.02	39.149
792.32	38.940
792.63	38.780
792.93	38.952
793.24	38.862
793.54	39.060
793.85	39.450
794.15	39.295
794.46	39.597
794.76	39.536
795.07	39.738
795.37	39.659
795.68	39.693
795.98	39.849
796.29	40.155
796.59	39.974
796.90	39.853
797.20	39.743
797.51	39.752
797.81	39.406
798.12	39.683
798.42	39.593
798.72	39.820
799.03	40.092
799.33	39.964
799.64	39.737
799.94	40.342
800.25	40.261
800.55	40.378
800.85	40.853
801.16	41.022
801.46	40.660
801.77	40.382
802.07	40.059
802.37	39.778
802.68	39.666
802.98	39.625
803.28	39.261
803.59	39.387
803.89	39.202
804.20	38.958
804.50	39.073
804.80	39.286
805.11	39.394
805.41	39.338
805.71	39.606
806.02	39.705
806.32	39.451
806.62	39.563
806.93	39.471
807.23	39.723
807.53	39.688
807.83	39.941
808.14	40.081
808.44	40.062
808.74	40.101
809.05	39.847
809.35	39.731
809.65	40.182
809.95	40.301
810.26	40.385
810.56	40.265
810.86	40.346
811.16	39.999
811.47	40.332
811.77	40.964
812.07	41.060
812.37	41.149
812.68	41.650
812.98	41.583
813.28	41.546
813.58	42.095
813.88	42.158
814.19	42.501
814.49	43.240
814.79	43.304
815.09	43.048
815.39	43.095
815.70	43.174
816.00	42.617
816.30	42.611
816.60	42.352
816.90	41.821
817.20	42.107
817.50	42.457
817.81	42.061
818.11	42.098
818.41	42.364
818.71	42.681
819.01	42.913
819.31	43.378
819.61	43.596
819.92	43.782
820.22	43.988
820.52	44.043
820.82	44.170
821.12	44.395
821.42	44.503
821.72	44.576
822.02	44.665
822.32	44.771
822.62	44.863
822.92	44.890
823.22	45.016
823.52	45.085
823.83	45.166
824.13	45.086
824.43	44.992
824.73	44.992
825.03	45.027
825.33	45.088
825.63	45.055
825.93	44.977
826.23	44.920
826.53	44.882
826.83	44.754
827.13	44.806
827.43	44.658
827.73	44.749
828.03	44.872
828.33	44.890
828.63	44.779
828.93	44.845
829.23	44.662
829.53	44.621
829.83	44.148
830.13	44.003
830.42	43.694
830.72	44.091
831.02	43.852
831.32	43.553
831.62	43.447
831.92	43.472
832.22	43.324
832.52	43.458
832.82	43.537
833.12	43.727
833.42	43.863
833.72	43.926
834.01	43.843
834.31	43.991
834.61	44.178
834.91	44.515
835.21	44.463
835.51	44.492
835.81	43.761
836.11	44.017
836.40	44.122
836.70	44.213
837.00	43.959
837.30	43.693
837.60	44.200
837.90	43.664
838.19	42.882
838.49	43.173
838.79	43.120
839.09	43.872
839.39	43.214
839.68	43.111
839.98	42.382
840.28	42.690
840.58	42.577
840.88	41.365
841.17	41.329
841.47	40.844
841.77	39.593
842.07	39.920
842.36	39.502
842.66	38.807
842.96	37.876
843.26	38.282
843.55	37.591
843.85	38.455
844.15	37.793
844.45	37.095
844.74	37.574
845.04	38.706
845.34	37.971
845.63	37.775
845.93	38.452
846.23	37.869
846.53	38.229
846.82	37.967
847.12	36.397
847.42	38.218
847.71	38.842
848.01	38.899
848.31	36.652
848.60	35.463
848.90	33.912
849.19	33.605
849.49	33.902
849.79	33.063
850.08	33.664
850.38	34.130
850.68	32.850
850.97	33.055
851.27	33.345
851.56	35.570
851.86	35.683
852.16	37.263
852.45	35.732
852.75	36.257
853.04	37.532
853.34	37.491
853.64	36.661
853.93	37.038
854.23	37.095
854.52	37.706
854.82	37.640
855.11	38.835
855.41	38.819
855.70	40.939
856.00	40.900
856.30	39.102
856.59	38.431
856.89	38.097
857.18	38.297
857.48	37.605
857.77	36.876
858.07	36.509
858.36	35.241
858.66	35.191
858.95	35.024
859.25	34.998
859.54	34.952
859.84	35.473
860.13	36.410
860.42	37.606
860.72	37.541
861.01	38.553
861.31	39.383
861.60	39.692
861.90	39.791
862.19	39.057
862.49	38.591
862.78	39.213
863.07	38.901
863.37	38.609
863.66	35.816
863.96	37.608
864.25	35.788
864.54	35.386
864.84	35.665
865.13	35.586
865.43	36.960
865.72	31.900
866.01	43.768
866.31	36.553
866.60	35.181
866.89	48.190
>>>>>End Spectral Data<<<<<
