OOIBase32 Version 2.0.0.6 Data File
++++++++++++++++++++++++++++++++++++
Date: 01-23-2012, 23:07:08
User: Valued Ocean Optics Customer
Spectrometer Serial Number: USB2E2917
Spectrometer Channel: Master
Integration Time (msec): 5
Spectra Averaged: 10
Boxcar Smoothing: 5
Correct for Electrical Dark: Enabled
Time Normalized: Disabled
Dual-beam Reference: Disabled
Reference Channel: Master
Temperature: Not acquired
Spectrometer Type: S2000
ADC Type: USB2000
Number of Pixels in File: 2048
Graph Title: 
>>>>>Begin Spectral Data<<<<<
180.30	0.000
180.67	0.000
181.03	-110.658
181.40	451.013
181.77	-15889.450
182.14	-2.731
182.51	-639.024
182.88	67.419
183.25	30.543
183.62	45.868
183.99	201.143
184.36	5.371
184.73	21.959
185.10	84.817
185.46	466.051
185.83	-380.822
186.20	-15.949
186.57	159.355
186.94	169.425
187.31	31.436
187.68	136.432
188.05	84.800
188.42	131.737
188.78	299.716
189.15	1065.661
189.52	-280.003
189.89	-88.609
190.26	-73.225
190.63	-18.193
191.00	2.183
191.37	0.935
191.73	14.356
192.10	10.035
192.47	18.809
192.84	20.887
193.21	26.647
193.58	18.961
193.94	6.035
194.31	12.725
194.68	8.605
195.05	3.767
195.42	17.450
195.79	6.326
196.15	11.054
196.52	0.540
196.89	-8.223
197.26	-33.647
197.63	-11.277
198.00	23.096
198.36	13.305
198.73	-0.743
199.10	-14.442
199.47	-34.258
199.84	-34.462
200.20	-22.119
200.57	-9.074
200.94	-4.781
201.31	12.355
201.68	5.524
202.04	-7.223
202.41	-13.714
202.78	-22.007
203.15	-0.554
203.51	5.990
203.88	-8.550
204.25	-13.724
204.62	-41.295
204.98	-51.593
205.35	-75.635
205.72	-84.567
206.09	-67.695
206.46	-119.213
206.82	-97.035
207.19	-115.397
207.56	-191.865
207.92	-161.710
208.29	-189.586
208.66	-109.433
209.03	-84.461
209.39	-39.275
209.76	-39.615
210.13	-74.347
210.50	-37.203
210.86	-15.280
211.23	-8.579
211.60	11.357
211.96	17.387
212.33	14.725
212.70	-5.411
213.07	-10.850
213.43	-55.217
213.80	-64.048
214.17	-35.923
214.53	-29.475
214.90	-29.868
215.27	-25.433
215.63	-32.898
216.00	-23.640
216.37	-11.812
216.74	-16.638
217.10	-7.206
217.47	-6.397
217.84	6.344
218.20	6.412
218.57	10.937
218.94	13.827
219.30	11.479
219.67	4.559
220.04	0.176
220.40	-5.686
220.77	-6.523
221.13	-11.410
221.50	-7.431
221.87	-12.326
222.23	-18.091
222.60	-30.813
222.97	-35.991
223.33	-31.014
223.70	-19.080
224.07	-17.841
224.43	-18.842
224.80	-14.886
225.16	-13.755
225.53	-12.254
225.90	-10.570
226.26	-8.295
226.63	-3.949
226.99	-2.983
227.36	-2.806
227.73	-2.027
228.09	-2.353
228.46	0.382
228.82	2.271
229.19	2.417
229.56	2.884
229.92	3.119
230.29	2.948
230.65	1.494
231.02	1.615
231.38	0.761
231.75	-0.972
232.12	-3.363
232.48	-6.675
232.85	-9.810
233.21	-10.658
233.58	-11.193
233.94	-10.358
234.31	-10.312
234.68	-9.398
235.04	-10.053
235.41	-8.968
235.77	-6.864
236.14	-4.645
236.50	-2.113
236.87	-1.352
237.23	-0.334
237.60	-0.685
237.96	-1.314
238.33	-1.355
238.69	-1.556
239.06	-1.095
239.42	-0.971
239.79	-2.087
240.15	-2.131
240.52	-2.027
240.88	-1.950
241.25	-2.003
241.61	-1.577
241.98	-1.062
242.34	-0.721
242.71	-0.219
243.07	0.146
243.44	0.251
243.80	0.650
244.17	1.064
244.53	0.860
244.90	0.857
245.26	0.859
245.63	0.727
245.99	0.576
246.36	0.339
246.72	0.172
247.09	-0.173
247.45	-0.111
247.81	0.152
248.18	-0.389
248.54	-0.133
248.91	-0.414
249.27	-0.363
249.64	-0.147
250.00	0.242
250.36	0.480
250.73	0.374
251.09	0.735
251.46	1.029
251.82	0.581
252.19	0.883
252.55	0.606
252.91	1.049
253.28	1.018
253.64	0.802
254.01	0.123
254.37	0.306
254.73	0.845
255.10	0.999
255.46	1.119
255.83	1.213
256.19	1.269
256.55	1.217
256.92	1.318
257.28	1.219
257.65	1.458
258.01	1.547
258.37	1.571
258.74	1.353
259.10	0.974
259.46	0.635
259.83	0.426
260.19	0.321
260.55	0.386
260.92	0.320
261.28	0.320
261.64	0.474
262.01	0.420
262.37	0.618
262.73	0.882
263.10	1.459
263.46	1.629
263.82	1.704
264.19	1.716
264.55	1.279
264.91	0.982
265.28	0.775
265.64	0.337
266.00	0.355
266.37	-0.103
266.73	-0.274
267.09	-0.141
267.46	0.169
267.82	0.212
268.18	0.493
268.54	0.824
268.91	0.881
269.27	1.053
269.63	1.523
270.00	1.464
270.36	1.675
270.72	1.811
271.08	1.547
271.45	1.261
271.81	1.264
272.17	0.955
272.53	0.832
272.90	1.007
273.26	1.112
273.62	0.605
273.98	0.502
274.35	0.350
274.71	0.350
275.07	0.511
275.43	0.807
275.80	0.929
276.16	1.078
276.52	0.972
276.88	0.824
277.25	0.518
277.61	0.471
277.97	0.343
278.33	0.334
278.69	-0.027
279.06	-0.125
279.42	-0.235
279.78	-0.233
280.14	-0.224
280.50	0.048
280.87	0.060
281.23	0.248
281.59	0.322
281.95	0.595
282.31	0.805
282.68	0.917
283.04	0.934
283.40	0.927
283.76	1.029
284.12	1.238
284.48	1.248
284.85	1.323
285.21	1.258
285.57	1.273
285.93	1.204
286.29	1.017
286.65	1.158
287.02	1.462
287.38	1.378
287.74	1.313
288.10	1.100
288.46	1.062
288.82	0.962
289.18	1.086
289.54	1.011
289.91	1.039
290.27	1.247
290.63	1.295
290.99	1.168
291.35	1.399
291.71	1.511
292.07	1.484
292.43	1.400
292.79	1.462
293.16	1.375
293.52	1.649
293.88	1.757
294.24	1.543
294.60	1.342
294.96	1.222
295.32	1.112
295.68	1.062
296.04	1.104
296.40	1.218
296.76	1.345
297.12	1.376
297.49	1.088
297.85	0.807
298.21	0.745
298.57	0.702
298.93	0.697
299.29	0.640
299.65	0.600
300.01	0.689
300.37	0.630
300.73	0.657
301.09	0.625
301.45	0.880
301.81	1.063
302.17	1.318
302.53	1.265
302.89	1.294
303.25	1.311
303.61	1.308
303.97	1.224
304.33	1.201
304.69	1.151
305.05	1.068
305.41	0.923
305.77	1.115
306.13	1.044
306.49	1.150
306.85	1.176
307.21	1.318
307.57	1.332
307.93	1.297
308.29	1.388
308.65	1.305
309.01	1.394
309.37	1.361
309.73	1.139
310.09	1.176
310.45	1.254
310.81	1.280
311.17	1.113
311.53	1.144
311.89	1.153
312.25	0.951
312.61	0.956
312.96	0.991
313.32	1.055
313.68	1.135
314.04	1.038
314.40	1.029
314.76	0.849
315.12	0.806
315.48	0.809
315.84	0.824
316.20	0.927
316.56	0.930
316.92	0.802
317.27	0.721
317.63	0.693
317.99	0.614
318.35	0.549
318.71	0.607
319.07	0.756
319.43	0.691
319.79	0.748
320.15	0.829
320.50	0.865
320.86	0.961
321.22	1.064
321.58	1.086
321.94	1.142
322.30	1.166
322.66	1.157
323.01	1.092
323.37	1.009
323.73	0.908
324.09	0.699
324.45	0.762
324.81	0.657
325.17	0.585
325.52	0.549
325.88	0.515
326.24	0.507
326.60	0.496
326.96	0.414
327.31	0.473
327.67	0.492
328.03	0.645
328.39	0.508
328.75	0.597
329.11	0.612
329.46	0.779
329.82	0.835
330.18	0.781
330.54	0.831
330.90	0.932
331.25	0.937
331.61	0.980
331.97	0.993
332.33	1.123
332.68	1.119
333.04	1.198
333.40	0.996
333.76	0.996
334.11	0.974
334.47	1.036
334.83	0.984
335.19	0.934
335.54	0.930
335.90	0.846
336.26	0.723
336.62	0.704
336.97	0.613
337.33	0.608
337.69	0.547
338.05	0.512
338.40	0.397
338.76	0.487
339.12	0.529
339.48	0.417
339.83	0.445
340.19	0.491
340.55	0.566
340.90	0.575
341.26	0.609
341.62	0.618
341.97	0.688
342.33	0.749
342.69	0.693
343.04	0.610
343.40	0.573
343.76	0.540
344.12	0.503
344.47	0.471
344.83	0.533
345.19	0.577
345.54	0.689
345.90	0.686
346.26	0.750
346.61	0.794
346.97	0.888
347.32	1.034
347.68	1.090
348.04	1.066
348.39	1.023
348.75	1.001
349.11	0.934
349.46	0.899
349.82	0.877
350.18	0.715
350.53	0.662
350.89	0.674
351.24	0.596
351.60	0.585
351.96	0.645
352.31	0.639
352.67	0.651
353.02	0.672
353.38	0.614
353.74	0.664
354.09	0.734
354.45	0.754
354.80	0.788
355.16	0.851
355.52	0.861
355.87	0.811
356.23	0.872
356.58	0.875
356.94	0.920
357.29	0.996
357.65	1.005
358.00	0.946
358.36	0.948
358.72	0.913
359.07	0.905
359.43	0.921
359.78	0.928
360.14	0.903
360.49	0.858
360.85	0.884
361.20	0.780
361.56	0.744
361.91	0.814
362.27	0.819
362.62	0.836
362.98	0.861
363.33	0.838
363.69	0.855
364.04	0.884
364.40	0.906
364.75	0.848
365.11	0.894
365.46	0.911
365.82	0.949
366.17	0.944
366.53	0.935
366.88	0.925
367.24	0.937
367.59	0.955
367.95	0.994
368.30	1.007
368.66	1.056
369.01	1.025
369.37	1.076
369.72	1.069
370.08	1.159
370.43	1.176
370.78	1.216
371.14	1.222
371.49	1.283
371.85	1.235
372.20	1.284
372.56	1.273
372.91	1.328
373.26	1.306
373.62	1.275
373.97	1.207
374.33	1.219
374.68	1.233
375.03	1.319
375.39	1.302
375.74	1.338
376.10	1.357
376.45	1.419
376.80	1.477
377.16	1.505
377.51	1.581
377.87	1.674
378.22	1.684
378.57	1.684
378.93	1.674
379.28	1.756
379.63	1.780
379.99	1.812
380.34	1.864
380.70	1.898
381.05	1.967
381.40	1.972
381.76	2.033
382.11	2.080
382.46	2.168
382.82	2.207
383.17	2.206
383.52	2.263
383.88	2.278
384.23	2.288
384.58	2.286
384.94	2.293
385.29	2.357
385.64	2.356
385.99	2.431
386.35	2.452
386.70	2.487
387.05	2.492
387.41	2.523
387.76	2.542
388.11	2.567
388.47	2.586
388.82	2.645
389.17	2.672
389.52	2.688
389.88	2.696
390.23	2.690
390.58	2.744
390.93	2.789
391.29	2.832
391.64	2.902
391.99	2.953
392.34	3.031
392.70	3.043
393.05	3.021
393.40	3.029
393.75	3.037
394.11	3.090
394.46	3.074
394.81	3.113
395.16	3.099
395.52	3.072
395.87	3.063
396.22	3.111
396.57	3.094
396.92	3.119
397.28	3.146
397.63	3.146
397.98	3.116
398.33	3.113
398.68	3.070
399.04	3.082
399.39	3.091
399.74	3.101
400.09	3.042
400.44	3.077
400.80	3.095
401.15	3.050
401.50	3.075
401.85	3.111
402.20	3.108
402.55	3.146
402.90	3.138
403.26	3.152
403.61	3.126
403.96	3.140
404.31	3.135
404.66	3.139
405.01	3.186
405.36	3.193
405.72	3.169
406.07	3.174
406.42	3.133
406.77	3.131
407.12	3.132
407.47	3.181
407.82	3.168
408.17	3.181
408.53	3.185
408.88	3.161
409.23	3.139
409.58	3.142
409.93	3.185
410.28	3.232
410.63	3.233
410.98	3.214
411.33	3.164
411.68	3.206
412.03	3.212
412.38	3.188
412.73	3.234
413.09	3.254
413.44	3.258
413.79	3.253
414.14	3.256
414.49	3.275
414.84	3.300
415.19	3.345
415.54	3.350
415.89	3.348
416.24	3.387
416.59	3.385
416.94	3.398
417.29	3.440
417.64	3.446
417.99	3.475
418.34	3.490
418.69	3.504
419.04	3.495
419.39	3.495
419.74	3.500
420.09	3.512
420.44	3.516
420.79	3.523
421.14	3.503
421.49	3.508
421.84	3.492
422.19	3.500
422.54	3.497
422.89	3.492
423.24	3.499
423.59	3.490
423.94	3.448
424.29	3.437
424.64	3.435
424.99	3.423
425.34	3.379
425.68	3.365
426.03	3.326
426.38	3.309
426.73	3.303
427.08	3.274
427.43	3.287
427.78	3.341
428.13	3.329
428.48	3.336
428.83	3.332
429.18	3.360
429.53	3.369
429.87	3.364
430.22	3.369
430.57	3.378
430.92	3.377
431.27	3.371
431.62	3.336
431.97	3.345
432.32	3.312
432.67	3.313
433.01	3.312
433.36	3.292
433.71	3.294
434.06	3.276
434.41	3.272
434.76	3.298
435.11	3.300
435.45	3.325
435.80	3.332
436.15	3.349
436.50	3.366
436.85	3.388
437.20	3.395
437.54	3.403
437.89	3.426
438.24	3.436
438.59	3.433
438.94	3.448
439.29	3.431
439.63	3.444
439.98	3.447
440.33	3.441
440.68	3.448
441.03	3.479
441.37	3.489
441.72	3.490
442.07	3.509
442.42	3.527
442.76	3.535
443.11	3.559
443.46	3.573
443.81	3.593
444.16	3.616
444.50	3.608
444.85	3.601
445.20	3.611
445.55	3.622
445.89	3.609
446.24	3.605
446.59	3.597
446.94	3.598
447.28	3.581
447.63	3.572
447.98	3.571
448.32	3.586
448.67	3.583
449.02	3.568
449.37	3.549
449.71	3.565
450.06	3.572
450.41	3.588
450.75	3.592
451.10	3.598
451.45	3.592
451.79	3.583
452.14	3.568
452.49	3.579
452.84	3.592
453.18	3.595
453.53	3.584
453.88	3.578
454.22	3.577
454.57	3.588
454.92	3.603
455.26	3.630
455.61	3.668
455.95	3.697
456.30	3.715
456.65	3.747
456.99	3.783
457.34	3.808
457.69	3.822
458.03	3.823
458.38	3.829
458.73	3.830
459.07	3.829
459.42	3.800
459.76	3.771
460.11	3.737
460.46	3.698
460.80	3.666
461.15	3.643
461.49	3.609
461.84	3.613
462.19	3.608
462.53	3.601
462.88	3.597
463.22	3.606
463.57	3.620
463.91	3.636
464.26	3.653
464.61	3.647
464.95	3.620
465.30	3.631
465.64	3.619
465.99	3.625
466.33	3.630
466.68	3.625
467.02	3.618
467.37	3.599
467.71	3.595
468.06	3.593
468.41	3.592
468.75	3.615
469.10	3.601
469.44	3.582
469.79	3.526
470.13	3.497
470.48	3.476
470.82	3.460
471.17	3.473
471.51	3.463
471.86	3.446
472.20	3.441
472.55	3.437
472.89	3.463
473.23	3.469
473.58	3.494
473.92	3.509
474.27	3.495
474.61	3.494
474.96	3.494
475.30	3.503
475.65	3.499
475.99	3.500
476.34	3.489
476.68	3.460
477.02	3.466
477.37	3.464
477.71	3.500
478.06	3.551
478.40	3.625
478.75	3.705
479.09	3.811
479.43	3.926
479.78	4.042
480.12	4.158
480.47	4.283
480.81	4.403
481.15	4.513
481.50	4.616
481.84	4.740
482.19	4.856
482.53	4.948
482.87	5.004
483.22	5.004
483.56	4.957
483.90	4.882
484.25	4.781
484.59	4.664
484.94	4.569
485.28	4.470
485.62	4.363
485.97	4.245
486.31	4.156
486.65	4.086
487.00	4.058
487.34	4.063
487.68	4.083
488.03	4.121
488.37	4.166
488.71	4.190
489.06	4.196
489.40	4.190
489.74	4.179
490.09	4.165
490.43	4.150
490.77	4.136
491.11	4.121
491.46	4.114
491.80	4.092
492.14	4.072
492.49	4.064
492.83	4.048
493.17	4.028
493.51	4.036
493.86	4.020
494.20	4.011
494.54	4.014
494.88	4.034
495.23	4.048
495.57	4.085
495.91	4.119
496.25	4.152
496.60	4.185
496.94	4.205
497.28	4.219
497.62	4.255
497.97	4.297
498.31	4.335
498.65	4.341
498.99	4.367
499.33	4.406
499.68	4.440
500.02	4.472
500.36	4.509
500.70	4.559
501.04	4.594
501.39	4.620
501.73	4.668
502.07	4.722
502.41	4.797
502.75	4.873
503.09	4.917
503.44	4.975
503.78	5.009
504.12	5.058
504.46	5.124
504.80	5.188
505.14	5.292
505.49	5.360
505.83	5.416
506.17	5.484
506.51	5.550
506.85	5.622
507.19	5.691
507.53	5.771
507.87	5.856
508.22	5.928
508.56	5.996
508.90	6.048
509.24	6.107
509.58	6.183
509.92	6.264
510.26	6.333
510.60	6.413
510.94	6.488
511.28	6.574
511.63	6.639
511.97	6.726
512.31	6.825
512.65	6.901
512.99	6.998
513.33	7.121
513.67	7.230
514.01	7.381
514.35	7.514
514.69	7.637
515.03	7.737
515.37	7.883
515.71	8.006
516.05	8.111
516.39	8.214
516.73	8.331
517.07	8.404
517.41	8.482
517.75	8.525
518.09	8.579
518.43	8.633
518.77	8.698
519.11	8.741
519.45	8.783
519.79	8.871
520.13	8.938
520.47	9.011
520.81	9.110
521.15	9.221
521.49	9.335
521.83	9.447
522.17	9.551
522.51	9.695
522.85	9.840
523.19	10.010
523.53	10.180
523.87	10.395
524.21	10.582
524.55	10.751
524.89	10.903
525.23	11.050
525.57	11.189
525.91	11.328
526.25	11.438
526.58	11.540
526.92	11.616
527.26	11.668
527.60	11.681
527.94	11.697
528.28	11.709
528.62	11.706
528.96	11.698
529.30	11.685
529.64	11.667
529.97	11.651
530.31	11.631
530.65	11.621
530.99	11.628
531.33	11.663
531.67	11.680
532.01	11.703
532.35	11.712
532.68	11.737
533.02	11.744
533.36	11.746
533.70	11.737
534.04	11.731
534.38	11.729
534.71	11.712
535.05	11.700
535.39	11.702
535.73	11.686
536.07	11.717
536.41	11.723
536.74	11.747
537.08	11.795
537.42	11.857
537.76	11.916
538.10	11.973
538.43	12.024
538.77	12.087
539.11	12.128
539.45	12.189
539.79	12.238
540.12	12.275
540.46	12.293
540.80	12.290
541.14	12.283
541.47	12.251
541.81	12.227
542.15	12.217
542.49	12.181
542.82	12.146
543.16	12.116
543.50	12.070
543.84	12.035
544.17	12.004
544.51	11.997
544.85	11.981
545.18	11.993
545.52	11.982
545.86	11.958
546.20	11.953
546.53	11.938
546.87	11.902
547.21	11.888
547.54	11.854
547.88	11.861
548.22	11.827
548.55	11.825
548.89	11.807
549.23	11.791
549.56	11.807
549.90	11.818
550.24	11.841
550.57	11.851
550.91	11.845
551.25	11.875
551.58	11.857
551.92	11.873
552.26	11.850
552.59	11.860
552.93	11.879
553.27	11.855
553.60	11.819
553.94	11.786
554.27	11.764
554.61	11.751
554.95	11.710
555.28	11.715
555.62	11.682
555.95	11.680
556.29	11.660
556.63	11.638
556.96	11.622
557.30	11.591
557.63	11.564
557.97	11.535
558.31	11.489
558.64	11.476
558.98	11.435
559.31	11.432
559.65	11.386
559.98	11.347
560.32	11.321
560.65	11.292
560.99	11.262
561.33	11.246
561.66	11.206
562.00	11.188
562.33	11.157
562.67	11.135
563.00	11.080
563.34	11.058
563.67	11.027
564.01	10.952
564.34	10.905
564.68	10.881
565.01	10.836
565.35	10.825
565.68	10.789
566.02	10.725
566.35	10.661
566.69	10.611
567.02	10.557
567.36	10.508
567.69	10.463
568.03	10.431
568.36	10.361
568.69	10.282
569.03	10.206
569.36	10.154
569.70	10.114
570.03	10.083
570.37	10.040
570.70	10.006
571.04	9.964
571.37	9.927
571.70	9.873
572.04	9.848
572.37	9.819
572.71	9.772
573.04	9.733
573.37	9.706
573.71	9.650
574.04	9.610
574.38	9.550
574.71	9.502
575.04	9.460
575.38	9.413
575.71	9.347
576.05	9.303
576.38	9.266
576.71	9.192
577.05	9.114
577.38	9.065
577.71	9.010
578.05	8.954
578.38	8.898
578.71	8.844
579.05	8.782
579.38	8.743
579.71	8.700
580.05	8.628
580.38	8.600
580.71	8.564
581.05	8.533
581.38	8.480
581.71	8.449
582.05	8.407
582.38	8.384
582.71	8.339
583.04	8.326
583.38	8.279
583.71	8.267
584.04	8.258
584.38	8.247
584.71	8.232
585.04	8.236
585.37	8.244
585.71	8.252
586.04	8.252
586.37	8.279
586.70	8.266
587.04	8.284
587.37	8.290
587.70	8.285
588.03	8.293
588.37	8.292
588.70	8.255
589.03	8.211
589.36	8.217
589.69	8.164
590.03	8.142
590.36	8.100
590.69	8.064
591.02	8.025
591.35	7.987
591.69	7.959
592.02	7.944
592.35	7.947
592.68	7.965
593.01	7.905
593.35	7.920
593.68	7.920
594.01	7.923
594.34	7.903
594.67	7.919
595.00	7.911
595.34	7.876
595.67	7.822
596.00	7.803
596.33	7.747
596.66	7.723
596.99	7.668
597.32	7.598
597.65	7.552
597.99	7.510
598.32	7.432
598.65	7.352
598.98	7.316
599.31	7.299
599.64	7.291
599.97	7.264
600.30	7.262
600.63	7.260
600.96	7.268
601.30	7.279
601.63	7.315
601.96	7.341
602.29	7.360
602.62	7.351
602.95	7.341
603.28	7.310
603.61	7.295
603.94	7.268
604.27	7.273
604.60	7.228
604.93	7.198
605.26	7.137
605.59	7.096
605.92	7.076
606.25	7.061
606.58	7.046
606.91	7.008
607.24	6.979
607.57	6.928
607.90	6.888
608.23	6.857
608.56	6.821
608.89	6.786
609.22	6.755
609.55	6.698
609.88	6.650
610.21	6.594
610.54	6.522
610.87	6.471
611.20	6.451
611.53	6.383
611.86	6.354
612.19	6.276
612.52	6.229
612.85	6.181
613.18	6.153
613.51	6.072
613.84	6.010
614.17	5.987
614.49	5.976
614.82	5.899
615.15	5.863
615.48	5.807
615.81	5.791
616.14	5.782
616.47	5.746
616.80	5.707
617.13	5.685
617.46	5.662
617.78	5.639
618.11	5.600
618.44	5.609
618.77	5.586
619.10	5.579
619.43	5.560
619.76	5.502
620.09	5.508
620.41	5.507
620.74	5.543
621.07	5.574
621.40	5.604
621.73	5.599
622.06	5.619
622.38	5.627
622.71	5.653
623.04	5.684
623.37	5.759
623.70	5.724
624.02	5.752
624.35	5.766
624.68	5.758
625.01	5.753
625.34	5.766
625.66	5.780
625.99	5.808
626.32	5.814
626.65	5.811
626.98	5.772
627.30	5.790
627.63	5.745
627.96	5.685
628.29	5.641
628.61	5.623
628.94	5.588
629.27	5.521
629.60	5.439
629.92	5.417
630.25	5.356
630.58	5.315
630.91	5.277
631.23	5.232
631.56	5.235
631.89	5.223
632.21	5.175
632.54	5.150
632.87	5.149
633.19	5.130
633.52	5.062
633.85	5.051
634.18	5.008
634.50	4.944
634.83	4.912
635.16	4.833
635.48	4.742
635.81	4.686
636.14	4.591
636.46	4.493
636.79	4.422
637.11	4.330
637.44	4.202
637.77	4.144
638.09	4.096
638.42	3.991
638.75	3.938
639.07	3.899
639.40	3.850
639.73	3.834
640.05	3.801
640.38	3.813
640.70	3.807
641.03	3.788
641.36	3.723
641.68	3.661
642.01	3.667
642.33	3.614
642.66	3.612
642.98	3.519
643.31	3.467
643.64	3.441
643.96	3.383
644.29	3.353
644.61	3.362
644.94	3.380
645.26	3.417
645.59	3.438
645.91	3.454
646.24	3.428
646.56	3.486
646.89	3.486
647.22	3.480
647.54	3.490
647.87	3.486
648.19	3.476
648.52	3.458
648.84	3.446
649.17	3.391
649.49	3.400
649.82	3.397
650.14	3.391
650.47	3.403
650.79	3.407
651.11	3.378
651.44	3.361
651.76	3.350
652.09	3.367
652.41	3.373
652.74	3.407
653.06	3.423
653.39	3.441
653.71	3.446
654.04	3.409
654.36	3.412
654.68	3.442
655.01	3.527
655.33	3.560
655.66	3.548
655.98	3.535
656.30	3.534
656.63	3.533
656.95	3.550
657.28	3.544
657.60	3.579
657.92	3.587
658.25	3.544
658.57	3.490
658.90	3.484
659.22	3.453
659.54	3.424
659.87	3.357
660.19	3.306
660.51	3.254
660.84	3.222
661.16	3.168
661.48	3.134
661.81	3.133
662.13	3.108
662.45	3.074
662.78	3.123
663.10	3.168
663.42	3.245
663.75	3.285
664.07	3.338
664.39	3.358
664.72	3.413
665.04	3.451
665.36	3.554
665.69	3.610
666.01	3.655
666.33	3.683
666.65	3.709
666.98	3.836
667.30	3.951
667.62	3.968
667.94	4.084
668.27	4.211
668.59	4.307
668.91	4.417
669.23	4.543
669.56	4.701
669.88	4.839
670.20	4.979
670.52	5.090
670.85	5.166
671.17	5.353
671.49	5.446
671.81	5.580
672.13	5.728
672.46	5.847
672.78	5.965
673.10	6.109
673.42	6.278
673.74	6.461
674.07	6.603
674.39	6.755
674.71	6.867
675.03	7.109
675.35	7.261
675.67	7.448
676.00	7.582
676.32	7.726
676.64	7.836
676.96	7.951
677.28	8.100
677.60	8.203
677.92	8.369
678.25	8.554
678.57	8.685
678.89	8.812
679.21	8.950
679.53	9.161
679.85	9.325
680.17	9.544
680.49	9.699
680.81	9.897
681.13	10.094
681.46	10.311
681.78	10.516
682.10	10.707
682.42	10.866
682.74	11.027
683.06	11.170
683.38	11.382
683.70	11.523
684.02	11.705
684.34	11.833
684.66	12.009
684.98	12.129
685.30	12.252
685.62	12.374
685.94	12.549
686.26	12.639
686.58	12.719
686.90	12.759
687.22	12.786
687.54	12.819
687.86	12.850
688.18	12.844
688.50	12.946
688.82	13.009
689.14	13.058
689.46	13.085
689.78	13.182
690.10	13.293
690.42	13.448
690.74	13.605
691.06	13.821
691.38	14.024
691.70	14.187
692.02	14.215
692.34	14.351
692.66	14.505
692.98	14.676
693.30	14.825
693.62	14.905
693.94	14.951
694.26	15.027
694.57	15.035
694.89	15.088
695.21	15.196
695.53	15.349
695.85	15.372
696.17	15.441
696.49	15.561
696.81	15.664
697.13	15.772
697.44	15.952
697.76	16.123
698.08	16.306
698.40	16.475
698.72	16.634
699.04	16.781
699.36	17.087
699.67	17.295
699.99	17.505
700.31	17.781
700.63	18.073
700.95	18.291
701.27	18.573
701.58	18.827
701.90	19.113
702.22	19.437
702.54	19.710
702.86	19.876
703.17	20.118
703.49	20.304
703.81	20.494
704.13	20.643
704.45	20.858
704.76	21.047
705.08	21.294
705.40	21.382
705.72	21.548
706.03	21.730
706.35	21.969
706.67	22.173
706.99	22.375
707.30	22.584
707.62	22.806
707.94	23.055
708.26	23.276
708.57	23.461
708.89	23.779
709.21	24.052
709.53	24.285
709.84	24.497
710.16	24.719
710.48	24.997
710.79	25.200
711.11	25.484
711.43	25.692
711.74	25.920
712.06	26.171
712.38	26.411
712.69	26.616
713.01	26.919
713.33	27.222
713.64	27.576
713.96	27.892
714.28	28.236
714.59	28.523
714.91	28.888
715.23	29.201
715.54	29.462
715.86	29.849
716.17	30.141
716.49	30.498
716.81	30.823
717.12	31.098
717.44	31.390
717.76	31.797
718.07	32.094
718.39	32.266
718.70	32.549
719.02	32.814
719.33	33.025
719.65	33.292
719.97	33.492
720.28	33.836
720.60	34.158
720.91	34.425
721.23	34.646
721.54	35.054
721.86	35.413
722.17	35.633
722.49	36.111
722.81	36.288
723.12	36.636
723.44	36.989
723.75	37.116
724.07	37.283
724.38	37.503
724.70	37.784
725.01	37.894
725.33	38.155
725.64	38.378
725.96	38.391
726.27	38.490
726.59	38.659
726.90	38.830
727.22	38.846
727.53	39.099
727.84	39.243
728.16	39.251
728.47	39.331
728.79	39.513
729.10	39.679
729.42	39.911
729.73	40.229
730.05	40.389
730.36	40.527
730.67	40.810
730.99	40.855
731.30	41.043
731.62	41.297
731.93	41.568
732.24	41.690
732.56	41.954
732.87	42.278
733.19	42.412
733.50	42.506
733.81	42.655
734.13	42.926
734.44	43.230
734.76	43.379
735.07	43.604
735.38	43.734
735.70	44.011
736.01	44.278
736.32	44.264
736.64	44.650
736.95	44.760
737.26	44.798
737.58	44.858
737.89	45.049
738.20	45.162
738.52	45.187
738.83	45.338
739.14	45.329
739.45	45.335
739.77	45.434
740.08	45.268
740.39	45.431
740.71	45.614
741.02	45.705
741.33	45.667
741.64	45.819
741.96	45.972
742.27	45.989
742.58	46.221
742.90	46.388
743.21	46.607
743.52	46.790
743.83	47.020
744.14	47.008
744.46	47.212
744.77	47.322
745.08	47.319
745.39	47.405
745.71	47.421
746.02	47.350
746.33	47.180
746.64	47.109
746.95	47.054
747.27	46.958
747.58	46.954
747.89	46.898
748.20	46.812
748.51	47.028
748.82	46.811
749.14	46.882
749.45	46.695
749.76	46.881
750.07	47.017
750.38	46.952
750.69	46.990
751.01	46.995
751.32	46.971
751.63	47.210
751.94	46.867
752.25	46.916
752.56	46.822
752.87	46.905
753.18	46.655
753.49	46.594
753.81	46.637
754.12	46.671
754.43	46.809
754.74	46.736
755.05	46.593
755.36	46.821
755.67	47.076
755.98	47.373
756.29	47.451
756.60	47.624
756.91	47.571
757.22	47.722
757.53	47.711
757.84	47.900
758.15	48.201
758.46	48.523
758.77	48.581
759.09	48.514
759.40	48.301
759.71	48.271
760.02	48.235
760.33	48.323
760.64	48.187
760.95	48.259
761.26	48.037
761.57	47.848
761.88	47.567
762.18	47.534
762.49	47.455
762.80	47.504
763.11	47.498
763.42	47.283
763.73	47.156
764.04	47.122
764.35	46.988
764.66	46.928
764.97	46.843
765.28	46.758
765.59	46.569
765.90	46.320
766.21	46.019
766.52	45.762
766.83	45.748
767.14	45.625
767.44	45.361
767.75	45.173
768.06	44.976
768.37	44.536
768.68	44.532
768.99	44.373
769.30	44.405
769.61	44.456
769.91	44.475
770.22	44.225
770.53	44.043
770.84	43.909
771.15	43.918
771.46	43.891
771.77	44.154
772.07	44.082
772.38	44.036
772.69	43.810
773.00	43.714
773.31	43.543
773.61	43.690
773.92	43.609
774.23	43.638
774.54	43.438
774.85	43.433
775.15	43.229
775.46	43.113
775.77	43.038
776.08	43.002
776.39	42.804
776.69	42.806
777.00	42.754
777.31	42.847
777.62	42.931
777.92	42.783
778.23	42.858
778.54	43.129
778.85	43.090
779.15	43.096
779.46	43.268
779.77	43.278
780.07	43.406
780.38	43.438
780.69	43.181
781.00	43.035
781.30	43.050
781.61	42.843
781.92	42.769
782.22	42.719
782.53	42.467
782.84	42.330
783.14	42.489
783.45	42.197
783.76	42.227
784.06	42.408
784.37	42.726
784.68	42.724
784.98	42.877
785.29	42.863
785.60	42.928
785.90	43.274
786.21	43.517
786.51	43.551
786.82	44.016
787.13	44.233
787.43	44.297
787.74	44.290
788.04	44.722
788.35	44.818
788.66	44.784
788.96	44.972
789.27	45.107
789.57	44.960
789.88	44.735
790.19	44.593
790.49	44.511
790.80	44.479
791.10	44.437
791.41	44.090
791.71	44.151
792.02	43.946
792.32	43.600
792.63	43.336
792.93	43.293
793.24	43.572
793.54	43.451
793.85	43.344
794.15	43.286
794.46	43.237
794.76	43.277
795.07	43.204
795.37	43.452
795.68	43.604
795.98	43.771
796.29	43.980
796.59	43.832
796.90	43.660
797.20	43.772
797.51	43.610
797.81	43.332
798.12	43.552
798.42	43.605
798.72	43.547
799.03	43.777
799.33	43.593
799.64	43.428
799.94	43.525
800.25	43.677
800.55	43.415
800.85	43.640
801.16	44.043
801.46	43.754
801.77	43.439
802.07	43.647
802.37	43.505
802.68	43.489
802.98	43.544
803.28	43.812
803.59	44.135
803.89	44.564
804.20	44.896
804.50	44.767
804.80	44.827
805.11	44.928
805.41	44.809
805.71	44.622
806.02	44.765
806.32	44.957
806.62	44.835
806.93	44.606
807.23	44.427
807.53	44.440
807.83	44.370
808.14	44.621
808.44	44.845
808.74	44.958
809.05	44.789
809.35	44.910
809.65	45.241
809.95	45.303
810.26	45.205
810.56	45.292
810.86	45.099
811.16	45.681
811.47	45.923
811.77	46.125
812.07	46.362
812.37	46.688
812.68	46.694
812.98	46.569
813.28	46.254
813.58	47.088
813.88	46.821
814.19	47.041
814.49	47.143
814.79	46.883
815.09	46.742
815.39	46.798
815.70	47.220
816.00	47.484
816.30	47.293
816.60	47.769
816.90	47.212
817.20	47.752
817.50	47.806
817.81	47.351
818.11	47.491
818.41	47.609
818.71	47.436
819.01	47.579
819.31	47.774
819.61	48.076
819.92	48.311
820.22	48.578
820.52	48.755
820.82	49.050
821.12	49.418
821.42	49.590
821.72	49.810
822.02	50.218
822.32	50.495
822.62	50.719
822.92	50.859
823.22	51.090
823.52	51.233
823.83	51.333
824.13	51.342
824.43	51.194
824.73	51.221
825.03	51.095
825.33	51.008
825.63	50.914
825.93	50.787
826.23	50.649
826.53	50.333
826.83	50.268
827.13	50.369
827.43	50.238
827.73	50.631
828.03	50.859
828.33	51.128
828.63	51.167
828.93	50.924
829.23	50.774
829.53	50.804
829.83	50.585
830.13	50.404
830.42	49.926
830.72	49.865
831.02	49.571
831.32	49.184
831.62	48.980
831.92	48.801
832.22	49.041
832.52	49.105
832.82	49.059
833.12	49.261
833.42	49.269
833.72	49.346
834.01	49.580
834.31	49.650
834.61	49.936
834.91	50.328
835.21	50.382
835.51	50.247
835.81	50.381
836.11	50.413
836.40	50.539
836.70	50.993
837.00	51.485
837.30	50.944
837.60	50.877
837.90	50.695
838.19	50.074
838.49	50.000
838.79	49.860
839.09	50.168
839.39	50.406
839.68	49.760
839.98	48.456
840.28	47.642
840.58	48.096
840.88	48.312
841.17	48.281
841.47	48.838
841.77	49.165
842.07	48.690
842.36	47.319
842.66	46.416
842.96	46.009
843.26	46.659
843.55	46.546
843.85	45.783
844.15	44.072
844.45	43.043
844.74	42.637
845.04	41.937
845.34	43.212
845.63	42.864
845.93	44.001
846.23	45.494
846.53	45.136
846.82	44.120
847.12	44.106
847.42	43.848
847.71	43.604
848.01	42.246
848.31	42.046
848.60	40.300
848.90	41.030
849.19	40.231
849.49	40.550
849.79	42.053
850.08	42.746
850.38	42.948
850.68	43.722
850.97	45.235
851.27	46.404
851.56	46.342
851.86	47.052
852.16	47.488
852.45	48.132
852.75	47.256
853.04	47.433
853.34	46.049
853.64	45.509
853.93	44.635
854.23	43.561
854.52	42.966
854.82	43.794
855.11	43.066
855.41	42.773
855.70	42.945
856.00	42.591
856.30	43.154
856.59	45.480
856.89	46.671
857.18	48.391
857.48	48.800
857.77	48.222
858.07	47.034
858.36	47.998
858.66	48.663
858.95	47.909
859.25	48.267
859.54	46.875
859.84	46.288
860.13	44.187
860.42	43.852
860.72	42.115
861.01	43.362
861.31	44.704
861.60	44.468
861.90	43.383
862.19	43.176
862.49	43.330
862.78	43.589
863.07	43.388
863.37	43.493
863.66	41.614
863.96	44.321
864.25	44.388
864.54	43.239
864.84	43.667
865.13	44.944
865.43	47.134
865.72	51.688
866.01	48.254
866.31	48.188
866.60	53.313
866.89	63.981
>>>>>End Spectral Data<<<<<
