OOIBase32 Version 2.0.0.6 Data File
++++++++++++++++++++++++++++++++++++
Date: 01-23-2012, 23:07:41
User: Valued Ocean Optics Customer
Spectrometer Serial Number: USB2E2917
Spectrometer Channel: Master
Integration Time (msec): 5
Spectra Averaged: 10
Boxcar Smoothing: 5
Correct for Electrical Dark: Enabled
Time Normalized: Disabled
Dual-beam Reference: Disabled
Reference Channel: Master
Temperature: Not acquired
Spectrometer Type: S2000
ADC Type: USB2000
Number of Pixels in File: 2048
Graph Title: 
>>>>>Begin Spectral Data<<<<<
180.30	0.000
180.67	0.000
181.03	-36.129
181.40	104.796
181.77	-2570.489
182.14	41.209
182.51	-75.502
182.88	40.163
183.25	9.843
183.62	35.844
183.99	399.271
184.36	-23.986
184.73	296.518
185.10	54.316
185.46	-233.371
185.83	-148.377
186.20	396.000
186.57	346.960
186.94	81.898
187.31	50.063
187.68	75.992
188.05	-10.338
188.42	12.636
188.78	82.877
189.15	417.000
189.52	-80.160
189.89	0.787
190.26	21.731
190.63	17.217
191.00	36.764
191.37	26.579
191.73	38.538
192.10	30.653
192.47	38.810
192.84	33.582
193.21	38.674
193.58	38.237
193.94	30.158
194.31	10.097
194.68	0.608
195.05	-19.708
195.42	-19.220
195.79	-29.310
196.15	-44.167
196.52	-48.945
196.89	-42.470
197.26	-61.334
197.63	-44.269
198.00	-18.899
198.36	-1.239
198.73	8.833
199.10	16.438
199.47	16.791
199.84	-3.419
200.20	-4.474
200.57	-7.193
200.94	-20.326
201.31	-0.983
201.68	-17.586
202.04	-25.943
202.41	-32.491
202.78	-39.360
203.15	-50.617
203.51	-43.590
203.88	-38.594
204.25	-29.058
204.62	-57.815
204.98	-60.392
205.35	-65.227
205.72	-57.865
206.09	-60.015
206.46	-95.908
206.82	-69.527
207.19	-63.332
207.56	-117.946
207.92	-87.458
208.29	-96.637
208.66	-36.142
209.03	-30.896
209.39	-23.182
209.76	-35.083
210.13	-63.006
210.50	-54.067
210.86	-50.310
211.23	-66.613
211.60	-37.394
211.96	-45.179
212.33	-37.701
212.70	-67.455
213.07	-79.144
213.43	-110.976
213.80	-83.805
214.17	-48.988
214.53	-32.460
214.90	-22.489
215.27	-7.964
215.63	-9.468
216.00	-4.534
216.37	-11.247
216.74	-10.082
217.10	1.299
217.47	-1.983
217.84	3.265
218.20	3.861
218.57	4.316
218.94	-4.013
219.30	-6.276
219.67	-10.186
220.04	-8.263
220.40	-4.895
220.77	-6.158
221.13	-4.787
221.50	3.256
221.87	-0.756
222.23	0.856
222.60	-1.934
222.97	1.207
223.33	-0.940
223.70	-0.899
224.07	-2.870
224.43	-5.652
224.80	-2.767
225.16	-5.235
225.53	-5.557
225.90	-5.450
226.26	-5.984
226.63	-2.414
226.99	-1.251
227.36	-0.139
227.73	1.917
228.09	2.015
228.46	5.098
228.82	5.702
229.19	7.456
229.56	6.565
229.92	7.452
230.29	7.395
230.65	5.331
231.02	3.094
231.38	0.186
231.75	-3.316
232.12	-4.263
232.48	-8.125
232.85	-9.283
233.21	-11.169
233.58	-11.584
233.94	-11.145
234.31	-10.499
234.68	-8.340
235.04	-6.540
235.41	-3.925
235.77	-2.576
236.14	-2.225
236.50	-0.906
236.87	-0.246
237.23	0.314
237.60	0.026
237.96	-0.874
238.33	-2.045
238.69	-3.370
239.06	-3.655
239.42	-3.739
239.79	-4.228
240.15	-3.531
240.52	-3.064
240.88	-2.471
241.25	-2.208
241.61	-1.519
241.98	-1.142
242.34	-0.866
242.71	-0.220
243.07	-0.002
243.44	-0.213
243.80	-0.133
244.17	-0.221
244.53	-0.666
244.90	-0.890
245.26	-0.910
245.63	-0.964
245.99	-0.841
246.36	-0.644
246.72	-0.278
247.09	-0.654
247.45	-0.295
247.81	0.055
248.18	-0.002
248.54	0.220
248.91	0.054
249.27	0.165
249.64	0.529
250.00	0.411
250.36	0.174
250.73	-0.581
251.09	-0.072
251.46	-0.416
251.82	-0.296
252.19	-0.263
252.55	-0.181
252.91	0.037
253.28	-0.081
253.64	-1.226
254.01	-1.368
254.37	-1.019
254.73	-0.347
255.10	-0.096
255.46	0.398
255.83	0.352
256.19	0.479
256.55	0.260
256.92	0.268
257.28	0.182
257.65	0.559
258.01	0.578
258.37	0.745
258.74	0.649
259.10	0.627
259.46	0.493
259.83	0.448
260.19	0.419
260.55	0.718
260.92	0.744
261.28	0.775
261.64	0.777
262.01	1.078
262.37	0.832
262.73	0.615
263.10	0.410
263.46	0.241
263.82	0.217
264.19	0.174
264.55	-0.150
264.91	-0.140
265.28	-0.054
265.64	0.102
266.00	-0.269
266.37	-0.144
266.73	-0.176
267.09	-0.167
267.46	-0.374
267.82	-0.699
268.18	-0.639
268.54	-0.311
268.91	-0.337
269.27	-0.473
269.63	-0.602
270.00	-0.490
270.36	-0.559
270.72	-0.280
271.08	-0.294
271.45	-0.116
271.81	-0.018
272.17	0.010
272.53	-0.158
272.90	-0.154
273.26	0.005
273.62	-0.171
273.98	-0.181
274.35	-0.266
274.71	-0.313
275.07	-0.322
275.43	-0.330
275.80	-0.144
276.16	-0.330
276.52	-0.399
276.88	-0.455
277.25	-0.700
277.61	-0.836
277.97	-0.940
278.33	-0.883
278.69	-0.940
279.06	-0.811
279.42	-0.651
279.78	-0.643
280.14	-0.444
280.50	-0.394
280.87	-0.304
281.23	-0.097
281.59	0.274
281.95	0.462
282.31	0.667
282.68	0.456
283.04	0.273
283.40	0.211
283.76	0.304
284.12	0.371
284.48	0.413
284.85	0.408
285.21	0.394
285.57	0.201
285.93	0.140
286.29	-0.113
286.65	0.149
287.02	0.532
287.38	0.600
287.74	0.372
288.10	0.303
288.46	0.336
288.82	0.141
289.18	0.013
289.54	0.198
289.91	0.187
290.27	0.378
290.63	0.425
290.99	0.433
291.35	0.403
291.71	0.548
292.07	0.454
292.43	0.424
292.79	0.520
293.16	0.573
293.52	0.587
293.88	0.733
294.24	0.627
294.60	0.542
294.96	0.302
295.32	0.343
295.68	0.378
296.04	0.261
296.40	0.285
296.76	0.340
297.12	0.273
297.49	0.110
297.85	-0.064
298.21	-0.008
298.57	-0.175
298.93	-0.009
299.29	-0.180
299.65	-0.137
300.01	-0.069
300.37	0.007
300.73	0.141
301.09	0.248
301.45	0.402
301.81	0.614
302.17	0.489
302.53	0.419
302.89	0.297
303.25	0.339
303.61	0.127
303.97	0.200
304.33	0.157
304.69	0.121
305.05	0.147
305.41	0.096
305.77	0.018
306.13	-0.008
306.49	0.017
306.85	0.095
307.21	0.076
307.57	0.238
307.93	0.253
308.29	0.383
308.65	0.348
309.01	0.379
309.37	0.250
309.73	0.159
310.09	0.320
310.45	0.454
310.81	0.392
311.17	0.394
311.53	0.326
311.89	0.370
312.25	0.130
312.61	-0.007
312.96	-0.041
313.32	0.208
313.68	0.265
314.04	0.154
314.40	0.107
314.76	0.038
315.12	0.048
315.48	0.123
315.84	0.080
316.20	0.161
316.56	0.183
316.92	0.128
317.27	-0.048
317.63	-0.001
317.99	-0.042
318.35	-0.007
318.71	0.053
319.07	0.125
319.43	0.170
319.79	0.300
320.15	0.185
320.50	0.216
320.86	0.253
321.22	0.311
321.58	0.212
321.94	0.258
322.30	0.190
322.66	0.179
323.01	0.074
323.37	-0.082
323.73	-0.144
324.09	-0.168
324.45	-0.046
324.81	-0.128
325.17	-0.183
325.52	-0.201
325.88	-0.257
326.24	-0.128
326.60	-0.120
326.96	0.015
327.31	0.018
327.67	-0.102
328.03	-0.051
328.39	-0.161
328.75	0.002
329.11	0.117
329.46	0.151
329.82	0.243
330.18	0.097
330.54	0.130
330.90	0.070
331.25	0.113
331.61	0.181
331.97	0.243
332.33	0.364
332.68	0.368
333.04	0.361
333.40	0.376
333.76	0.317
334.11	0.365
334.47	0.374
334.83	0.340
335.19	0.341
335.54	0.336
335.90	0.291
336.26	0.301
336.62	0.233
336.97	0.147
337.33	0.098
337.69	0.137
338.05	0.125
338.40	0.067
338.76	0.168
339.12	0.320
339.48	0.337
339.83	0.489
340.19	0.465
340.55	0.605
340.90	0.605
341.26	0.664
341.62	0.668
341.97	0.672
342.33	0.749
342.69	0.751
343.04	0.678
343.40	0.734
343.76	0.692
344.12	0.786
344.47	0.801
344.83	0.962
345.19	1.046
345.54	1.127
345.90	1.273
346.26	1.370
346.61	1.401
346.97	1.498
347.32	1.545
347.68	1.523
348.04	1.451
348.39	1.403
348.75	1.435
349.11	1.445
349.46	1.518
349.82	1.568
350.18	1.556
350.53	1.703
350.89	1.769
351.24	1.827
351.60	2.013
351.96	2.211
352.31	2.274
352.67	2.338
353.02	2.378
353.38	2.367
353.74	2.364
354.09	2.403
354.45	2.366
354.80	2.370
355.16	2.421
355.52	2.441
355.87	2.403
356.23	2.488
356.58	2.506
356.94	2.555
357.29	2.653
357.65	2.717
358.00	2.798
358.36	2.844
358.72	2.887
359.07	2.919
359.43	2.906
359.78	2.923
360.14	2.891
360.49	2.885
360.85	2.909
361.20	2.913
361.56	2.857
361.91	2.864
362.27	2.894
362.62	2.931
362.98	2.958
363.33	2.971
363.69	3.021
364.04	3.095
364.40	3.147
364.75	3.180
365.11	3.198
365.46	3.241
365.82	3.274
366.17	3.282
366.53	3.277
366.88	3.303
367.24	3.388
367.59	3.416
367.95	3.445
368.30	3.438
368.66	3.418
369.01	3.407
369.37	3.473
369.72	3.519
370.08	3.543
370.43	3.568
370.78	3.550
371.14	3.494
371.49	3.468
371.85	3.445
372.20	3.498
372.56	3.561
372.91	3.563
373.26	3.557
373.62	3.473
373.97	3.489
374.33	3.460
374.68	3.486
375.03	3.536
375.39	3.562
375.74	3.574
376.10	3.538
376.45	3.542
376.80	3.619
377.16	3.606
377.51	3.683
377.87	3.674
378.22	3.647
378.57	3.643
378.93	3.664
379.28	3.679
379.63	3.684
379.99	3.724
380.34	3.733
380.70	3.688
381.05	3.718
381.40	3.661
381.76	3.704
382.11	3.759
382.46	3.786
382.82	3.784
383.17	3.754
383.52	3.739
383.88	3.735
384.23	3.701
384.58	3.691
384.94	3.644
385.29	3.718
385.64	3.711
385.99	3.733
386.35	3.733
386.70	3.744
387.05	3.736
387.41	3.786
387.76	3.768
388.11	3.792
388.47	3.804
388.82	3.852
389.17	3.810
389.52	3.801
389.88	3.802
390.23	3.786
390.58	3.793
390.93	3.849
391.29	3.832
391.64	3.872
391.99	3.922
392.34	3.937
392.70	3.934
393.05	3.935
393.40	3.920
393.75	3.921
394.11	3.943
394.46	3.931
394.81	3.905
395.16	3.865
395.52	3.812
395.87	3.739
396.22	3.739
396.57	3.711
396.92	3.674
397.28	3.647
397.63	3.621
397.98	3.548
398.33	3.504
398.68	3.450
399.04	3.461
399.39	3.459
399.74	3.457
400.09	3.417
400.44	3.421
400.80	3.428
401.15	3.407
401.50	3.409
401.85	3.438
402.20	3.408
402.55	3.427
402.90	3.386
403.26	3.358
403.61	3.313
403.96	3.280
404.31	3.235
404.66	3.219
405.01	3.210
405.36	3.181
405.72	3.131
406.07	3.131
406.42	3.089
406.77	3.083
407.12	3.082
407.47	3.103
407.82	3.101
408.17	3.095
408.53	3.093
408.88	3.064
409.23	3.025
409.58	3.000
409.93	2.991
410.28	3.010
410.63	2.987
410.98	2.973
411.33	2.952
411.68	2.972
412.03	2.987
412.38	2.958
412.73	2.993
413.09	3.003
413.44	3.035
413.79	3.031
414.14	3.045
414.49	3.070
414.84	3.081
415.19	3.078
415.54	3.090
415.89	3.093
416.24	3.140
416.59	3.158
416.94	3.186
417.29	3.201
417.64	3.199
417.99	3.197
418.34	3.208
418.69	3.222
419.04	3.233
419.39	3.221
419.74	3.227
420.09	3.225
420.44	3.210
420.79	3.200
421.14	3.197
421.49	3.213
421.84	3.209
422.19	3.201
422.54	3.187
422.89	3.182
423.24	3.184
423.59	3.162
423.94	3.125
424.29	3.121
424.64	3.110
424.99	3.098
425.34	3.064
425.68	3.046
426.03	3.025
426.38	3.009
426.73	3.001
427.08	2.958
427.43	2.979
427.78	3.002
428.13	2.981
428.48	2.951
428.83	2.936
429.18	2.934
429.53	2.932
429.87	2.912
430.22	2.899
430.57	2.882
430.92	2.897
431.27	2.881
431.62	2.840
431.97	2.832
432.32	2.828
432.67	2.818
433.01	2.810
433.36	2.795
433.71	2.806
434.06	2.794
434.41	2.798
434.76	2.812
435.11	2.808
435.45	2.833
435.80	2.866
436.15	2.892
436.50	2.894
436.85	2.897
437.20	2.908
437.54	2.916
437.89	2.934
438.24	2.933
438.59	2.914
438.94	2.913
439.29	2.903
439.63	2.887
439.98	2.888
440.33	2.897
440.68	2.932
441.03	2.949
441.37	2.978
441.72	2.991
442.07	3.031
442.42	3.062
442.76	3.103
443.11	3.128
443.46	3.177
443.81	3.191
444.16	3.226
444.50	3.240
444.85	3.261
445.20	3.273
445.55	3.291
445.89	3.292
446.24	3.311
446.59	3.311
446.94	3.321
447.28	3.319
447.63	3.332
447.98	3.337
448.32	3.338
448.67	3.341
449.02	3.331
449.37	3.340
449.71	3.360
450.06	3.362
450.41	3.382
450.75	3.418
451.10	3.428
451.45	3.439
451.79	3.446
452.14	3.458
452.49	3.487
452.84	3.520
453.18	3.524
453.53	3.523
453.88	3.547
454.22	3.557
454.57	3.572
454.92	3.595
455.26	3.633
455.61	3.676
455.95	3.713
456.30	3.720
456.65	3.739
456.99	3.769
457.34	3.788
457.69	3.787
458.03	3.798
458.38	3.812
458.73	3.801
459.07	3.781
459.42	3.740
459.76	3.702
460.11	3.674
460.46	3.640
460.80	3.617
461.15	3.598
461.49	3.576
461.84	3.555
462.19	3.511
462.53	3.504
462.88	3.503
463.22	3.511
463.57	3.517
463.91	3.520
464.26	3.530
464.61	3.529
464.95	3.508
465.30	3.530
465.64	3.538
465.99	3.553
466.33	3.549
466.68	3.546
467.02	3.546
467.37	3.550
467.71	3.555
468.06	3.542
468.41	3.524
468.75	3.532
469.10	3.517
469.44	3.487
469.79	3.453
470.13	3.424
470.48	3.423
470.82	3.415
471.17	3.405
471.51	3.383
471.86	3.388
472.20	3.392
472.55	3.388
472.89	3.381
473.23	3.376
473.58	3.400
473.92	3.409
474.27	3.393
474.61	3.389
474.96	3.403
475.30	3.412
475.65	3.410
475.99	3.401
476.34	3.405
476.68	3.421
477.02	3.438
477.37	3.426
477.71	3.461
478.06	3.502
478.40	3.582
478.75	3.668
479.09	3.771
479.43	3.884
479.78	4.020
480.12	4.144
480.47	4.261
480.81	4.384
481.15	4.506
481.50	4.623
481.84	4.747
482.19	4.861
482.53	4.954
482.87	5.020
483.22	5.028
483.56	4.986
483.90	4.907
484.25	4.812
484.59	4.710
484.94	4.614
485.28	4.519
485.62	4.421
485.97	4.312
486.31	4.230
486.65	4.163
487.00	4.154
487.34	4.166
487.68	4.213
488.03	4.267
488.37	4.319
488.71	4.358
489.06	4.377
489.40	4.392
489.74	4.403
490.09	4.406
490.43	4.416
490.77	4.400
491.11	4.404
491.46	4.405
491.80	4.399
492.14	4.387
492.49	4.400
492.83	4.410
493.17	4.414
493.51	4.436
493.86	4.456
494.20	4.479
494.54	4.529
494.88	4.580
495.23	4.639
495.57	4.698
495.91	4.774
496.25	4.843
496.60	4.914
496.94	4.981
497.28	5.045
497.62	5.102
497.97	5.169
498.31	5.237
498.65	5.298
498.99	5.365
499.33	5.455
499.68	5.542
500.02	5.620
500.36	5.698
500.70	5.791
501.04	5.875
501.39	5.974
501.73	6.073
502.07	6.180
502.41	6.281
502.75	6.396
503.09	6.493
503.44	6.613
503.78	6.742
504.12	6.860
504.46	6.983
504.80	7.121
505.14	7.258
505.49	7.399
505.83	7.542
506.17	7.697
506.51	7.824
506.85	7.967
507.19	8.092
507.53	8.211
507.87	8.358
508.22	8.485
508.56	8.606
508.90	8.735
509.24	8.859
509.58	8.982
509.92	9.101
510.26	9.225
510.60	9.354
510.94	9.479
511.28	9.601
511.63	9.737
511.97	9.884
512.31	10.035
512.65	10.195
512.99	10.367
513.33	10.571
513.67	10.771
514.01	10.987
514.35	11.204
514.69	11.415
515.03	11.608
515.37	11.806
515.71	11.989
516.05	12.160
516.39	12.304
516.73	12.464
517.07	12.573
517.41	12.688
517.75	12.805
518.09	12.911
518.43	13.024
518.77	13.143
519.11	13.248
519.45	13.360
519.79	13.492
520.13	13.641
520.47	13.798
520.81	13.967
521.15	14.156
521.49	14.333
521.83	14.508
522.17	14.684
522.51	14.894
522.85	15.094
523.19	15.333
523.53	15.595
523.87	15.869
524.21	16.130
524.55	16.393
524.89	16.619
525.23	16.842
525.57	17.038
525.91	17.222
526.25	17.378
526.58	17.548
526.92	17.670
527.26	17.746
527.60	17.783
527.94	17.815
528.28	17.825
528.62	17.828
528.96	17.820
529.30	17.822
529.64	17.810
529.97	17.814
530.31	17.770
530.65	17.764
530.99	17.791
531.33	17.851
531.67	17.893
532.01	17.934
532.35	17.965
532.68	17.993
533.02	18.002
533.36	18.019
533.70	18.000
534.04	18.021
534.38	18.022
534.71	18.024
535.05	18.013
535.39	18.004
535.73	18.035
536.07	18.083
536.41	18.130
536.74	18.184
537.08	18.238
537.42	18.322
537.76	18.399
538.10	18.469
538.43	18.545
538.77	18.620
539.11	18.705
539.45	18.752
539.79	18.800
540.12	18.824
540.46	18.850
540.80	18.853
541.14	18.847
541.47	18.803
541.81	18.781
542.15	18.744
542.49	18.706
542.82	18.641
543.16	18.584
543.50	18.534
543.84	18.501
544.17	18.465
544.51	18.467
544.85	18.435
545.18	18.446
545.52	18.428
545.86	18.401
546.20	18.409
546.53	18.418
546.87	18.398
547.21	18.385
547.54	18.354
547.88	18.317
548.22	18.278
548.55	18.279
548.89	18.287
549.23	18.281
549.56	18.297
549.90	18.312
550.24	18.315
550.57	18.340
550.91	18.316
551.25	18.325
551.58	18.328
551.92	18.318
552.26	18.301
552.59	18.276
552.93	18.275
553.27	18.267
553.60	18.211
553.94	18.163
554.27	18.155
554.61	18.152
554.95	18.128
555.28	18.105
555.62	18.089
555.95	18.066
556.29	18.043
556.63	18.032
556.96	17.998
557.30	17.980
557.63	17.953
557.97	17.877
558.31	17.803
558.64	17.761
558.98	17.700
559.31	17.685
559.65	17.647
559.98	17.610
560.32	17.535
560.65	17.459
560.99	17.370
561.33	17.312
561.66	17.254
562.00	17.228
562.33	17.170
562.67	17.141
563.00	17.054
563.34	16.981
563.67	16.900
564.01	16.837
564.34	16.785
564.68	16.748
565.01	16.681
565.35	16.624
565.68	16.548
566.02	16.462
566.35	16.381
566.69	16.280
567.02	16.199
567.36	16.111
567.69	16.017
568.03	15.943
568.36	15.833
568.69	15.726
569.03	15.634
569.36	15.550
569.70	15.472
570.03	15.399
570.37	15.334
570.70	15.282
571.04	15.214
571.37	15.132
571.70	15.044
572.04	14.968
572.37	14.922
572.71	14.845
573.04	14.775
573.37	14.722
573.71	14.655
574.04	14.578
574.38	14.479
574.71	14.408
575.04	14.347
575.38	14.267
575.71	14.183
576.05	14.097
576.38	14.020
576.71	13.928
577.05	13.835
577.38	13.730
577.71	13.646
578.05	13.560
578.38	13.468
578.71	13.409
579.05	13.326
579.38	13.257
579.71	13.181
580.05	13.125
580.38	13.074
580.71	13.000
581.05	12.949
581.38	12.878
581.71	12.824
582.05	12.761
582.38	12.703
582.71	12.664
583.04	12.646
583.38	12.592
583.71	12.551
584.04	12.522
584.38	12.479
584.71	12.455
585.04	12.451
585.37	12.436
585.71	12.433
586.04	12.406
586.37	12.425
586.70	12.413
587.04	12.392
587.37	12.355
587.70	12.319
588.03	12.284
588.37	12.252
588.70	12.243
589.03	12.211
589.36	12.181
589.69	12.142
590.03	12.069
590.36	11.986
590.69	11.944
591.02	11.904
591.35	11.851
591.69	11.831
592.02	11.782
592.35	11.736
592.68	11.716
593.01	11.681
593.35	11.650
593.68	11.646
594.01	11.653
594.34	11.624
594.67	11.619
595.00	11.603
595.34	11.570
595.67	11.543
596.00	11.506
596.33	11.463
596.66	11.433
596.99	11.390
597.32	11.321
597.65	11.277
597.99	11.231
598.32	11.161
598.65	11.120
598.98	11.084
599.31	11.054
599.64	11.025
599.97	11.006
600.30	10.977
600.63	10.967
600.96	10.948
601.30	10.927
601.63	10.931
601.96	10.902
602.29	10.869
602.62	10.827
602.95	10.798
603.28	10.774
603.61	10.713
603.94	10.661
604.27	10.640
604.60	10.575
604.93	10.539
605.26	10.481
605.59	10.451
605.92	10.401
606.25	10.373
606.58	10.345
606.91	10.273
607.24	10.241
607.57	10.199
607.90	10.133
608.23	10.092
608.56	10.025
608.89	9.952
609.22	9.892
609.55	9.843
609.88	9.768
610.21	9.677
610.54	9.592
610.87	9.508
611.20	9.458
611.53	9.395
611.86	9.374
612.19	9.286
612.52	9.217
612.85	9.162
613.18	9.102
613.51	9.011
613.84	8.926
614.17	8.919
614.49	8.898
614.82	8.820
615.15	8.772
615.48	8.702
615.81	8.658
616.14	8.648
616.47	8.593
616.80	8.537
617.13	8.543
617.46	8.511
617.78	8.441
618.11	8.376
618.44	8.318
618.77	8.240
619.10	8.171
619.43	8.130
619.76	8.085
620.09	8.082
620.41	8.061
620.74	8.036
621.07	8.048
621.40	8.030
621.73	8.042
622.06	8.077
622.38	8.085
622.71	8.091
623.04	8.131
623.37	8.143
623.70	8.147
624.02	8.181
624.35	8.227
624.68	8.238
625.01	8.284
625.34	8.282
625.66	8.277
625.99	8.308
626.32	8.332
626.65	8.339
626.98	8.336
627.30	8.327
627.63	8.302
627.96	8.211
628.29	8.156
628.61	8.122
628.94	8.087
629.27	8.042
629.60	7.984
629.92	7.946
630.25	7.889
630.58	7.845
630.91	7.793
631.23	7.743
631.56	7.777
631.89	7.761
632.21	7.689
632.54	7.651
632.87	7.611
633.19	7.572
633.52	7.515
633.85	7.472
634.18	7.407
634.50	7.305
634.83	7.236
635.16	7.129
635.48	7.030
635.81	6.945
636.14	6.829
636.46	6.736
636.79	6.629
637.11	6.554
637.44	6.397
637.77	6.317
638.09	6.245
638.42	6.128
638.75	6.044
639.07	5.991
639.40	5.922
639.73	5.856
640.05	5.755
640.38	5.685
640.70	5.548
641.03	5.461
641.36	5.368
641.68	5.294
642.01	5.197
642.33	5.118
642.66	5.056
642.98	4.971
643.31	4.891
643.64	4.858
643.96	4.802
644.29	4.779
644.61	4.761
644.94	4.722
645.26	4.680
645.59	4.699
645.91	4.662
646.24	4.597
646.56	4.591
646.89	4.583
647.22	4.531
647.54	4.524
647.87	4.523
648.19	4.488
648.52	4.448
648.84	4.461
649.17	4.421
649.49	4.411
649.82	4.398
650.14	4.362
650.47	4.349
650.79	4.369
651.11	4.315
651.44	4.273
651.76	4.277
652.09	4.321
652.41	4.306
652.74	4.314
653.06	4.286
653.39	4.306
653.71	4.332
654.04	4.315
654.36	4.296
654.68	4.348
655.01	4.397
655.33	4.447
655.66	4.439
655.98	4.467
656.30	4.467
656.63	4.455
656.95	4.452
657.28	4.437
657.60	4.429
657.92	4.417
658.25	4.372
658.57	4.323
658.90	4.234
659.22	4.185
659.54	4.144
659.87	4.101
660.19	4.096
660.51	4.058
660.84	3.976
661.16	3.966
661.48	3.915
661.81	3.881
662.13	3.836
662.45	3.896
662.78	3.893
663.10	3.915
663.42	3.923
663.75	3.955
664.07	3.965
664.39	4.032
664.72	4.021
665.04	4.085
665.36	4.180
665.69	4.260
666.01	4.302
666.33	4.359
666.65	4.366
666.98	4.509
667.30	4.618
667.62	4.720
667.94	4.818
668.27	4.994
668.59	5.108
668.91	5.268
669.23	5.421
669.56	5.560
669.88	5.710
670.20	5.858
670.52	5.997
670.85	6.110
671.17	6.278
671.49	6.512
671.81	6.650
672.13	6.832
672.46	7.004
672.78	7.213
673.10	7.462
673.42	7.676
673.74	7.922
674.07	8.113
674.39	8.367
674.71	8.535
675.03	8.758
675.35	8.964
675.67	9.142
676.00	9.290
676.32	9.404
676.64	9.543
676.96	9.757
677.28	9.932
677.60	10.095
677.92	10.291
678.25	10.535
678.57	10.644
678.89	10.794
679.21	11.001
679.53	11.227
679.85	11.508
680.17	11.737
680.49	11.943
680.81	12.214
681.13	12.463
681.46	12.710
681.78	12.972
682.10	13.277
682.42	13.590
682.74	13.933
683.06	14.167
683.38	14.463
683.70	14.749
684.02	15.034
684.34	15.311
684.66	15.597
684.98	15.816
685.30	16.025
685.62	16.236
685.94	16.437
686.26	16.552
686.58	16.753
686.90	16.851
687.22	16.957
687.54	17.091
687.86	17.162
688.18	17.296
688.50	17.471
688.82	17.576
689.14	17.720
689.46	17.958
689.78	18.186
690.10	18.411
690.42	18.634
690.74	18.925
691.06	19.209
691.38	19.482
691.70	19.686
692.02	19.908
692.34	20.213
692.66	20.471
692.98	20.645
693.30	20.882
693.62	21.049
693.94	21.144
694.26	21.206
694.57	21.289
694.89	21.372
695.21	21.490
695.53	21.589
695.85	21.659
696.17	21.745
696.49	21.903
696.81	22.018
697.13	22.139
697.44	22.344
697.76	22.585
698.08	22.838
698.40	23.132
698.72	23.455
699.04	23.743
699.36	24.114
699.67	24.530
699.99	24.800
700.31	25.188
700.63	25.647
700.95	26.171
701.27	26.660
701.58	27.040
701.90	27.421
702.22	27.812
702.54	28.211
702.86	28.596
703.17	28.868
703.49	29.298
703.81	29.554
704.13	29.815
704.45	30.015
704.76	30.221
705.08	30.498
705.40	30.663
705.72	30.788
706.03	31.007
706.35	31.118
706.67	31.318
706.99	31.564
707.30	31.886
707.62	32.086
707.94	32.293
708.26	32.449
708.57	32.617
708.89	32.910
709.21	33.276
709.53	33.500
709.84	33.805
710.16	34.080
710.48	34.309
710.79	34.529
711.11	34.714
711.43	34.930
711.74	35.197
712.06	35.489
712.38	35.778
712.69	35.855
713.01	36.194
713.33	36.432
713.64	36.886
713.96	37.124
714.28	37.454
714.59	37.940
714.91	38.381
715.23	38.813
715.54	39.102
715.86	39.470
716.17	39.991
716.49	40.365
716.81	40.696
717.12	40.899
717.44	41.309
717.76	41.640
718.07	42.005
718.39	42.351
718.70	42.603
719.02	42.885
719.33	43.065
719.65	43.175
719.97	43.203
720.28	43.482
720.60	43.761
720.91	44.043
721.23	44.263
721.54	44.355
721.86	44.534
722.17	44.738
722.49	45.064
722.81	45.282
723.12	45.662
723.44	45.960
723.75	46.341
724.07	46.490
724.38	46.731
724.70	46.982
725.01	47.196
725.33	47.417
725.64	47.672
725.96	47.771
726.27	47.928
726.59	48.020
726.90	48.282
727.22	48.173
727.53	48.377
727.84	48.336
728.16	48.431
728.47	48.535
728.79	48.511
729.10	48.536
729.42	48.657
729.73	48.794
730.05	48.840
730.36	48.841
730.67	49.056
730.99	49.083
731.30	49.205
731.62	49.393
731.93	49.574
732.24	49.723
732.56	49.880
732.87	50.184
733.19	50.373
733.50	50.653
733.81	50.813
734.13	51.103
734.44	51.199
734.76	51.448
735.07	51.509
735.38	51.665
735.70	51.979
736.01	52.212
736.32	52.192
736.64	52.467
736.95	52.609
737.26	52.760
737.58	52.753
737.89	52.802
738.20	52.813
738.52	52.911
738.83	52.932
739.14	52.823
739.45	52.752
739.77	52.880
740.08	52.825
740.39	52.836
740.71	52.914
741.02	52.971
741.33	53.287
741.64	53.525
741.96	53.554
742.27	53.554
742.58	53.920
742.90	54.067
743.21	54.105
743.52	54.116
743.83	54.102
744.14	54.162
744.46	54.442
744.77	54.403
745.08	54.148
745.39	54.064
745.71	54.097
746.02	53.817
746.33	53.786
746.64	53.639
746.95	53.639
747.27	53.667
747.58	53.584
747.89	53.270
748.20	53.054
748.51	53.206
748.82	53.210
749.14	53.246
749.45	53.232
749.76	53.119
750.07	53.367
750.38	53.318
750.69	53.254
751.01	53.275
751.32	53.287
751.63	53.420
751.94	53.255
752.25	53.199
752.56	52.982
752.87	52.865
753.18	52.825
753.49	52.675
753.81	52.701
754.12	52.612
754.43	52.622
754.74	52.487
755.05	52.432
755.36	52.683
755.67	52.945
755.98	53.204
756.29	53.509
756.60	53.719
756.91	53.653
757.22	53.646
757.53	53.843
757.84	53.850
758.15	53.974
758.46	54.061
758.77	53.824
759.09	53.724
759.40	53.472
759.71	53.259
760.02	53.106
760.33	52.999
760.64	52.782
760.95	52.697
761.26	52.607
761.57	52.461
761.88	52.387
762.18	52.327
762.49	52.102
762.80	52.123
763.11	52.007
763.42	51.829
763.73	51.845
764.04	51.897
764.35	51.790
764.66	51.590
764.97	51.531
765.28	51.224
765.59	51.108
765.90	50.950
766.21	50.619
766.52	50.502
766.83	50.528
767.14	50.264
767.44	50.087
767.75	49.691
768.06	49.541
768.37	49.373
768.68	49.503
768.99	49.275
769.30	49.301
769.61	49.227
769.91	49.146
770.22	48.755
770.53	48.530
770.84	48.352
771.15	48.490
771.46	48.401
771.77	48.417
772.07	48.167
772.38	48.302
772.69	48.285
773.00	48.559
773.31	48.646
773.61	48.594
773.92	48.591
774.23	48.545
774.54	48.183
774.85	48.005
775.15	47.799
775.46	47.670
775.77	47.611
776.08	47.565
776.39	47.121
776.69	47.183
777.00	47.100
777.31	47.338
777.62	47.327
777.92	47.639
778.23	47.899
778.54	47.980
778.85	47.834
779.15	47.965
779.46	47.669
779.77	48.018
780.07	47.825
780.38	48.500
780.69	48.318
781.00	48.345
781.30	48.122
781.61	47.896
781.92	47.829
782.22	48.045
782.53	47.683
782.84	48.194
783.14	48.211
783.45	48.348
783.76	48.247
784.06	48.222
784.37	48.065
784.68	48.310
784.98	48.513
785.29	48.583
785.60	48.767
785.90	49.091
786.21	48.970
786.51	49.007
786.82	48.850
787.13	48.872
787.43	48.940
787.74	49.153
788.04	49.269
788.35	49.422
788.66	49.458
788.96	49.826
789.27	49.717
789.57	49.713
789.88	49.742
790.19	49.592
790.49	49.328
790.80	49.137
791.10	49.012
791.41	49.098
791.71	48.833
792.02	48.793
792.32	48.241
792.63	48.358
792.93	48.229
793.24	48.188
793.54	48.228
793.85	48.179
794.15	48.394
794.46	48.582
794.76	48.381
795.07	48.449
795.37	48.258
795.68	48.137
795.98	48.366
796.29	48.779
796.59	48.730
796.90	49.099
797.20	49.200
797.51	49.147
797.81	48.919
798.12	48.937
798.42	49.067
798.72	49.495
799.03	49.817
799.33	49.559
799.64	49.086
799.94	49.258
800.25	48.823
800.55	49.125
800.85	49.308
801.16	49.805
801.46	49.384
801.77	49.281
802.07	49.077
802.37	49.130
802.68	48.877
802.98	48.960
803.28	48.768
803.59	49.243
803.89	49.235
804.20	49.141
804.50	48.841
804.80	49.463
805.11	49.335
805.41	48.886
805.71	48.771
806.02	48.591
806.32	48.629
806.62	48.908
806.93	48.764
807.23	48.596
807.53	48.458
807.83	48.621
808.14	48.426
808.44	48.547
808.74	49.086
809.05	49.070
809.35	48.982
809.65	49.578
809.95	49.347
810.26	49.194
810.56	49.232
810.86	49.696
811.16	49.980
811.47	50.635
811.77	51.025
812.07	50.963
812.37	50.954
812.68	51.734
812.98	51.764
813.28	51.895
813.58	52.503
813.88	52.138
814.19	52.324
814.49	52.500
814.79	51.795
815.09	52.122
815.39	52.642
815.70	53.011
816.00	52.787
816.30	52.365
816.60	52.230
816.90	51.663
817.20	51.804
817.50	51.394
817.81	50.703
818.11	50.740
818.41	50.641
818.71	50.424
819.01	50.510
819.31	50.779
819.61	51.092
819.92	51.339
820.22	51.648
820.52	51.769
820.82	52.091
821.12	52.448
821.42	52.662
821.72	52.844
822.02	53.258
822.32	53.484
822.62	53.706
822.92	53.920
823.22	54.081
823.52	54.300
823.83	54.496
824.13	54.509
824.43	54.444
824.73	54.624
825.03	54.637
825.33	54.507
825.63	54.516
825.93	54.468
826.23	54.213
826.53	54.250
826.83	54.084
827.13	54.161
827.43	54.282
827.73	54.629
828.03	54.770
828.33	55.075
828.63	55.113
828.93	55.229
829.23	55.016
829.53	55.082
829.83	54.770
830.13	54.655
830.42	54.369
830.72	53.947
831.02	53.607
831.32	53.062
831.62	53.015
831.92	52.846
832.22	52.728
832.52	52.697
832.82	52.739
833.12	52.690
833.42	52.604
833.72	52.757
834.01	53.045
834.31	53.040
834.61	53.476
834.91	53.802
835.21	54.136
835.51	54.107
835.81	53.917
836.11	53.998
836.40	54.471
836.70	54.829
837.00	54.892
837.30	54.063
837.60	54.385
837.90	53.646
838.19	52.632
838.49	52.451
838.79	52.384
839.09	53.018
839.39	52.818
839.68	52.617
839.98	51.680
840.28	51.571
840.58	51.963
840.88	51.723
841.17	51.397
841.47	51.267
841.77	50.835
842.07	51.314
842.36	50.760
842.66	50.048
842.96	49.410
843.26	49.837
843.55	49.187
843.85	49.419
844.15	48.725
844.45	48.410
844.74	49.072
845.04	48.847
845.34	48.617
845.63	48.129
845.93	48.837
846.23	48.569
846.53	48.546
846.82	48.110
847.12	48.077
847.42	47.298
847.71	48.148
848.01	47.712
848.31	47.619
848.60	45.123
848.90	45.667
849.19	44.711
849.49	45.152
849.79	45.634
850.08	46.574
850.38	46.010
850.68	46.247
850.97	46.894
851.27	45.429
851.56	45.530
851.86	47.573
852.16	48.106
852.45	48.131
852.75	49.147
853.04	49.722
853.34	49.772
853.64	50.640
853.93	50.482
854.23	48.602
854.52	50.400
854.82	50.784
855.11	49.619
855.41	49.842
855.70	51.357
856.00	49.721
856.30	48.398
856.59	48.627
856.89	49.804
857.18	51.525
857.48	52.533
857.77	51.696
858.07	51.372
858.36	50.880
858.66	50.717
858.95	49.147
859.25	48.122
859.54	47.325
859.84	46.833
860.13	43.729
860.42	42.419
860.72	42.265
861.01	42.213
861.31	42.477
861.60	45.023
861.90	44.412
862.19	46.718
862.49	47.403
862.78	48.743
863.07	49.021
863.37	51.028
863.66	50.194
863.96	51.487
864.25	50.622
864.54	51.077
864.84	50.155
865.13	51.253
865.43	49.999
865.72	37.181
866.01	55.517
866.31	55.627
866.60	55.611
866.89	49.986
>>>>>End Spectral Data<<<<<
