OOIBase32 Version 2.0.0.6 Data File
++++++++++++++++++++++++++++++++++++
Date: 01-23-2012, 23:04:23
User: Valued Ocean Optics Customer
Spectrometer Serial Number: USB2E2917
Spectrometer Channel: Master
Integration Time (msec): 5
Spectra Averaged: 10
Boxcar Smoothing: 5
Correct for Electrical Dark: Enabled
Time Normalized: Disabled
Dual-beam Reference: Disabled
Reference Channel: Master
Temperature: Not acquired
Spectrometer Type: S2000
ADC Type: USB2000
Number of Pixels in File: 2048
Graph Title: 
>>>>>Begin Spectral Data<<<<<
180.30	0.000
180.67	0.000
181.03	-147.319
181.40	386.204
181.77	-8476.911
182.14	71.490
182.51	-396.804
182.88	-299.496
183.25	122.384
183.62	51.432
183.99	213.446
184.36	-129.167
184.73	704.033
185.10	2.860
185.46	-1028.272
185.83	-11.628
186.20	51.017
186.57	115.016
186.94	-4.191
187.31	-9.768
187.68	40.908
188.05	98.342
188.42	154.550
188.78	312.187
189.15	744.491
189.52	-277.443
189.89	-90.814
190.26	-72.382
190.63	-30.799
191.00	-25.582
191.37	-5.628
191.73	15.738
192.10	25.385
192.47	32.398
192.84	31.880
193.21	39.506
193.58	42.930
193.94	43.526
194.31	45.925
194.68	36.589
195.05	33.969
195.42	40.101
195.79	13.760
196.15	-7.827
196.52	-16.223
196.89	-16.721
197.26	-48.444
197.63	-41.552
198.00	-32.046
198.36	-51.522
198.73	-47.695
199.10	-30.312
199.47	-28.368
199.84	-26.096
200.20	-7.629
200.57	-13.890
200.94	-3.257
201.31	11.977
201.68	6.180
202.04	-2.851
202.41	-13.896
202.78	-33.722
203.15	-47.773
203.51	-55.538
203.88	-55.825
204.25	-58.543
204.62	-59.151
204.98	-76.624
205.35	-79.006
205.72	-70.039
206.09	-72.351
206.46	-86.894
206.82	-66.042
207.19	-69.586
207.56	-129.061
207.92	-102.727
208.29	-104.096
208.66	-67.307
209.03	-72.565
209.39	-53.863
209.76	-65.302
210.13	-116.849
210.50	-81.036
210.86	-71.942
211.23	-74.820
211.60	-39.650
211.96	-37.329
212.33	-27.150
212.70	-29.588
213.07	-20.996
213.43	-42.969
213.80	-44.610
214.17	-15.064
214.53	-8.337
214.90	-5.557
215.27	3.884
215.63	2.416
216.00	-0.917
216.37	0.129
216.74	-8.631
217.10	-0.412
217.47	2.112
217.84	9.313
218.20	1.459
218.57	0.506
218.94	0.939
219.30	-2.733
219.67	-7.455
220.04	-2.980
220.40	-10.329
220.77	-8.469
221.13	-10.468
221.50	-9.236
221.87	-4.913
222.23	2.185
222.60	4.690
222.97	8.503
223.33	8.606
223.70	11.676
224.07	11.472
224.43	11.965
224.80	11.981
225.16	7.594
225.53	5.026
225.90	1.053
226.26	2.913
226.63	3.712
226.99	4.143
227.36	3.757
227.73	5.555
228.09	5.213
228.46	6.650
228.82	7.281
229.19	7.331
229.56	7.886
229.92	9.780
230.29	7.890
230.65	6.707
231.02	4.832
231.38	3.357
231.75	0.838
232.12	-1.482
232.48	-2.873
232.85	-5.835
233.21	-3.851
233.58	-4.694
233.94	-3.609
234.31	-2.240
234.68	-2.291
235.04	-1.764
235.41	0.741
235.77	0.545
236.14	2.520
236.50	4.295
236.87	5.275
237.23	4.695
237.60	5.177
237.96	4.253
238.33	3.259
238.69	2.791
239.06	3.105
239.42	2.479
239.79	2.112
240.15	1.931
240.52	1.919
240.88	2.726
241.25	2.958
241.61	2.767
241.98	2.679
242.34	3.216
242.71	3.660
243.07	3.647
243.44	3.728
243.80	3.595
244.17	3.664
244.53	2.994
244.90	2.600
245.26	2.624
245.63	2.915
245.99	2.902
246.36	2.907
246.72	2.820
247.09	2.539
247.45	2.662
247.81	3.121
248.18	2.757
248.54	3.237
248.91	2.841
249.27	2.880
249.64	3.112
250.00	3.200
250.36	2.720
250.73	2.962
251.09	3.061
251.46	2.587
251.82	2.354
252.19	3.393
252.55	2.938
252.91	3.764
253.28	3.237
253.64	2.349
254.01	2.199
254.37	2.507
254.73	2.466
255.10	3.078
255.46	3.546
255.83	3.499
256.19	3.093
256.55	3.129
256.92	3.223
257.28	3.314
257.65	3.485
258.01	3.567
258.37	3.503
258.74	3.216
259.10	3.033
259.46	2.840
259.83	2.781
260.19	2.846
260.55	2.836
260.92	2.630
261.28	2.707
261.64	2.825
262.01	2.791
262.37	2.954
262.73	3.357
263.10	3.406
263.46	3.563
263.82	3.477
264.19	3.285
264.55	3.066
264.91	2.977
265.28	3.092
265.64	2.815
266.00	2.746
266.37	2.637
266.73	2.484
267.09	2.391
267.46	2.310
267.82	2.420
268.18	2.542
268.54	2.859
268.91	2.844
269.27	2.713
269.63	2.916
270.00	2.973
270.36	2.907
270.72	3.120
271.08	3.052
271.45	2.876
271.81	2.714
272.17	2.715
272.53	2.633
272.90	2.751
273.26	2.799
273.62	2.518
273.98	2.284
274.35	2.248
274.71	2.243
275.07	2.239
275.43	2.483
275.80	2.708
276.16	2.677
276.52	2.520
276.88	2.266
277.25	2.012
277.61	2.051
277.97	1.956
278.33	2.339
278.69	2.146
279.06	2.273
279.42	2.233
279.78	2.184
280.14	2.006
280.50	2.372
280.87	2.530
281.23	2.735
281.59	2.840
281.95	2.966
282.31	2.786
282.68	2.757
283.04	2.634
283.40	2.649
283.76	2.632
284.12	2.820
284.48	2.602
284.85	2.623
285.21	2.629
285.57	2.640
285.93	2.522
286.29	2.403
286.65	2.505
287.02	2.893
287.38	2.865
287.74	2.903
288.10	2.770
288.46	2.958
288.82	2.940
289.18	2.998
289.54	3.016
289.91	3.344
290.27	3.501
290.63	3.640
290.99	3.391
291.35	3.473
291.71	3.531
292.07	3.580
292.43	3.426
292.79	3.343
293.16	3.075
293.52	3.104
293.88	2.978
294.24	2.943
294.60	2.746
294.96	2.608
295.32	2.565
295.68	2.530
296.04	2.512
296.40	2.620
296.76	2.588
297.12	2.718
297.49	2.530
297.85	2.503
298.21	2.371
298.57	2.244
298.93	2.335
299.29	2.215
299.65	2.185
300.01	2.179
300.37	2.067
300.73	2.259
301.09	2.115
301.45	2.264
301.81	2.313
302.17	2.459
302.53	2.513
302.89	2.483
303.25	2.643
303.61	2.486
303.97	2.353
304.33	2.296
304.69	2.125
305.05	2.274
305.41	2.098
305.77	2.152
306.13	2.100
306.49	2.140
306.85	2.249
307.21	2.192
307.57	2.308
307.93	2.502
308.29	2.597
308.65	2.654
309.01	2.600
309.37	2.672
309.73	2.595
310.09	2.755
310.45	2.824
310.81	2.803
311.17	2.822
311.53	2.814
311.89	2.800
312.25	2.810
312.61	2.849
312.96	2.846
313.32	2.950
313.68	2.924
314.04	2.804
314.40	2.761
314.76	2.631
315.12	2.528
315.48	2.525
315.84	2.484
316.20	2.388
316.56	2.273
316.92	2.278
317.27	2.278
317.63	2.265
317.99	2.216
318.35	2.109
318.71	2.186
319.07	2.279
319.43	2.290
319.79	2.335
320.15	2.407
320.50	2.390
320.86	2.389
321.22	2.280
321.58	2.342
321.94	2.236
322.30	2.300
322.66	2.207
323.01	2.192
323.37	2.083
323.73	2.003
324.09	1.915
324.45	2.051
324.81	1.956
325.17	2.009
325.52	1.820
325.88	1.820
326.24	1.886
326.60	1.970
326.96	1.941
327.31	2.055
327.67	2.021
328.03	2.080
328.39	1.972
328.75	2.106
329.11	2.183
329.46	2.420
329.82	2.504
330.18	2.459
330.54	2.489
330.90	2.499
331.25	2.481
331.61	2.539
331.97	2.487
332.33	2.578
332.68	2.505
333.04	2.363
333.40	2.269
333.76	2.240
334.11	2.173
334.47	2.135
334.83	2.085
335.19	2.043
335.54	2.036
335.90	2.033
336.26	1.952
336.62	2.015
336.97	2.019
337.33	2.003
337.69	2.001
338.05	1.993
338.40	1.930
338.76	1.931
339.12	1.900
339.48	1.872
339.83	1.872
340.19	1.913
340.55	1.903
340.90	1.920
341.26	1.927
341.62	1.942
341.97	2.039
342.33	2.166
342.69	2.235
343.04	2.223
343.40	2.204
343.76	2.202
344.12	2.178
344.47	2.168
344.83	2.189
345.19	2.199
345.54	2.189
345.90	2.217
346.26	2.162
346.61	2.126
346.97	2.209
347.32	2.299
347.68	2.324
348.04	2.363
348.39	2.320
348.75	2.322
349.11	2.378
349.46	2.370
349.82	2.318
350.18	2.298
350.53	2.283
350.89	2.270
351.24	2.216
351.60	2.214
351.96	2.184
352.31	2.252
352.67	2.270
353.02	2.231
353.38	2.303
353.74	2.323
354.09	2.324
354.45	2.425
354.80	2.420
355.16	2.459
355.52	2.497
355.87	2.528
356.23	2.539
356.58	2.601
356.94	2.636
357.29	2.667
357.65	2.704
358.00	2.728
358.36	2.654
358.72	2.709
359.07	2.705
359.43	2.800
359.78	2.852
360.14	2.859
360.49	2.836
360.85	2.854
361.20	2.824
361.56	2.836
361.91	2.878
362.27	2.957
362.62	2.985
362.98	3.095
363.33	3.025
363.69	3.030
364.04	3.064
364.40	3.114
364.75	3.134
365.11	3.133
365.46	3.125
365.82	3.197
366.17	3.185
366.53	3.215
366.88	3.245
367.24	3.380
367.59	3.412
367.95	3.480
368.30	3.482
368.66	3.553
369.01	3.613
369.37	3.703
369.72	3.758
370.08	3.882
370.43	3.923
370.78	3.907
371.14	3.810
371.49	3.870
371.85	3.887
372.20	3.973
372.56	3.954
372.91	4.005
373.26	4.025
373.62	4.005
373.97	4.043
374.33	4.114
374.68	4.130
375.03	4.264
375.39	4.269
375.74	4.280
376.10	4.312
376.45	4.410
376.80	4.481
377.16	4.534
377.51	4.592
377.87	4.593
378.22	4.583
378.57	4.643
378.93	4.685
379.28	4.795
379.63	4.829
379.99	4.884
380.34	4.896
380.70	4.941
381.05	5.005
381.40	5.059
381.76	5.152
382.11	5.236
382.46	5.318
382.82	5.354
383.17	5.330
383.52	5.428
383.88	5.464
384.23	5.531
384.58	5.579
384.94	5.599
385.29	5.673
385.64	5.737
385.99	5.812
386.35	5.881
386.70	5.930
387.05	5.998
387.41	6.049
387.76	6.095
388.11	6.156
388.47	6.203
388.82	6.256
389.17	6.281
389.52	6.325
389.88	6.386
390.23	6.425
390.58	6.519
390.93	6.580
391.29	6.627
391.64	6.702
391.99	6.798
392.34	6.849
392.70	6.923
393.05	6.993
393.40	7.020
393.75	7.035
394.11	7.067
394.46	7.063
394.81	7.104
395.16	7.138
395.52	7.133
395.87	7.148
396.22	7.214
396.57	7.204
396.92	7.203
397.28	7.206
397.63	7.239
397.98	7.260
398.33	7.302
398.68	7.298
399.04	7.336
399.39	7.353
399.74	7.356
400.09	7.325
400.44	7.363
400.80	7.404
401.15	7.431
401.50	7.435
401.85	7.466
402.20	7.465
402.55	7.523
402.90	7.504
403.26	7.555
403.61	7.558
403.96	7.582
404.31	7.589
404.66	7.624
405.01	7.629
405.36	7.662
405.72	7.648
406.07	7.652
406.42	7.648
406.77	7.674
407.12	7.659
407.47	7.708
407.82	7.730
408.17	7.735
408.53	7.704
408.88	7.731
409.23	7.711
409.58	7.731
409.93	7.766
410.28	7.751
410.63	7.739
410.98	7.768
411.33	7.752
411.68	7.778
412.03	7.807
412.38	7.838
412.73	7.851
413.09	7.878
413.44	7.914
413.79	7.937
414.14	7.994
414.49	8.030
414.84	8.034
415.19	8.053
415.54	8.070
415.89	8.089
416.24	8.120
416.59	8.154
416.94	8.180
417.29	8.198
417.64	8.184
417.99	8.216
418.34	8.239
418.69	8.282
419.04	8.294
419.39	8.313
419.74	8.320
420.09	8.318
420.44	8.308
420.79	8.314
421.14	8.313
421.49	8.352
421.84	8.330
422.19	8.359
422.54	8.340
422.89	8.334
423.24	8.328
423.59	8.342
423.94	8.329
424.29	8.354
424.64	8.367
424.99	8.370
425.34	8.348
425.68	8.354
426.03	8.297
426.38	8.292
426.73	8.274
427.08	8.255
427.43	8.243
427.78	8.269
428.13	8.240
428.48	8.228
428.83	8.208
429.18	8.195
429.53	8.181
429.87	8.191
430.22	8.163
430.57	8.201
430.92	8.202
431.27	8.208
431.62	8.180
431.97	8.200
432.32	8.188
432.67	8.190
433.01	8.202
433.36	8.203
433.71	8.209
434.06	8.227
434.41	8.198
434.76	8.198
435.11	8.201
435.45	8.204
435.80	8.200
436.15	8.198
436.50	8.212
436.85	8.223
437.20	8.235
437.54	8.248
437.89	8.270
438.24	8.313
438.59	8.323
438.94	8.320
439.29	8.336
439.63	8.338
439.98	8.376
440.33	8.398
440.68	8.440
441.03	8.476
441.37	8.497
441.72	8.539
442.07	8.557
442.42	8.617
442.76	8.668
443.11	8.729
443.46	8.790
443.81	8.821
444.16	8.868
444.50	8.877
444.85	8.905
445.20	8.932
445.55	8.947
445.89	8.975
446.24	8.999
446.59	9.012
446.94	9.037
447.28	9.049
447.63	9.077
447.98	9.101
448.32	9.139
448.67	9.170
449.02	9.216
449.37	9.252
449.71	9.275
450.06	9.300
450.41	9.357
450.75	9.384
451.10	9.409
451.45	9.435
451.79	9.432
452.14	9.460
452.49	9.478
452.84	9.499
453.18	9.533
453.53	9.552
453.88	9.575
454.22	9.582
454.57	9.594
454.92	9.617
455.26	9.639
455.61	9.712
455.95	9.745
456.30	9.771
456.65	9.811
456.99	9.838
457.34	9.874
457.69	9.885
458.03	9.897
458.38	9.924
458.73	9.940
459.07	9.938
459.42	9.909
459.76	9.889
460.11	9.877
460.46	9.849
460.80	9.838
461.15	9.825
461.49	9.806
461.84	9.777
462.19	9.753
462.53	9.754
462.88	9.771
463.22	9.761
463.57	9.754
463.91	9.750
464.26	9.765
464.61	9.761
464.95	9.748
465.30	9.759
465.64	9.785
465.99	9.792
466.33	9.786
466.68	9.794
467.02	9.808
467.37	9.814
467.71	9.805
468.06	9.786
468.41	9.778
468.75	9.792
469.10	9.798
469.44	9.790
469.79	9.775
470.13	9.754
470.48	9.728
470.82	9.741
471.17	9.752
471.51	9.771
471.86	9.770
472.20	9.785
472.55	9.785
472.89	9.786
473.23	9.789
473.58	9.801
473.92	9.819
474.27	9.826
474.61	9.838
474.96	9.852
475.30	9.871
475.65	9.885
475.99	9.886
476.34	9.906
476.68	9.919
477.02	9.927
477.37	9.939
477.71	9.977
478.06	10.031
478.40	10.119
478.75	10.227
479.09	10.354
479.43	10.516
479.78	10.718
480.12	10.928
480.47	11.141
480.81	11.375
481.15	11.594
481.50	11.833
481.84	12.089
482.19	12.346
482.53	12.558
482.87	12.698
483.22	12.715
483.56	12.606
483.90	12.427
484.25	12.203
484.59	11.946
484.94	11.729
485.28	11.517
485.62	11.291
485.97	11.045
486.31	10.839
486.65	10.690
487.00	10.661
487.34	10.707
487.68	10.798
488.03	10.921
488.37	11.063
488.71	11.162
489.06	11.196
489.40	11.218
489.74	11.223
490.09	11.235
490.43	11.253
490.77	11.246
491.11	11.255
491.46	11.271
491.80	11.282
492.14	11.266
492.49	11.268
492.83	11.292
493.17	11.293
493.51	11.318
493.86	11.357
494.20	11.408
494.54	11.462
494.88	11.535
495.23	11.609
495.57	11.696
495.91	11.809
496.25	11.907
496.60	11.982
496.94	12.078
497.28	12.162
497.62	12.258
497.97	12.354
498.31	12.466
498.65	12.565
498.99	12.674
499.33	12.781
499.68	12.879
500.02	12.980
500.36	13.096
500.70	13.210
501.04	13.322
501.39	13.421
501.73	13.554
502.07	13.685
502.41	13.827
502.75	13.977
503.09	14.106
503.44	14.273
503.78	14.412
504.12	14.549
504.46	14.690
504.80	14.853
505.14	15.039
505.49	15.186
505.83	15.331
506.17	15.497
506.51	15.647
506.85	15.805
507.19	15.928
507.53	16.078
507.87	16.248
508.22	16.402
508.56	16.554
508.90	16.655
509.24	16.801
509.58	16.938
509.92	17.085
510.26	17.216
510.60	17.376
510.94	17.560
511.28	17.714
511.63	17.864
511.97	18.034
512.31	18.200
512.65	18.407
512.99	18.593
513.33	18.832
513.67	19.018
514.01	19.276
514.35	19.484
514.69	19.678
515.03	19.874
515.37	20.066
515.71	20.250
516.05	20.429
516.39	20.583
516.73	20.738
517.07	20.858
517.41	20.993
517.75	21.068
518.09	21.166
518.43	21.255
518.77	21.367
519.11	21.488
519.45	21.586
519.79	21.719
520.13	21.856
520.47	21.992
520.81	22.157
521.15	22.317
521.49	22.482
521.83	22.660
522.17	22.853
522.51	23.062
522.85	23.267
523.19	23.529
523.53	23.786
523.87	24.087
524.21	24.368
524.55	24.626
524.89	24.893
525.23	25.151
525.57	25.379
525.91	25.578
526.25	25.757
526.58	25.925
526.92	26.040
527.26	26.111
527.60	26.124
527.94	26.161
528.28	26.159
528.62	26.134
528.96	26.105
529.30	26.072
529.64	26.022
529.97	25.963
530.31	25.900
530.65	25.875
530.99	25.876
531.33	25.936
531.67	25.947
532.01	25.995
532.35	26.008
532.68	26.003
533.02	25.996
533.36	26.005
533.70	26.004
534.04	25.997
534.38	25.991
534.71	25.980
535.05	25.967
535.39	25.965
535.73	25.964
536.07	26.011
536.41	26.059
536.74	26.112
537.08	26.177
537.42	26.290
537.76	26.375
538.10	26.470
538.43	26.565
538.77	26.638
539.11	26.717
539.45	26.774
539.79	26.824
540.12	26.879
540.46	26.908
540.80	26.895
541.14	26.862
541.47	26.832
541.81	26.792
542.15	26.747
542.49	26.709
542.82	26.631
543.16	26.567
543.50	26.498
543.84	26.431
544.17	26.407
544.51	26.435
544.85	26.422
545.18	26.431
545.52	26.404
545.86	26.383
546.20	26.362
546.53	26.375
546.87	26.394
547.21	26.375
547.54	26.376
547.88	26.346
548.22	26.313
548.55	26.278
548.89	26.289
549.23	26.333
549.56	26.355
549.90	26.407
550.24	26.405
550.57	26.419
550.91	26.445
551.25	26.490
551.58	26.504
551.92	26.513
552.26	26.534
552.59	26.529
552.93	26.499
553.27	26.502
553.60	26.451
553.94	26.426
554.27	26.396
554.61	26.390
554.95	26.348
555.28	26.334
555.62	26.335
555.95	26.338
556.29	26.304
556.63	26.285
556.96	26.240
557.30	26.235
557.63	26.232
557.97	26.231
558.31	26.191
558.64	26.140
558.98	26.102
559.31	26.069
559.65	26.042
559.98	26.015
560.32	25.987
560.65	25.957
560.99	25.915
561.33	25.871
561.66	25.813
562.00	25.780
562.33	25.747
562.67	25.696
563.00	25.632
563.34	25.595
563.67	25.540
564.01	25.497
564.34	25.467
564.68	25.394
565.01	25.346
565.35	25.284
565.68	25.225
566.02	25.154
566.35	25.103
566.69	25.038
567.02	24.957
567.36	24.881
567.69	24.807
568.03	24.745
568.36	24.650
568.69	24.550
569.03	24.485
569.36	24.407
569.70	24.339
570.03	24.276
570.37	24.205
570.70	24.154
571.04	24.101
571.37	24.026
571.70	23.930
572.04	23.908
572.37	23.855
572.71	23.779
573.04	23.707
573.37	23.643
573.71	23.591
574.04	23.539
574.38	23.446
574.71	23.398
575.04	23.326
575.38	23.278
575.71	23.198
576.05	23.155
576.38	23.088
576.71	23.036
577.05	22.967
577.38	22.864
577.71	22.788
578.05	22.752
578.38	22.671
578.71	22.627
579.05	22.547
579.38	22.478
579.71	22.423
580.05	22.378
580.38	22.336
580.71	22.300
581.05	22.283
581.38	22.264
581.71	22.219
582.05	22.178
582.38	22.142
582.71	22.116
583.04	22.095
583.38	22.048
583.71	22.048
584.04	22.025
584.38	21.981
584.71	21.949
585.04	21.918
585.37	21.908
585.71	21.884
586.04	21.869
586.37	21.875
586.70	21.845
587.04	21.815
587.37	21.777
587.70	21.748
588.03	21.754
588.37	21.741
588.70	21.685
589.03	21.619
589.36	21.606
589.69	21.567
590.03	21.539
590.36	21.497
590.69	21.460
591.02	21.392
591.35	21.351
591.69	21.295
592.02	21.267
592.35	21.247
592.68	21.234
593.01	21.184
593.35	21.129
593.68	21.089
594.01	21.075
594.34	21.063
594.67	21.078
595.00	21.056
595.34	21.049
595.67	20.998
596.00	20.996
596.33	20.972
596.66	20.942
596.99	20.934
597.32	20.900
597.65	20.883
597.99	20.864
598.32	20.820
598.65	20.771
598.98	20.729
599.31	20.686
599.64	20.668
599.97	20.621
600.30	20.604
600.63	20.592
600.96	20.592
601.30	20.562
601.63	20.539
601.96	20.509
602.29	20.504
602.62	20.471
602.95	20.469
603.28	20.422
603.61	20.385
603.94	20.354
604.27	20.320
604.60	20.294
604.93	20.259
605.26	20.240
605.59	20.226
605.92	20.195
606.25	20.167
606.58	20.125
606.91	20.040
607.24	20.032
607.57	19.975
607.90	19.904
608.23	19.813
608.56	19.757
608.89	19.682
609.22	19.617
609.55	19.539
609.88	19.453
610.21	19.375
610.54	19.352
610.87	19.262
611.20	19.197
611.53	19.168
611.86	19.139
612.19	19.074
612.52	19.009
612.85	18.945
613.18	18.929
613.51	18.841
613.84	18.789
614.17	18.743
614.49	18.703
614.82	18.637
615.15	18.577
615.48	18.535
615.81	18.475
616.14	18.414
616.47	18.354
616.80	18.235
617.13	18.230
617.46	18.180
617.78	18.147
618.11	18.135
618.44	18.122
618.77	18.083
619.10	18.008
619.43	17.986
619.76	17.971
620.09	17.967
620.41	18.020
620.74	17.979
621.07	18.008
621.40	17.989
621.73	17.935
622.06	17.961
622.38	17.936
622.71	17.947
623.04	17.996
623.37	18.033
623.70	18.009
624.02	17.985
624.35	18.038
624.68	18.032
625.01	18.059
625.34	18.104
625.66	18.087
625.99	18.096
626.32	18.104
626.65	18.067
626.98	18.031
627.30	18.030
627.63	18.013
627.96	17.970
628.29	17.948
628.61	17.893
628.94	17.868
629.27	17.828
629.60	17.828
629.92	17.781
630.25	17.758
630.58	17.729
630.91	17.711
631.23	17.657
631.56	17.632
631.89	17.573
632.21	17.548
632.54	17.460
632.87	17.427
633.19	17.362
633.52	17.340
633.85	17.275
634.18	17.200
634.50	17.106
634.83	17.067
635.16	16.982
635.48	16.881
635.81	16.781
636.14	16.701
636.46	16.598
636.79	16.509
637.11	16.399
637.44	16.275
637.77	16.179
638.09	16.101
638.42	15.938
638.75	15.834
639.07	15.775
639.40	15.672
639.73	15.563
640.05	15.460
640.38	15.363
640.70	15.254
641.03	15.188
641.36	15.099
641.68	15.019
642.01	14.950
642.33	14.865
642.66	14.768
642.98	14.708
643.31	14.648
643.64	14.558
643.96	14.515
644.29	14.452
644.61	14.391
644.94	14.298
645.26	14.217
645.59	14.241
645.91	14.211
646.24	14.188
646.56	14.118
646.89	14.067
647.22	14.074
647.54	13.975
647.87	13.947
648.19	13.902
648.52	13.874
648.84	13.841
649.17	13.783
649.49	13.752
649.82	13.722
650.14	13.741
650.47	13.703
650.79	13.642
651.11	13.635
651.44	13.634
651.76	13.606
652.09	13.657
652.41	13.679
652.74	13.652
653.06	13.659
653.39	13.636
653.71	13.585
654.04	13.590
654.36	13.607
654.68	13.611
655.01	13.590
655.33	13.545
655.66	13.482
655.98	13.447
656.30	13.365
656.63	13.313
656.95	13.296
657.28	13.263
657.60	13.216
657.92	13.175
658.25	13.140
658.57	13.071
658.90	13.045
659.22	12.983
659.54	12.912
659.87	12.913
660.19	12.848
660.51	12.800
660.84	12.742
661.16	12.643
661.48	12.581
661.81	12.467
662.13	12.387
662.45	12.352
662.78	12.385
663.10	12.382
663.42	12.343
663.75	12.337
664.07	12.297
664.39	12.246
664.72	12.306
665.04	12.327
665.36	12.446
665.69	12.456
666.01	12.514
666.33	12.501
666.65	12.515
666.98	12.606
667.30	12.675
667.62	12.748
667.94	12.890
668.27	12.970
668.59	13.046
668.91	13.108
669.23	13.287
669.56	13.397
669.88	13.580
670.20	13.692
670.52	13.817
670.85	13.900
671.17	14.086
671.49	14.207
671.81	14.377
672.13	14.526
672.46	14.700
672.78	14.873
673.10	15.086
673.42	15.197
673.74	15.428
674.07	15.635
674.39	15.941
674.71	16.067
675.03	16.292
675.35	16.441
675.67	16.642
676.00	16.775
676.32	16.916
676.64	17.018
676.96	17.208
677.28	17.346
677.60	17.540
677.92	17.704
678.25	17.909
678.57	18.104
678.89	18.297
679.21	18.436
679.53	18.676
679.85	18.917
680.17	19.219
680.49	19.508
680.81	19.835
681.13	20.075
681.46	20.349
681.78	20.704
682.10	21.021
682.42	21.434
682.74	21.845
683.06	22.126
683.38	22.507
683.70	22.863
684.02	23.150
684.34	23.430
684.66	23.739
684.98	24.061
685.30	24.332
685.62	24.543
685.94	24.774
686.26	24.983
686.58	25.261
686.90	25.446
687.22	25.632
687.54	25.874
687.86	26.088
688.18	26.273
688.50	26.549
688.82	26.762
689.14	27.095
689.46	27.378
689.78	27.697
690.10	28.038
690.42	28.334
690.74	28.621
691.06	28.919
691.38	29.246
691.70	29.616
692.02	29.798
692.34	30.093
692.66	30.348
692.98	30.566
693.30	30.697
693.62	30.840
693.94	30.954
694.26	31.162
694.57	31.292
694.89	31.421
695.21	31.550
695.53	31.676
695.85	31.699
696.17	31.808
696.49	31.933
696.81	32.115
697.13	32.273
697.44	32.507
697.76	32.665
698.08	32.897
698.40	33.181
698.72	33.458
699.04	33.763
699.36	34.184
699.67	34.508
699.99	34.856
700.31	35.296
700.63	35.726
700.95	36.176
701.27	36.604
701.58	36.999
701.90	37.215
702.22	37.525
702.54	37.815
702.86	38.065
703.17	38.321
703.49	38.572
703.81	38.818
704.13	39.053
704.45	39.249
704.76	39.371
705.08	39.575
705.40	39.786
705.72	39.919
706.03	40.120
706.35	40.398
706.67	40.458
706.99	40.658
707.30	40.851
707.62	41.046
707.94	41.128
708.26	41.314
708.57	41.386
708.89	41.671
709.21	41.948
709.53	42.128
709.84	42.289
710.16	42.698
710.48	43.012
710.79	43.197
711.11	43.404
711.43	43.680
711.74	44.002
712.06	44.336
712.38	44.643
712.69	44.864
713.01	45.112
713.33	45.396
713.64	45.709
713.96	45.915
714.28	46.222
714.59	46.502
714.91	46.890
715.23	47.189
715.54	47.436
715.86	47.628
716.17	47.994
716.49	48.456
716.81	48.738
717.12	48.922
717.44	49.250
717.76	49.626
718.07	49.919
718.39	50.160
718.70	50.303
719.02	50.588
719.33	50.940
719.65	51.024
719.97	51.109
720.28	51.371
720.60	51.666
720.91	51.922
721.23	52.247
721.54	52.568
721.86	52.778
722.17	53.144
722.49	53.449
722.81	53.444
723.12	53.729
723.44	53.922
723.75	54.098
724.07	54.165
724.38	54.147
724.70	54.077
725.01	54.140
725.33	54.382
725.64	54.562
725.96	54.726
726.27	55.025
726.59	55.246
726.90	55.309
727.22	55.309
727.53	55.570
727.84	55.852
728.16	56.020
728.47	56.194
728.79	56.202
729.10	56.316
729.42	56.317
729.73	56.350
730.05	56.368
730.36	56.572
730.67	56.715
730.99	56.777
731.30	56.884
731.62	57.149
731.93	57.255
732.24	57.436
732.56	57.527
732.87	57.712
733.19	57.903
733.50	58.074
733.81	58.241
734.13	58.354
734.44	58.507
734.76	58.504
735.07	58.406
735.38	58.506
735.70	58.673
736.01	58.711
736.32	58.797
736.64	58.959
736.95	58.975
737.26	59.030
737.58	59.199
737.89	59.186
738.20	59.366
738.52	59.657
738.83	59.737
739.14	59.644
739.45	59.763
739.77	59.888
740.08	59.963
740.39	60.268
740.71	60.507
741.02	60.577
741.33	60.819
741.64	60.840
741.96	60.780
742.27	60.710
742.58	60.797
742.90	60.891
743.21	61.022
743.52	61.245
743.83	61.069
744.14	60.983
744.46	61.094
744.77	61.154
745.08	60.966
745.39	61.059
745.71	61.173
746.02	61.247
746.33	61.204
746.64	61.038
746.95	60.683
747.27	60.751
747.58	60.714
747.89	60.565
748.20	60.258
748.51	60.551
748.82	60.438
749.14	60.414
749.45	60.485
749.76	60.520
750.07	60.603
750.38	60.853
750.69	60.900
751.01	60.864
751.32	60.946
751.63	61.146
751.94	61.039
752.25	61.088
752.56	60.929
752.87	60.862
753.18	60.714
753.49	60.736
753.81	60.518
754.12	60.392
754.43	60.396
754.74	60.284
755.05	60.043
755.36	60.046
755.67	59.972
755.98	60.332
756.29	60.201
756.60	60.328
756.91	60.394
757.22	60.459
757.53	60.649
757.84	60.665
758.15	60.979
758.46	61.170
758.77	61.161
759.09	61.278
759.40	61.096
759.71	61.221
760.02	61.047
760.33	60.757
760.64	60.729
760.95	60.625
761.26	60.514
761.57	60.349
761.88	60.257
762.18	60.230
762.49	60.063
762.80	60.139
763.11	59.972
763.42	59.905
763.73	59.967
764.04	59.884
764.35	59.806
764.66	59.739
764.97	59.607
765.28	59.552
765.59	59.331
765.90	59.145
766.21	58.717
766.52	58.641
766.83	58.545
767.14	58.478
767.44	58.394
767.75	58.172
768.06	58.124
768.37	57.783
768.68	57.705
768.99	57.686
769.30	57.676
769.61	57.581
769.91	57.277
770.22	57.352
770.53	57.214
770.84	57.089
771.15	57.120
771.46	57.144
771.77	57.310
772.07	57.157
772.38	56.915
772.69	57.015
773.00	57.367
773.31	57.834
773.61	57.677
773.92	57.704
774.23	57.693
774.54	57.795
774.85	57.697
775.15	57.463
775.46	57.241
775.77	57.632
776.08	57.346
776.39	57.000
776.69	56.446
777.00	56.539
777.31	56.496
777.62	56.445
777.92	56.160
778.23	56.147
778.54	56.235
778.85	56.584
779.15	56.238
779.46	56.516
779.77	56.377
780.07	56.958
780.38	56.798
780.69	56.724
781.00	56.773
781.30	56.595
781.61	56.312
781.92	56.522
782.22	56.346
782.53	56.764
782.84	56.725
783.14	57.031
783.45	56.744
783.76	57.255
784.06	57.295
784.37	57.174
784.68	57.704
784.98	58.040
785.29	57.967
785.60	58.151
785.90	57.935
786.21	57.928
786.51	57.919
786.82	58.160
787.13	57.867
787.43	58.093
787.74	58.399
788.04	58.395
788.35	58.367
788.66	58.590
788.96	58.492
789.27	58.575
789.57	58.528
789.88	58.517
790.19	58.028
790.49	57.813
790.80	57.383
791.10	57.141
791.41	56.911
791.71	57.111
792.02	56.923
792.32	56.855
792.63	56.985
792.93	56.951
793.24	57.229
793.54	57.298
793.85	57.503
794.15	57.447
794.46	57.503
794.76	57.475
795.07	57.083
795.37	57.028
795.68	57.001
795.98	57.234
796.29	57.674
796.59	57.428
796.90	57.685
797.20	57.562
797.51	57.974
797.81	57.833
798.12	57.907
798.42	58.327
798.72	58.531
799.03	58.622
799.33	58.157
799.64	57.793
799.94	58.058
800.25	58.054
800.55	58.332
800.85	58.687
801.16	58.663
801.46	58.434
801.77	58.290
802.07	58.336
802.37	58.404
802.68	58.675
802.98	58.848
803.28	58.773
803.59	58.498
803.89	58.509
804.20	58.287
804.50	58.346
804.80	58.546
805.11	58.738
805.41	58.516
805.71	58.644
806.02	58.494
806.32	58.197
806.62	57.934
806.93	58.355
807.23	58.309
807.53	58.345
807.83	58.140
808.14	58.664
808.44	58.560
808.74	58.550
809.05	58.695
809.35	58.662
809.65	59.141
809.95	59.688
810.26	59.733
810.56	59.839
810.86	59.621
811.16	59.990
811.47	60.238
811.77	60.333
812.07	60.478
812.37	60.477
812.68	60.933
812.98	61.131
813.28	60.566
813.58	61.225
813.88	60.920
814.19	61.792
814.49	62.176
814.79	61.784
815.09	62.096
815.39	62.036
815.70	62.178
816.00	61.861
816.30	61.253
816.60	61.196
816.90	60.319
817.20	60.335
817.50	59.723
817.81	59.610
818.11	59.497
818.41	59.292
818.71	59.590
819.01	59.718
819.31	60.022
819.61	60.228
819.92	60.547
820.22	60.928
820.52	61.193
820.82	61.531
821.12	61.880
821.42	62.278
821.72	62.452
822.02	62.737
822.32	63.065
822.62	63.300
822.92	63.538
823.22	63.828
823.52	64.044
823.83	64.204
824.13	64.222
824.43	64.113
824.73	64.039
825.03	64.033
825.33	64.076
825.63	63.949
825.93	63.861
826.23	63.869
826.53	63.585
826.83	63.351
827.13	63.328
827.43	63.545
827.73	63.952
828.03	64.097
828.33	64.656
828.63	64.376
828.93	64.318
829.23	64.135
829.53	64.067
829.83	63.718
830.13	63.532
830.42	63.573
830.72	62.933
831.02	62.461
831.32	61.971
831.62	62.121
831.92	62.188
832.22	62.265
832.52	62.168
832.82	62.225
833.12	62.370
833.42	62.522
833.72	62.435
834.01	62.940
834.31	63.022
834.61	63.502
834.91	63.622
835.21	63.869
835.51	63.708
835.81	63.775
836.11	64.013
836.40	64.523
836.70	64.804
837.00	64.817
837.30	64.061
837.60	63.773
837.90	63.438
838.19	62.688
838.49	62.928
838.79	62.832
839.09	63.380
839.39	63.405
839.68	63.404
839.98	62.658
840.28	62.655
840.58	62.768
840.88	63.126
841.17	62.605
841.47	63.039
841.77	62.341
842.07	62.561
842.36	61.836
842.66	61.417
842.96	60.693
843.26	60.433
843.55	60.349
843.85	60.919
844.15	60.237
844.45	60.355
844.74	59.842
845.04	59.406
845.34	59.784
845.63	61.053
845.93	59.754
846.23	61.190
846.53	61.925
846.82	61.354
847.12	62.158
847.42	62.755
847.71	62.421
848.01	62.783
848.31	62.494
848.60	60.909
848.90	59.501
849.19	59.465
849.49	57.969
849.79	57.843
850.08	56.869
850.38	54.476
850.68	54.255
850.97	56.234
851.27	56.650
851.56	57.807
851.86	58.528
852.16	58.570
852.45	59.399
852.75	59.296
853.04	60.765
853.34	62.214
853.64	62.974
853.93	61.011
854.23	60.068
854.52	58.954
854.82	58.938
855.11	59.549
855.41	61.687
855.70	63.838
856.00	65.395
856.30	65.188
856.59	64.672
856.89	66.117
857.18	69.413
857.48	69.368
857.77	68.738
858.07	68.081
858.36	68.157
858.66	66.639
858.95	65.475
859.25	64.252
859.54	62.596
859.84	63.782
860.13	62.483
860.42	60.821
860.72	59.839
861.01	60.387
861.31	61.725
861.60	61.887
861.90	62.463
862.19	63.935
862.49	63.201
862.78	63.974
863.07	64.733
863.37	65.959
863.66	65.857
863.96	67.702
864.25	68.300
864.54	66.375
864.84	67.810
865.13	66.458
865.43	64.313
865.72	70.933
866.01	53.761
866.31	80.116
866.60	49.584
866.89	57.442
>>>>>End Spectral Data<<<<<
