OOIBase32 Version 2.0.0.6 Data File
++++++++++++++++++++++++++++++++++++
Date: 01-23-2012, 23:08:14
User: Valued Ocean Optics Customer
Spectrometer Serial Number: USB2E2917
Spectrometer Channel: Master
Integration Time (msec): 5
Spectra Averaged: 10
Boxcar Smoothing: 5
Correct for Electrical Dark: Enabled
Time Normalized: Disabled
Dual-beam Reference: Disabled
Reference Channel: Master
Temperature: Not acquired
Spectrometer Type: S2000
ADC Type: USB2000
Number of Pixels in File: 2048
Graph Title: 
>>>>>Begin Spectral Data<<<<<
180.30	0.000
180.67	0.000
181.03	-20.748
181.40	340.067
181.77	-2478.287
182.14	44.079
182.51	-343.456
182.88	221.531
183.25	9.265
183.62	-66.055
183.99	-10.752
184.36	61.643
184.73	89.046
185.10	23.116
185.46	-606.568
185.83	-166.269
186.20	-391.763
186.57	243.223
186.94	104.440
187.31	14.319
187.68	121.867
188.05	40.436
188.42	58.335
188.78	150.213
189.15	522.692
189.52	-120.374
189.89	-5.459
190.26	4.118
190.63	17.667
191.00	27.296
191.37	27.546
191.73	31.528
192.10	27.305
192.47	23.941
192.84	16.382
193.21	16.986
193.58	9.010
193.94	-5.616
194.31	1.928
194.68	-6.176
195.05	-9.007
195.42	-13.920
195.79	-33.120
196.15	-42.199
196.52	-22.437
196.89	-20.080
197.26	-22.463
197.63	-16.755
198.00	4.249
198.36	3.188
198.73	8.158
199.10	3.339
199.47	12.203
199.84	5.326
200.20	0.930
200.57	-8.151
200.94	-6.947
201.31	-4.639
201.68	-4.322
202.04	-15.815
202.41	-14.895
202.78	-28.956
203.15	-32.736
203.51	-34.352
203.88	-3.055
204.25	6.588
204.62	4.342
204.98	5.385
205.35	9.329
205.72	5.572
206.09	-5.558
206.46	-67.974
206.82	-72.646
207.19	-71.324
207.56	-126.407
207.92	-124.611
208.29	-137.392
208.66	-98.471
209.03	-90.032
209.39	-72.107
209.76	-49.178
210.13	-60.322
210.50	-21.853
210.86	-3.190
211.23	5.628
211.60	12.279
211.96	7.995
212.33	13.971
212.70	14.017
213.07	8.726
213.43	-33.047
213.80	-56.684
214.17	-23.966
214.53	-17.837
214.90	-6.851
215.27	-1.675
215.63	3.400
216.00	2.141
216.37	3.420
216.74	-4.232
217.10	5.826
217.47	8.628
217.84	14.456
218.20	6.429
218.57	7.006
218.94	-1.262
219.30	-16.156
219.67	-26.704
220.04	-21.483
220.40	-31.459
220.77	-32.372
221.13	-33.327
221.50	-21.404
221.87	-22.400
222.23	-25.991
222.60	-31.177
222.97	-27.044
223.33	-14.921
223.70	-8.348
224.07	-9.056
224.43	-3.416
224.80	-0.949
225.16	-3.224
225.53	-5.142
225.90	-7.050
226.26	-2.432
226.63	-1.337
226.99	0.652
227.36	0.974
227.73	2.078
228.09	1.232
228.46	1.741
228.82	2.869
229.19	2.988
229.56	3.427
229.92	5.241
230.29	3.760
230.65	2.832
231.02	1.013
231.38	-1.776
231.75	-2.755
232.12	-2.853
232.48	-4.556
232.85	-7.849
233.21	-6.938
233.58	-8.975
233.94	-10.114
234.31	-9.913
234.68	-9.254
235.04	-10.712
235.41	-8.744
235.77	-7.717
236.14	-5.977
236.50	-3.982
236.87	-2.357
237.23	-1.547
237.60	-1.131
237.96	-0.281
238.33	-0.888
238.69	-1.236
239.06	-0.043
239.42	-0.276
239.79	-0.582
240.15	-0.417
240.52	-0.585
240.88	-0.221
241.25	-0.031
241.61	0.574
241.98	0.025
242.34	0.193
242.71	0.941
243.07	0.836
243.44	1.005
243.80	1.043
244.17	0.984
244.53	0.744
244.90	0.613
245.26	0.285
245.63	-0.074
245.99	0.128
246.36	0.433
246.72	0.245
247.09	-0.016
247.45	-0.095
247.81	0.192
248.18	0.232
248.54	0.617
248.91	0.370
249.27	0.997
249.64	1.630
250.00	1.586
250.36	1.363
250.73	1.295
251.09	1.684
251.46	1.657
251.82	1.290
252.19	1.294
252.55	0.938
252.91	0.958
253.28	0.546
253.64	-0.186
254.01	0.047
254.37	0.269
254.73	0.501
255.10	0.988
255.46	1.367
255.83	1.617
256.19	1.642
256.55	1.562
256.92	1.831
257.28	1.673
257.65	1.821
258.01	1.855
258.37	1.793
258.74	1.586
259.10	1.184
259.46	1.037
259.83	0.885
260.19	0.729
260.55	0.660
260.92	0.641
261.28	0.631
261.64	0.688
262.01	0.654
262.37	0.519
262.73	0.898
263.10	1.580
263.46	1.581
263.82	1.534
264.19	1.430
264.55	1.114
264.91	0.659
265.28	0.361
265.64	0.219
266.00	0.072
266.37	0.239
266.73	0.181
267.09	-0.223
267.46	-0.259
267.82	-0.231
268.18	0.131
268.54	0.618
268.91	0.773
269.27	1.017
269.63	1.201
270.00	1.154
270.36	1.010
270.72	0.870
271.08	0.770
271.45	0.641
271.81	0.480
272.17	0.102
272.53	0.023
272.90	-0.061
273.26	-0.024
273.62	-0.111
273.98	-0.162
274.35	-0.330
274.71	-0.217
275.07	-0.015
275.43	0.167
275.80	0.179
276.16	0.503
276.52	0.421
276.88	0.447
277.25	0.265
277.61	-0.013
277.97	-0.039
278.33	0.060
278.69	-0.122
279.06	-0.143
279.42	-0.292
279.78	-0.296
280.14	-0.467
280.50	-0.377
280.87	-0.325
281.23	-0.152
281.59	0.067
281.95	0.209
282.31	0.295
282.68	0.243
283.04	0.175
283.40	0.353
283.76	0.573
284.12	0.667
284.48	0.710
284.85	0.733
285.21	0.641
285.57	0.478
285.93	0.354
286.29	0.324
286.65	0.566
287.02	0.871
287.38	0.871
287.74	0.778
288.10	0.744
288.46	0.699
288.82	0.750
289.18	0.903
289.54	0.948
289.91	1.080
290.27	1.035
290.63	1.038
290.99	0.857
291.35	0.863
291.71	0.783
292.07	0.730
292.43	0.469
292.79	0.470
293.16	0.387
293.52	0.548
293.88	0.607
294.24	0.632
294.60	0.541
294.96	0.590
295.32	0.619
295.68	0.735
296.04	0.719
296.40	0.875
296.76	0.875
297.12	0.839
297.49	0.629
297.85	0.458
298.21	0.425
298.57	0.201
298.93	0.242
299.29	0.151
299.65	0.223
300.01	0.338
300.37	0.338
300.73	0.483
301.09	0.440
301.45	0.780
301.81	1.031
302.17	1.260
302.53	1.343
302.89	1.267
303.25	1.234
303.61	1.010
303.97	0.738
304.33	0.828
304.69	0.724
305.05	0.913
305.41	0.677
305.77	0.655
306.13	0.482
306.49	0.541
306.85	0.499
307.21	0.657
307.57	0.727
307.93	0.794
308.29	0.864
308.65	0.826
309.01	0.752
309.37	0.846
309.73	0.729
310.09	0.906
310.45	0.998
310.81	0.939
311.17	0.765
311.53	0.665
311.89	0.782
312.25	0.638
312.61	0.678
312.96	0.650
313.32	0.752
313.68	0.793
314.04	0.573
314.40	0.604
314.76	0.609
315.12	0.810
315.48	0.965
315.84	0.976
316.20	0.876
316.56	0.914
316.92	0.892
317.27	0.686
317.63	0.732
317.99	0.776
318.35	0.657
318.71	0.736
319.07	0.712
319.43	0.756
319.79	0.809
320.15	0.978
320.50	0.925
320.86	0.958
321.22	1.029
321.58	0.943
321.94	0.935
322.30	0.925
322.66	0.861
323.01	0.741
323.37	0.600
323.73	0.586
324.09	0.441
324.45	0.417
324.81	0.440
325.17	0.466
325.52	0.485
325.88	0.470
326.24	0.592
326.60	0.615
326.96	0.670
327.31	0.743
327.67	0.679
328.03	0.760
328.39	0.759
328.75	0.803
329.11	0.852
329.46	0.904
329.82	0.909
330.18	0.768
330.54	0.675
330.90	0.649
331.25	0.649
331.61	0.767
331.97	0.866
332.33	0.969
332.68	0.910
333.04	0.861
333.40	0.737
333.76	0.707
334.11	0.724
334.47	0.767
334.83	0.733
335.19	0.720
335.54	0.617
335.90	0.470
336.26	0.371
336.62	0.272
336.97	0.207
337.33	0.197
337.69	0.205
338.05	0.204
338.40	0.189
338.76	0.224
339.12	0.289
339.48	0.335
339.83	0.410
340.19	0.476
340.55	0.600
340.90	0.666
341.26	0.752
341.62	0.804
341.97	0.865
342.33	0.968
342.69	1.018
343.04	0.970
343.40	0.894
343.76	0.829
344.12	0.837
344.47	0.945
344.83	1.048
345.19	1.122
345.54	1.220
345.90	1.287
346.26	1.362
346.61	1.472
346.97	1.528
347.32	1.650
347.68	1.746
348.04	1.728
348.39	1.618
348.75	1.628
349.11	1.590
349.46	1.509
349.82	1.486
350.18	1.437
350.53	1.406
350.89	1.429
351.24	1.407
351.60	1.461
351.96	1.618
352.31	1.710
352.67	1.742
353.02	1.831
353.38	1.937
353.74	2.037
354.09	2.070
354.45	2.169
354.80	2.284
355.16	2.377
355.52	2.402
355.87	2.350
356.23	2.363
356.58	2.421
356.94	2.504
357.29	2.526
357.65	2.558
358.00	2.626
358.36	2.635
358.72	2.683
359.07	2.726
359.43	2.872
359.78	3.004
360.14	3.100
360.49	3.122
360.85	3.161
361.20	3.269
361.56	3.323
361.91	3.386
362.27	3.403
362.62	3.396
362.98	3.462
363.33	3.397
363.69	3.401
364.04	3.473
364.40	3.546
364.75	3.566
365.11	3.543
365.46	3.585
365.82	3.668
366.17	3.725
366.53	3.865
366.88	3.882
367.24	4.027
367.59	4.078
367.95	4.141
368.30	4.154
368.66	4.206
369.01	4.303
369.37	4.309
369.72	4.333
370.08	4.437
370.43	4.406
370.78	4.502
371.14	4.497
371.49	4.556
371.85	4.543
372.20	4.573
372.56	4.612
372.91	4.630
373.26	4.689
373.62	4.720
373.97	4.714
374.33	4.751
374.68	4.740
375.03	4.766
375.39	4.755
375.74	4.779
376.10	4.818
376.45	4.898
376.80	4.910
377.16	4.938
377.51	4.980
377.87	5.032
378.22	5.046
378.57	5.063
378.93	5.087
379.28	5.143
379.63	5.174
379.99	5.206
380.34	5.138
380.70	5.178
381.05	5.201
381.40	5.208
381.76	5.218
382.11	5.241
382.46	5.278
382.82	5.320
383.17	5.284
383.52	5.310
383.88	5.324
384.23	5.359
384.58	5.343
384.94	5.340
385.29	5.338
385.64	5.346
385.99	5.351
386.35	5.368
386.70	5.383
387.05	5.402
387.41	5.375
387.76	5.380
388.11	5.419
388.47	5.450
388.82	5.499
389.17	5.481
389.52	5.448
389.88	5.493
390.23	5.482
390.58	5.492
390.93	5.514
391.29	5.511
391.64	5.537
391.99	5.564
392.34	5.595
392.70	5.576
393.05	5.581
393.40	5.615
393.75	5.581
394.11	5.593
394.46	5.548
394.81	5.548
395.16	5.563
395.52	5.545
395.87	5.529
396.22	5.500
396.57	5.472
396.92	5.483
397.28	5.471
397.63	5.461
397.98	5.459
398.33	5.453
398.68	5.434
399.04	5.468
399.39	5.476
399.74	5.441
400.09	5.439
400.44	5.450
400.80	5.432
401.15	5.415
401.50	5.404
401.85	5.383
402.20	5.372
402.55	5.380
402.90	5.320
403.26	5.299
403.61	5.266
403.96	5.223
404.31	5.196
404.66	5.174
405.01	5.160
405.36	5.182
405.72	5.167
406.07	5.192
406.42	5.166
406.77	5.196
407.12	5.153
407.47	5.188
407.82	5.215
408.17	5.208
408.53	5.201
408.88	5.195
409.23	5.136
409.58	5.139
409.93	5.128
410.28	5.147
410.63	5.116
410.98	5.127
411.33	5.103
411.68	5.110
412.03	5.124
412.38	5.123
412.73	5.136
413.09	5.177
413.44	5.197
413.79	5.218
414.14	5.208
414.49	5.226
414.84	5.251
415.19	5.278
415.54	5.285
415.89	5.276
416.24	5.327
416.59	5.339
416.94	5.349
417.29	5.355
417.64	5.326
417.99	5.359
418.34	5.367
418.69	5.385
419.04	5.384
419.39	5.385
419.74	5.395
420.09	5.400
420.44	5.392
420.79	5.395
421.14	5.391
421.49	5.421
421.84	5.395
422.19	5.398
422.54	5.370
422.89	5.364
423.24	5.356
423.59	5.357
423.94	5.326
424.29	5.330
424.64	5.313
424.99	5.294
425.34	5.252
425.68	5.246
426.03	5.215
426.38	5.227
426.73	5.223
427.08	5.218
427.43	5.214
427.78	5.231
428.13	5.219
428.48	5.228
428.83	5.207
429.18	5.220
429.53	5.205
429.87	5.208
430.22	5.182
430.57	5.204
430.92	5.188
431.27	5.183
431.62	5.161
431.97	5.164
432.32	5.142
432.67	5.155
433.01	5.147
433.36	5.164
433.71	5.157
434.06	5.159
434.41	5.121
434.76	5.146
435.11	5.156
435.45	5.163
435.80	5.166
436.15	5.185
436.50	5.207
436.85	5.230
437.20	5.227
437.54	5.241
437.89	5.248
438.24	5.260
438.59	5.261
438.94	5.262
439.29	5.263
439.63	5.282
439.98	5.285
440.33	5.278
440.68	5.277
441.03	5.295
441.37	5.326
441.72	5.343
442.07	5.354
442.42	5.380
442.76	5.399
443.11	5.421
443.46	5.443
443.81	5.457
444.16	5.482
444.50	5.493
444.85	5.499
445.20	5.494
445.55	5.505
445.89	5.531
446.24	5.529
446.59	5.537
446.94	5.558
447.28	5.555
447.63	5.560
447.98	5.589
448.32	5.621
448.67	5.642
449.02	5.640
449.37	5.632
449.71	5.646
450.06	5.638
450.41	5.646
450.75	5.641
451.10	5.646
451.45	5.654
451.79	5.620
452.14	5.612
452.49	5.619
452.84	5.648
453.18	5.677
453.53	5.662
453.88	5.686
454.22	5.693
454.57	5.709
454.92	5.731
455.26	5.765
455.61	5.804
455.95	5.843
456.30	5.858
456.65	5.878
456.99	5.902
457.34	5.918
457.69	5.933
458.03	5.937
458.38	5.947
458.73	5.948
459.07	5.936
459.42	5.904
459.76	5.873
460.11	5.851
460.46	5.815
460.80	5.789
461.15	5.782
461.49	5.759
461.84	5.759
462.19	5.739
462.53	5.724
462.88	5.732
463.22	5.747
463.57	5.735
463.91	5.750
464.26	5.778
464.61	5.772
464.95	5.759
465.30	5.752
465.64	5.739
465.99	5.739
466.33	5.747
466.68	5.739
467.02	5.736
467.37	5.733
467.71	5.707
468.06	5.693
468.41	5.670
468.75	5.674
469.10	5.678
469.44	5.680
469.79	5.667
470.13	5.633
470.48	5.610
470.82	5.616
471.17	5.624
471.51	5.618
471.86	5.601
472.20	5.622
472.55	5.623
472.89	5.623
473.23	5.608
473.58	5.612
473.92	5.629
474.27	5.628
474.61	5.605
474.96	5.602
475.30	5.623
475.65	5.629
475.99	5.628
476.34	5.626
476.68	5.622
477.02	5.638
477.37	5.656
477.71	5.686
478.06	5.736
478.40	5.825
478.75	5.905
479.09	6.007
479.43	6.122
479.78	6.266
480.12	6.420
480.47	6.576
480.81	6.721
481.15	6.856
481.50	7.011
481.84	7.178
482.19	7.334
482.53	7.476
482.87	7.551
483.22	7.568
483.56	7.493
483.90	7.370
484.25	7.216
484.59	7.062
484.94	6.931
485.28	6.791
485.62	6.628
485.97	6.472
486.31	6.329
486.65	6.241
487.00	6.205
487.34	6.229
487.68	6.280
488.03	6.346
488.37	6.412
488.71	6.449
489.06	6.454
489.40	6.471
489.74	6.461
490.09	6.464
490.43	6.457
490.77	6.439
491.11	6.423
491.46	6.415
491.80	6.403
492.14	6.394
492.49	6.392
492.83	6.382
493.17	6.360
493.51	6.367
493.86	6.368
494.20	6.378
494.54	6.409
494.88	6.463
495.23	6.498
495.57	6.555
495.91	6.611
496.25	6.668
496.60	6.724
496.94	6.781
497.28	6.821
497.62	6.866
497.97	6.911
498.31	6.955
498.65	6.993
498.99	7.027
499.33	7.094
499.68	7.150
500.02	7.193
500.36	7.249
500.70	7.300
501.04	7.361
501.39	7.416
501.73	7.516
502.07	7.614
502.41	7.702
502.75	7.825
503.09	7.899
503.44	7.971
503.78	8.055
504.12	8.147
504.46	8.243
504.80	8.369
505.14	8.493
505.49	8.581
505.83	8.670
506.17	8.767
506.51	8.843
506.85	8.938
507.19	9.044
507.53	9.146
507.87	9.252
508.22	9.353
508.56	9.421
508.90	9.503
509.24	9.588
509.58	9.665
509.92	9.763
510.26	9.871
510.60	9.978
510.94	10.073
511.28	10.162
511.63	10.264
511.97	10.375
512.31	10.499
512.65	10.612
512.99	10.756
513.33	10.926
513.67	11.070
514.01	11.226
514.35	11.373
514.69	11.532
515.03	11.682
515.37	11.843
515.71	11.984
516.05	12.112
516.39	12.229
516.73	12.346
517.07	12.420
517.41	12.503
517.75	12.574
518.09	12.664
518.43	12.737
518.77	12.807
519.11	12.866
519.45	12.938
519.79	13.030
520.13	13.132
520.47	13.236
520.81	13.348
521.15	13.481
521.49	13.599
521.83	13.729
522.17	13.851
522.51	14.021
522.85	14.194
523.19	14.392
523.53	14.608
523.87	14.833
524.21	15.052
524.55	15.278
524.89	15.474
525.23	15.671
525.57	15.835
525.91	16.000
526.25	16.133
526.58	16.255
526.92	16.347
527.26	16.392
527.60	16.415
527.94	16.431
528.28	16.437
528.62	16.420
528.96	16.394
529.30	16.374
529.64	16.343
529.97	16.308
530.31	16.265
530.65	16.251
530.99	16.252
531.33	16.286
531.67	16.288
532.01	16.302
532.35	16.322
532.68	16.355
533.02	16.362
533.36	16.365
533.70	16.358
534.04	16.364
534.38	16.362
534.71	16.384
535.05	16.353
535.39	16.377
535.73	16.391
536.07	16.408
536.41	16.429
536.74	16.461
537.08	16.509
537.42	16.586
537.76	16.649
538.10	16.716
538.43	16.782
538.77	16.879
539.11	16.934
539.45	16.982
539.79	17.033
540.12	17.060
540.46	17.074
540.80	17.069
541.14	17.053
541.47	17.016
541.81	16.982
542.15	16.934
542.49	16.869
542.82	16.822
543.16	16.766
543.50	16.709
543.84	16.671
544.17	16.639
544.51	16.637
544.85	16.622
545.18	16.636
545.52	16.613
545.86	16.581
546.20	16.600
546.53	16.586
546.87	16.578
547.21	16.585
547.54	16.545
547.88	16.532
548.22	16.500
548.55	16.499
548.89	16.499
549.23	16.500
549.56	16.526
549.90	16.516
550.24	16.516
550.57	16.512
550.91	16.501
551.25	16.515
551.58	16.530
551.92	16.547
552.26	16.522
552.59	16.502
552.93	16.507
553.27	16.513
553.60	16.493
553.94	16.488
554.27	16.465
554.61	16.447
554.95	16.434
555.28	16.399
555.62	16.353
555.95	16.366
556.29	16.353
556.63	16.305
556.96	16.274
557.30	16.259
557.63	16.215
557.97	16.170
558.31	16.142
558.64	16.125
558.98	16.098
559.31	16.091
559.65	16.038
559.98	15.979
560.32	15.955
560.65	15.930
560.99	15.902
561.33	15.859
561.66	15.847
562.00	15.796
562.33	15.748
562.67	15.702
563.00	15.642
563.34	15.614
563.67	15.605
564.01	15.574
564.34	15.533
564.68	15.466
565.01	15.423
565.35	15.386
565.68	15.337
566.02	15.271
566.35	15.212
566.69	15.154
567.02	15.108
567.36	15.030
567.69	14.950
568.03	14.906
568.36	14.830
568.69	14.767
569.03	14.714
569.36	14.650
569.70	14.596
570.03	14.568
570.37	14.525
570.70	14.489
571.04	14.440
571.37	14.392
571.70	14.327
572.04	14.298
572.37	14.238
572.71	14.150
573.04	14.122
573.37	14.096
573.71	14.038
574.04	13.976
574.38	13.865
574.71	13.810
575.04	13.766
575.38	13.688
575.71	13.620
576.05	13.584
576.38	13.564
576.71	13.478
577.05	13.416
577.38	13.345
577.71	13.284
578.05	13.254
578.38	13.185
578.71	13.126
579.05	13.062
579.38	12.986
579.71	12.935
580.05	12.877
580.38	12.852
580.71	12.775
581.05	12.738
581.38	12.727
581.71	12.696
582.05	12.700
582.38	12.674
582.71	12.650
583.04	12.663
583.38	12.617
583.71	12.580
584.04	12.539
584.38	12.522
584.71	12.504
585.04	12.462
585.37	12.441
585.71	12.398
586.04	12.385
586.37	12.393
586.70	12.368
587.04	12.355
587.37	12.344
587.70	12.347
588.03	12.354
588.37	12.356
588.70	12.360
589.03	12.308
589.36	12.279
589.69	12.228
590.03	12.190
590.36	12.156
590.69	12.128
591.02	12.086
591.35	12.066
591.69	12.042
592.02	12.004
592.35	11.955
592.68	11.948
593.01	11.942
593.35	11.948
593.68	11.944
594.01	11.961
594.34	11.952
594.67	11.974
595.00	11.941
595.34	11.895
595.67	11.856
596.00	11.829
596.33	11.804
596.66	11.747
596.99	11.691
597.32	11.633
597.65	11.563
597.99	11.523
598.32	11.445
598.65	11.404
598.98	11.370
599.31	11.358
599.64	11.359
599.97	11.321
600.30	11.313
600.63	11.326
600.96	11.333
601.30	11.342
601.63	11.351
601.96	11.348
602.29	11.344
602.62	11.333
602.95	11.299
603.28	11.273
603.61	11.261
603.94	11.232
604.27	11.195
604.60	11.156
604.93	11.125
605.26	11.107
605.59	11.083
605.92	11.050
606.25	11.003
606.58	10.974
606.91	10.913
607.24	10.872
607.57	10.851
607.90	10.816
608.23	10.760
608.56	10.716
608.89	10.639
609.22	10.602
609.55	10.523
609.88	10.484
610.21	10.424
610.54	10.380
610.87	10.329
611.20	10.262
611.53	10.209
611.86	10.168
612.19	10.070
612.52	10.005
612.85	9.942
613.18	9.939
613.51	9.855
613.84	9.793
614.17	9.748
614.49	9.760
614.82	9.728
615.15	9.692
615.48	9.658
615.81	9.647
616.14	9.638
616.47	9.582
616.80	9.523
617.13	9.561
617.46	9.567
617.78	9.537
618.11	9.435
618.44	9.412
618.77	9.367
619.10	9.314
619.43	9.295
619.76	9.227
620.09	9.215
620.41	9.201
620.74	9.157
621.07	9.153
621.40	9.179
621.73	9.221
622.06	9.245
622.38	9.270
622.71	9.288
623.04	9.305
623.37	9.350
623.70	9.378
624.02	9.405
624.35	9.435
624.68	9.422
625.01	9.438
625.34	9.434
625.66	9.421
625.99	9.418
626.32	9.447
626.65	9.437
626.98	9.431
627.30	9.406
627.63	9.382
627.96	9.338
628.29	9.318
628.61	9.283
628.94	9.278
629.27	9.236
629.60	9.201
629.92	9.170
630.25	9.118
630.58	9.070
630.91	9.047
631.23	9.016
631.56	9.008
631.89	8.975
632.21	8.947
632.54	8.893
632.87	8.866
633.19	8.799
633.52	8.735
633.85	8.707
634.18	8.661
634.50	8.626
634.83	8.573
635.16	8.506
635.48	8.407
635.81	8.311
636.14	8.228
636.46	8.159
636.79	8.093
637.11	8.021
637.44	7.912
637.77	7.835
638.09	7.750
638.42	7.656
638.75	7.552
639.07	7.523
639.40	7.456
639.73	7.400
640.05	7.330
640.38	7.330
640.70	7.247
641.03	7.224
641.36	7.150
641.68	7.083
642.01	7.050
642.33	6.995
642.66	6.948
642.98	6.897
643.31	6.893
643.64	6.874
643.96	6.832
644.29	6.803
644.61	6.791
644.94	6.803
645.26	6.808
645.59	6.787
645.91	6.776
646.24	6.770
646.56	6.771
646.89	6.716
647.22	6.644
647.54	6.621
647.87	6.621
648.19	6.548
648.52	6.525
648.84	6.472
649.17	6.413
649.49	6.410
649.82	6.342
650.14	6.321
650.47	6.326
650.79	6.330
651.11	6.275
651.44	6.242
651.76	6.241
652.09	6.254
652.41	6.276
652.74	6.330
653.06	6.333
653.39	6.408
653.71	6.415
654.04	6.341
654.36	6.376
654.68	6.386
655.01	6.419
655.33	6.440
655.66	6.414
655.98	6.431
656.30	6.391
656.63	6.400
656.95	6.370
657.28	6.383
657.60	6.408
657.92	6.371
658.25	6.367
658.57	6.391
658.90	6.377
659.22	6.350
659.54	6.284
659.87	6.288
660.19	6.221
660.51	6.160
660.84	6.097
661.16	6.045
661.48	6.021
661.81	5.974
662.13	5.868
662.45	5.865
662.78	5.894
663.10	5.928
663.42	5.946
663.75	6.005
664.07	6.039
664.39	6.026
664.72	6.061
665.04	6.070
665.36	6.142
665.69	6.180
666.01	6.212
666.33	6.218
666.65	6.200
666.98	6.226
667.30	6.289
667.62	6.344
667.94	6.408
668.27	6.505
668.59	6.628
668.91	6.716
669.23	6.856
669.56	6.932
669.88	7.055
670.20	7.173
670.52	7.301
670.85	7.375
671.17	7.531
671.49	7.698
671.81	7.830
672.13	7.925
672.46	8.020
672.78	8.118
673.10	8.288
673.42	8.417
673.74	8.588
674.07	8.742
674.39	8.920
674.71	9.068
675.03	9.249
675.35	9.431
675.67	9.581
676.00	9.719
676.32	9.856
676.64	9.963
676.96	10.116
677.28	10.247
677.60	10.350
677.92	10.498
678.25	10.658
678.57	10.800
678.89	10.894
679.21	11.073
679.53	11.272
679.85	11.447
680.17	11.617
680.49	11.753
680.81	11.971
681.13	12.156
681.46	12.336
681.78	12.519
682.10	12.684
682.42	12.915
682.74	13.111
683.06	13.333
683.38	13.580
683.70	13.844
684.02	14.093
684.34	14.369
684.66	14.597
684.98	14.817
685.30	15.015
685.62	15.203
685.94	15.371
686.26	15.542
686.58	15.726
686.90	15.837
687.22	15.977
687.54	16.097
687.86	16.147
688.18	16.246
688.50	16.419
688.82	16.557
689.14	16.702
689.46	16.937
689.78	17.075
690.10	17.201
690.42	17.377
690.74	17.503
691.06	17.692
691.38	17.908
691.70	18.162
692.02	18.286
692.34	18.467
692.66	18.698
692.98	18.790
693.30	19.058
693.62	19.242
693.94	19.399
694.26	19.567
694.57	19.683
694.89	19.807
695.21	19.917
695.53	20.072
695.85	20.128
696.17	20.240
696.49	20.417
696.81	20.489
697.13	20.553
697.44	20.750
697.76	20.932
698.08	21.156
698.40	21.408
698.72	21.654
699.04	21.871
699.36	22.228
699.67	22.461
699.99	22.715
700.31	23.018
700.63	23.346
700.95	23.607
701.27	23.949
701.58	24.134
701.90	24.218
702.22	24.388
702.54	24.538
702.86	24.713
703.17	24.903
703.49	25.092
703.81	25.343
704.13	25.565
704.45	25.816
704.76	25.957
705.08	26.236
705.40	26.476
705.72	26.695
706.03	26.906
706.35	27.022
706.67	27.142
706.99	27.270
707.30	27.406
707.62	27.620
707.94	27.733
708.26	27.892
708.57	27.993
708.89	28.148
709.21	28.319
709.53	28.549
709.84	28.732
710.16	28.999
710.48	29.257
710.79	29.493
711.11	29.629
711.43	29.716
711.74	29.852
712.06	30.103
712.38	30.334
712.69	30.475
713.01	30.613
713.33	30.884
713.64	31.202
713.96	31.400
714.28	31.570
714.59	31.869
714.91	32.211
715.23	32.583
715.54	32.750
715.86	33.094
716.17	33.462
716.49	33.759
716.81	33.901
717.12	34.038
717.44	34.288
717.76	34.606
718.07	34.736
718.39	34.910
718.70	34.991
719.02	35.330
719.33	35.423
719.65	35.544
719.97	35.680
720.28	35.892
720.60	36.074
720.91	36.242
721.23	36.336
721.54	36.635
721.86	36.854
722.17	37.097
722.49	37.133
722.81	37.190
723.12	37.375
723.44	37.667
723.75	37.900
724.07	37.997
724.38	38.156
724.70	38.355
725.01	38.399
725.33	38.528
725.64	38.615
725.96	38.773
726.27	38.872
726.59	38.914
726.90	38.940
727.22	38.885
727.53	39.103
727.84	39.165
728.16	39.131
728.47	39.381
728.79	39.561
729.10	39.677
729.42	39.923
729.73	40.175
730.05	40.341
730.36	40.409
730.67	40.762
730.99	40.820
731.30	40.981
731.62	41.132
731.93	41.123
732.24	41.203
732.56	41.341
732.87	41.452
733.19	41.547
733.50	41.656
733.81	41.836
734.13	41.993
734.44	42.174
734.76	42.283
735.07	42.480
735.38	42.638
735.70	42.844
736.01	42.923
736.32	42.813
736.64	42.991
736.95	43.082
737.26	43.225
737.58	43.260
737.89	43.290
738.20	43.283
738.52	43.529
738.83	43.485
739.14	43.446
739.45	43.465
739.77	43.701
740.08	43.687
740.39	43.832
740.71	43.950
741.02	43.890
741.33	43.987
741.64	44.193
741.96	44.072
742.27	44.216
742.58	44.299
742.90	44.494
743.21	44.564
743.52	44.700
743.83	44.730
744.14	44.632
744.46	44.805
744.77	44.916
745.08	44.763
745.39	44.780
745.71	44.785
746.02	44.851
746.33	44.805
746.64	44.672
746.95	44.703
747.27	44.862
747.58	44.998
747.89	44.943
748.20	44.862
748.51	45.046
748.82	44.963
749.14	45.111
749.45	45.019
749.76	45.128
750.07	45.387
750.38	45.264
750.69	45.110
751.01	45.038
751.32	45.028
751.63	45.073
751.94	44.966
752.25	44.920
752.56	44.788
752.87	44.702
753.18	44.460
753.49	44.332
753.81	44.535
754.12	44.326
754.43	44.249
754.74	44.036
755.05	43.963
755.36	43.967
755.67	44.218
755.98	44.447
756.29	44.678
756.60	44.928
756.91	44.919
757.22	44.996
757.53	45.372
757.84	45.658
758.15	46.088
758.46	46.388
758.77	46.524
759.09	46.520
759.40	46.426
759.71	46.349
760.02	46.290
760.33	46.280
760.64	46.073
760.95	46.109
761.26	45.827
761.57	45.635
761.88	45.422
762.18	45.355
762.49	45.289
762.80	45.281
763.11	45.221
763.42	45.057
763.73	44.905
764.04	44.930
764.35	44.761
764.66	44.757
764.97	44.557
765.28	44.404
765.59	44.218
765.90	44.059
766.21	43.771
766.52	43.643
766.83	43.499
767.14	43.500
767.44	43.074
767.75	42.763
768.06	42.603
768.37	42.317
768.68	42.250
768.99	42.105
769.30	41.819
769.61	41.710
769.91	41.383
770.22	41.216
770.53	41.202
770.84	41.238
771.15	41.168
771.46	41.107
771.77	41.043
772.07	41.087
772.38	41.278
772.69	41.383
773.00	41.523
773.31	41.753
773.61	41.695
773.92	41.564
774.23	41.572
774.54	41.234
774.85	41.080
775.15	41.202
775.46	40.852
775.77	40.623
776.08	40.502
776.39	40.232
776.69	40.187
777.00	40.462
777.31	40.467
777.62	40.504
777.92	40.668
778.23	40.900
778.54	40.837
778.85	40.924
779.15	40.651
779.46	40.774
779.77	40.784
780.07	40.836
780.38	40.702
780.69	40.473
781.00	40.399
781.30	40.431
781.61	40.111
781.92	40.466
782.22	40.340
782.53	40.686
782.84	40.535
783.14	40.914
783.45	40.642
783.76	40.885
784.06	41.177
784.37	41.106
784.68	41.196
784.98	41.426
785.29	41.405
785.60	41.817
785.90	41.774
786.21	41.758
786.51	41.529
786.82	41.953
787.13	41.844
787.43	41.778
787.74	42.221
788.04	42.388
788.35	42.324
788.66	42.419
788.96	42.195
789.27	42.190
789.57	42.056
789.88	42.111
790.19	42.028
790.49	42.240
790.80	42.271
791.10	42.263
791.41	41.871
791.71	42.058
792.02	42.066
792.32	42.155
792.63	42.201
792.93	42.245
793.24	42.116
793.54	42.030
793.85	41.923
794.15	41.770
794.46	41.464
794.76	41.632
795.07	41.588
795.37	41.386
795.68	41.301
795.98	41.634
796.29	42.269
796.59	42.279
796.90	42.362
797.20	42.507
797.51	42.312
797.81	42.492
798.12	42.793
798.42	42.857
798.72	42.937
799.03	43.096
799.33	42.837
799.64	42.485
799.94	42.622
800.25	42.508
800.55	42.524
800.85	42.971
801.16	42.983
801.46	42.681
801.77	42.494
802.07	42.638
802.37	42.689
802.68	42.664
802.98	42.803
803.28	42.667
803.59	42.950
803.89	42.691
804.20	42.807
804.50	42.841
804.80	43.427
805.11	43.622
805.41	43.435
805.71	43.443
806.02	43.436
806.32	43.021
806.62	43.304
806.93	43.302
807.23	43.776
807.53	43.651
807.83	43.409
808.14	43.279
808.44	43.391
808.74	43.772
809.05	43.711
809.35	43.672
809.65	44.283
809.95	44.343
810.26	44.002
810.56	44.107
810.86	44.219
811.16	44.431
811.47	44.328
811.77	44.767
812.07	44.695
812.37	44.964
812.68	45.258
812.98	45.246
813.28	45.240
813.58	45.948
813.88	45.295
814.19	45.360
814.49	45.479
814.79	45.776
815.09	45.587
815.39	45.545
815.70	45.951
816.00	46.014
816.30	45.757
816.60	45.858
816.90	45.149
817.20	45.565
817.50	45.702
817.81	45.628
818.11	45.376
818.41	45.342
818.71	45.244
819.01	45.306
819.31	45.533
819.61	45.981
819.92	46.098
820.22	46.434
820.52	46.583
820.82	46.779
821.12	47.021
821.42	47.311
821.72	47.499
822.02	47.802
822.32	48.052
822.62	48.247
822.92	48.346
823.22	48.587
823.52	48.745
823.83	48.834
824.13	48.884
824.43	48.857
824.73	48.853
825.03	48.854
825.33	48.879
825.63	48.765
825.93	48.602
826.23	48.281
826.53	48.088
826.83	47.991
827.13	48.180
827.43	48.325
827.73	48.467
828.03	48.631
828.33	48.913
828.63	49.022
828.93	48.991
829.23	49.026
829.53	49.207
829.83	49.235
830.13	48.787
830.42	48.320
830.72	47.574
831.02	47.475
831.32	47.222
831.62	47.173
831.92	46.956
832.22	46.945
832.52	46.938
832.82	46.966
833.12	47.014
833.42	47.165
833.72	47.266
834.01	47.811
834.31	47.662
834.61	47.647
834.91	47.807
835.21	48.175
835.51	48.368
835.81	48.544
836.11	48.630
836.40	48.500
836.70	49.027
837.00	49.065
837.30	48.684
837.60	48.880
837.90	48.730
838.19	48.069
838.49	47.753
838.79	47.272
839.09	47.167
839.39	47.116
839.68	47.067
839.98	45.819
840.28	44.959
840.58	44.389
840.88	44.506
841.17	44.151
841.47	44.325
841.77	43.781
842.07	43.788
842.36	43.257
842.66	42.833
842.96	42.222
843.26	42.095
843.55	42.102
843.85	43.170
844.15	42.271
844.45	41.049
844.74	41.159
845.04	40.273
845.34	40.662
845.63	40.050
845.93	40.891
846.23	41.534
846.53	42.576
846.82	42.731
847.12	41.639
847.42	40.790
847.71	41.233
848.01	40.319
848.31	41.127
848.60	41.128
848.90	40.995
849.19	38.789
849.49	37.656
849.79	37.171
850.08	37.701
850.38	37.499
850.68	37.517
850.97	38.484
851.27	38.426
851.56	37.013
851.86	35.521
852.16	35.995
852.45	36.341
852.75	36.989
853.04	37.913
853.34	38.071
853.64	39.453
853.93	39.037
854.23	38.478
854.52	37.889
854.82	39.119
855.11	38.239
855.41	38.647
855.70	39.698
856.00	38.667
856.30	36.794
856.59	36.883
856.89	35.495
857.18	37.787
857.48	38.543
857.77	38.398
858.07	39.983
858.36	41.232
858.66	41.116
858.95	41.440
859.25	41.416
859.54	41.414
859.84	40.780
860.13	40.120
860.42	39.908
860.72	38.968
861.01	40.046
861.31	40.214
861.60	41.745
861.90	41.679
862.19	41.894
862.49	43.449
862.78	43.355
863.07	43.504
863.37	43.026
863.66	42.823
863.96	45.336
864.25	44.270
864.54	43.479
864.84	42.767
865.13	42.535
865.43	41.672
865.72	34.969
866.01	52.104
866.31	45.643
866.60	39.417
866.89	36.828
>>>>>End Spectral Data<<<<<
