OOIBase32 Version 2.0.0.6 Data File
++++++++++++++++++++++++++++++++++++
Date: 01-23-2012, 23:09:18
User: Valued Ocean Optics Customer
Spectrometer Serial Number: USB2E2917
Spectrometer Channel: Master
Integration Time (msec): 5
Spectra Averaged: 10
Boxcar Smoothing: 5
Correct for Electrical Dark: Enabled
Time Normalized: Disabled
Dual-beam Reference: Disabled
Reference Channel: Master
Temperature: Not acquired
Spectrometer Type: S2000
ADC Type: USB2000
Number of Pixels in File: 2048
Graph Title: 
>>>>>Begin Spectral Data<<<<<
180.30	0.000
180.67	0.000
181.03	51.317
181.40	-137.581
181.77	-4365.596
182.14	-1.136
182.51	-612.703
182.88	110.875
183.25	8.531
183.62	47.799
183.99	395.015
184.36	116.324
184.73	60.420
185.10	51.662
185.46	-244.347
185.83	-354.597
186.20	-849.017
186.57	-85.637
186.94	41.523
187.31	84.981
187.68	-39.249
188.05	43.944
188.42	9.399
188.78	-5.974
189.15	104.278
189.52	27.287
189.89	17.185
190.26	10.442
190.63	19.137
191.00	28.344
191.37	17.066
191.73	17.237
192.10	16.300
192.47	7.752
192.84	14.085
193.21	31.417
193.58	31.106
193.94	27.587
194.31	28.519
194.68	20.973
195.05	5.941
195.42	-5.238
195.79	-16.446
196.15	-19.307
196.52	-26.370
196.89	-39.482
197.26	-58.478
197.63	-41.776
198.00	-25.176
198.36	-19.011
198.73	-10.138
199.10	-21.092
199.47	8.792
199.84	28.883
200.20	26.109
200.57	45.445
200.94	47.112
201.31	50.334
201.68	39.866
202.04	36.967
202.41	35.656
202.78	35.051
203.15	57.816
203.51	54.010
203.88	49.652
204.25	38.774
204.62	10.569
204.98	3.528
205.35	0.634
205.72	16.356
206.09	5.069
206.46	-42.656
206.82	-49.294
207.19	-47.235
207.56	-94.578
207.92	-87.117
208.29	-89.245
208.66	-44.596
209.03	-50.946
209.39	-31.835
209.76	-46.757
210.13	-110.147
210.50	-55.882
210.86	-29.966
211.23	-34.571
211.60	-12.293
211.96	-13.754
212.33	-9.280
212.70	-21.827
213.07	-6.964
213.43	-36.846
213.80	-10.295
214.17	9.142
214.53	11.714
214.90	7.167
215.27	3.250
215.63	-5.369
216.00	2.330
216.37	13.575
216.74	21.914
217.10	14.160
217.47	9.760
217.84	0.706
218.20	2.672
218.57	-1.815
218.94	4.834
219.30	3.876
219.67	13.172
220.04	8.282
220.40	3.424
220.77	-0.146
221.13	8.100
221.50	12.282
221.87	22.394
222.23	18.816
222.60	16.375
222.97	4.425
223.33	5.510
223.70	0.659
224.07	0.987
224.43	0.555
224.80	1.862
225.16	-1.028
225.53	-2.535
225.90	-6.965
226.26	-3.428
226.63	-1.577
226.99	0.780
227.36	1.567
227.73	2.860
228.09	2.276
228.46	2.725
228.82	3.081
229.19	2.853
229.56	4.319
229.92	7.643
230.29	7.067
230.65	6.956
231.02	5.700
231.38	3.826
231.75	1.488
232.12	1.535
232.48	-0.558
232.85	-0.705
233.21	0.062
233.58	-1.091
233.94	-2.001
234.31	-3.250
234.68	-1.579
235.04	-1.499
235.41	-1.927
235.77	0.613
236.14	1.502
236.50	3.007
236.87	2.741
237.23	2.954
237.60	2.291
237.96	2.288
238.33	2.491
238.69	2.100
239.06	1.800
239.42	1.855
239.79	0.784
240.15	0.451
240.52	0.311
240.88	0.344
241.25	0.018
241.61	0.887
241.98	0.697
242.34	0.695
242.71	0.841
243.07	0.865
243.44	0.878
243.80	0.937
244.17	1.031
244.53	1.048
244.90	0.906
245.26	0.910
245.63	0.494
245.99	0.582
246.36	0.514
246.72	0.396
247.09	0.174
247.45	0.327
247.81	0.829
248.18	0.758
248.54	0.629
248.91	0.376
249.27	0.599
249.64	1.004
250.00	1.113
250.36	0.996
250.73	0.787
251.09	1.391
251.46	1.625
251.82	1.079
252.19	1.011
252.55	1.277
252.91	1.882
253.28	1.998
253.64	1.385
254.01	1.060
254.37	1.241
254.73	1.635
255.10	1.634
255.46	2.096
255.83	2.403
256.19	2.423
256.55	2.078
256.92	1.951
257.28	1.669
257.65	1.869
258.01	1.862
258.37	1.918
258.74	1.712
259.10	1.606
259.46	1.277
259.83	1.119
260.19	1.074
260.55	1.132
260.92	1.012
261.28	1.088
261.64	0.986
262.01	0.892
262.37	0.804
262.73	1.046
263.10	1.171
263.46	1.264
263.82	1.238
264.19	1.244
264.55	0.983
264.91	1.003
265.28	1.064
265.64	1.096
266.00	1.213
266.37	1.183
266.73	1.228
267.09	1.161
267.46	1.094
267.82	0.888
268.18	1.126
268.54	1.578
268.91	1.479
269.27	1.456
269.63	1.731
270.00	1.671
270.36	1.735
270.72	1.769
271.08	1.618
271.45	1.599
271.81	1.620
272.17	1.340
272.53	1.159
272.90	1.328
273.26	1.280
273.62	0.876
273.98	0.764
274.35	0.519
274.71	0.491
275.07	0.567
275.43	0.576
275.80	0.791
276.16	0.641
276.52	0.567
276.88	0.647
277.25	0.460
277.61	0.422
277.97	0.434
278.33	0.786
278.69	0.568
279.06	0.752
279.42	0.780
279.78	0.643
280.14	0.842
280.50	1.019
280.87	0.993
281.23	1.059
281.59	1.189
281.95	1.226
282.31	1.198
282.68	1.090
283.04	0.964
283.40	0.997
283.76	1.134
284.12	1.222
284.48	1.185
284.85	1.242
285.21	1.343
285.57	1.241
285.93	1.356
286.29	1.210
286.65	1.461
287.02	1.748
287.38	1.822
287.74	1.700
288.10	1.701
288.46	1.641
288.82	1.496
289.18	1.437
289.54	1.548
289.91	1.452
290.27	1.436
290.63	1.455
290.99	1.143
291.35	1.011
291.71	1.288
292.07	1.195
292.43	1.302
292.79	1.391
293.16	1.361
293.52	1.394
293.88	1.535
294.24	1.504
294.60	1.322
294.96	1.323
295.32	1.376
295.68	1.269
296.04	1.245
296.40	1.234
296.76	1.290
297.12	1.312
297.49	1.172
297.85	1.101
298.21	1.227
298.57	1.269
298.93	1.297
299.29	1.151
299.65	1.164
300.01	1.134
300.37	1.094
300.73	1.222
301.09	1.342
301.45	1.558
301.81	1.594
302.17	1.617
302.53	1.540
302.89	1.434
303.25	1.584
303.61	1.517
303.97	1.419
304.33	1.401
304.69	1.307
305.05	1.205
305.41	1.090
305.77	1.168
306.13	1.241
306.49	1.242
306.85	1.412
307.21	1.372
307.57	1.322
307.93	1.367
308.29	1.457
308.65	1.330
309.01	1.274
309.37	1.293
309.73	1.192
310.09	1.216
310.45	1.426
310.81	1.419
311.17	1.486
311.53	1.534
311.89	1.723
312.25	1.760
312.61	1.866
312.96	1.942
313.32	1.975
313.68	1.910
314.04	1.770
314.40	1.712
314.76	1.559
315.12	1.436
315.48	1.447
315.84	1.265
316.20	1.194
316.56	1.066
316.92	0.998
317.27	0.914
317.63	1.002
317.99	1.016
318.35	0.994
318.71	1.068
319.07	1.083
319.43	1.064
319.79	1.216
320.15	1.115
320.50	1.198
320.86	1.212
321.22	1.208
321.58	1.238
321.94	1.104
322.30	0.951
322.66	0.958
323.01	0.927
323.37	0.990
323.73	0.915
324.09	0.922
324.45	0.961
324.81	1.004
325.17	1.110
325.52	1.132
325.88	1.235
326.24	1.355
326.60	1.293
326.96	1.354
327.31	1.196
327.67	1.109
328.03	1.182
328.39	1.109
328.75	1.091
329.11	1.094
329.46	1.088
329.82	1.112
330.18	1.077
330.54	1.169
330.90	1.089
331.25	1.222
331.61	1.328
331.97	1.340
332.33	1.384
332.68	1.464
333.04	1.356
333.40	1.252
333.76	1.181
334.11	1.178
334.47	1.218
334.83	1.246
335.19	1.151
335.54	1.105
335.90	1.065
336.26	1.036
336.62	0.936
336.97	0.878
337.33	0.806
337.69	0.786
338.05	0.735
338.40	0.653
338.76	0.613
339.12	0.665
339.48	0.669
339.83	0.643
340.19	0.682
340.55	0.769
340.90	0.784
341.26	0.854
341.62	0.890
341.97	0.941
342.33	0.946
342.69	1.040
343.04	1.117
343.40	1.076
343.76	1.031
344.12	1.041
344.47	1.031
344.83	1.194
345.19	1.234
345.54	1.245
345.90	1.196
346.26	1.267
346.61	1.271
346.97	1.185
347.32	1.233
347.68	1.236
348.04	1.164
348.39	1.069
348.75	1.005
349.11	1.025
349.46	1.066
349.82	1.130
350.18	1.061
350.53	1.092
350.89	1.126
351.24	1.101
351.60	1.146
351.96	1.270
352.31	1.287
352.67	1.242
353.02	1.194
353.38	1.121
353.74	1.146
354.09	1.152
354.45	1.140
354.80	1.158
355.16	1.244
355.52	1.247
355.87	1.131
356.23	1.198
356.58	1.257
356.94	1.290
357.29	1.360
357.65	1.341
358.00	1.353
358.36	1.280
358.72	1.233
359.07	1.234
359.43	1.237
359.78	1.270
360.14	1.230
360.49	1.177
360.85	1.154
361.20	1.129
361.56	1.071
361.91	1.094
362.27	1.154
362.62	1.157
362.98	1.117
363.33	1.092
363.69	1.102
364.04	1.149
364.40	1.165
364.75	1.167
365.11	1.174
365.46	1.204
365.82	1.218
366.17	1.151
366.53	1.150
366.88	1.127
367.24	1.177
367.59	1.189
367.95	1.175
368.30	1.190
368.66	1.184
369.01	1.160
369.37	1.205
369.72	1.239
370.08	1.315
370.43	1.323
370.78	1.323
371.14	1.263
371.49	1.300
371.85	1.328
372.20	1.336
372.56	1.327
372.91	1.364
373.26	1.333
373.62	1.269
373.97	1.273
374.33	1.273
374.68	1.308
375.03	1.391
375.39	1.337
375.74	1.305
376.10	1.302
376.45	1.324
376.80	1.333
377.16	1.326
377.51	1.343
377.87	1.363
378.22	1.345
378.57	1.339
378.93	1.318
379.28	1.382
379.63	1.380
379.99	1.404
380.34	1.411
380.70	1.406
381.05	1.457
381.40	1.486
381.76	1.509
382.11	1.566
382.46	1.618
382.82	1.679
383.17	1.648
383.52	1.652
383.88	1.665
384.23	1.704
384.58	1.729
384.94	1.721
385.29	1.744
385.64	1.728
385.99	1.765
386.35	1.744
386.70	1.709
387.05	1.706
387.41	1.730
387.76	1.715
388.11	1.709
388.47	1.701
388.82	1.744
389.17	1.727
389.52	1.754
389.88	1.779
390.23	1.830
390.58	1.881
390.93	1.929
391.29	1.958
391.64	2.013
391.99	2.057
392.34	2.100
392.70	2.083
393.05	2.099
393.40	2.111
393.75	2.086
394.11	2.064
394.46	2.008
394.81	2.004
395.16	1.993
395.52	1.960
395.87	1.961
396.22	1.977
396.57	1.945
396.92	1.956
397.28	1.915
397.63	1.892
397.98	1.882
398.33	1.916
398.68	1.902
399.04	1.909
399.39	1.895
399.74	1.863
400.09	1.858
400.44	1.917
400.80	1.933
401.15	1.938
401.50	1.975
401.85	1.999
402.20	2.017
402.55	2.046
402.90	2.043
403.26	2.077
403.61	2.089
403.96	2.075
404.31	2.033
404.66	2.031
405.01	2.047
405.36	2.029
405.72	2.029
406.07	2.002
406.42	1.982
406.77	2.002
407.12	2.000
407.47	2.015
407.82	2.045
408.17	2.072
408.53	2.062
408.88	2.073
409.23	2.095
409.58	2.085
409.93	2.115
410.28	2.121
410.63	2.101
410.98	2.107
411.33	2.117
411.68	2.107
412.03	2.147
412.38	2.132
412.73	2.153
413.09	2.171
413.44	2.196
413.79	2.213
414.14	2.250
414.49	2.294
414.84	2.325
415.19	2.340
415.54	2.394
415.89	2.419
416.24	2.484
416.59	2.491
416.94	2.510
417.29	2.535
417.64	2.540
417.99	2.546
418.34	2.563
418.69	2.577
419.04	2.588
419.39	2.585
419.74	2.574
420.09	2.572
420.44	2.588
420.79	2.601
421.14	2.603
421.49	2.627
421.84	2.628
422.19	2.629
422.54	2.623
422.89	2.625
423.24	2.613
423.59	2.609
423.94	2.606
424.29	2.599
424.64	2.592
424.99	2.578
425.34	2.538
425.68	2.546
426.03	2.525
426.38	2.513
426.73	2.498
427.08	2.501
427.43	2.522
427.78	2.529
428.13	2.526
428.48	2.515
428.83	2.509
429.18	2.533
429.53	2.531
429.87	2.533
430.22	2.527
430.57	2.540
430.92	2.521
431.27	2.517
431.62	2.500
431.97	2.500
432.32	2.498
432.67	2.498
433.01	2.483
433.36	2.481
433.71	2.478
434.06	2.492
434.41	2.485
434.76	2.507
435.11	2.510
435.45	2.512
435.80	2.513
436.15	2.518
436.50	2.541
436.85	2.561
437.20	2.545
437.54	2.543
437.89	2.546
438.24	2.567
438.59	2.559
438.94	2.550
439.29	2.552
439.63	2.572
439.98	2.562
440.33	2.544
440.68	2.539
441.03	2.559
441.37	2.583
441.72	2.594
442.07	2.583
442.42	2.595
442.76	2.613
443.11	2.628
443.46	2.630
443.81	2.658
444.16	2.687
444.50	2.700
444.85	2.709
445.20	2.705
445.55	2.700
445.89	2.711
446.24	2.712
446.59	2.684
446.94	2.669
447.28	2.643
447.63	2.627
447.98	2.606
448.32	2.573
448.67	2.538
449.02	2.513
449.37	2.509
449.71	2.505
450.06	2.508
450.41	2.541
450.75	2.549
451.10	2.570
451.45	2.545
451.79	2.529
452.14	2.553
452.49	2.582
452.84	2.593
453.18	2.588
453.53	2.567
453.88	2.562
454.22	2.545
454.57	2.554
454.92	2.557
455.26	2.588
455.61	2.637
455.95	2.662
456.30	2.676
456.65	2.704
456.99	2.729
457.34	2.746
457.69	2.747
458.03	2.760
458.38	2.764
458.73	2.763
459.07	2.760
459.42	2.727
459.76	2.690
460.11	2.666
460.46	2.635
460.80	2.600
461.15	2.585
461.49	2.558
461.84	2.548
462.19	2.537
462.53	2.520
462.88	2.507
463.22	2.497
463.57	2.507
463.91	2.504
464.26	2.523
464.61	2.533
464.95	2.523
465.30	2.535
465.64	2.545
465.99	2.556
466.33	2.572
466.68	2.575
467.02	2.591
467.37	2.572
467.71	2.556
468.06	2.537
468.41	2.514
468.75	2.526
469.10	2.516
469.44	2.494
469.79	2.472
470.13	2.443
470.48	2.434
470.82	2.414
471.17	2.419
471.51	2.418
471.86	2.409
472.20	2.410
472.55	2.395
472.89	2.396
473.23	2.389
473.58	2.382
473.92	2.388
474.27	2.376
474.61	2.377
474.96	2.378
475.30	2.390
475.65	2.377
475.99	2.391
476.34	2.390
476.68	2.390
477.02	2.406
477.37	2.418
477.71	2.445
478.06	2.483
478.40	2.551
478.75	2.624
479.09	2.721
479.43	2.826
479.78	2.935
480.12	3.031
480.47	3.134
480.81	3.220
481.15	3.313
481.50	3.405
481.84	3.506
482.19	3.600
482.53	3.677
482.87	3.722
483.22	3.721
483.56	3.675
483.90	3.611
484.25	3.535
484.59	3.456
484.94	3.378
485.28	3.293
485.62	3.201
485.97	3.103
486.31	3.028
486.65	2.964
487.00	2.939
487.34	2.946
487.68	2.967
488.03	2.981
488.37	3.000
488.71	3.010
489.06	3.019
489.40	3.025
489.74	3.017
490.09	2.995
490.43	2.975
490.77	2.959
491.11	2.926
491.46	2.902
491.80	2.886
492.14	2.855
492.49	2.834
492.83	2.803
493.17	2.754
493.51	2.729
493.86	2.719
494.20	2.710
494.54	2.707
494.88	2.725
495.23	2.744
495.57	2.768
495.91	2.797
496.25	2.829
496.60	2.853
496.94	2.881
497.28	2.907
497.62	2.921
497.97	2.936
498.31	2.970
498.65	2.988
498.99	3.001
499.33	3.032
499.68	3.066
500.02	3.077
500.36	3.096
500.70	3.127
501.04	3.152
501.39	3.186
501.73	3.233
502.07	3.262
502.41	3.302
502.75	3.357
503.09	3.391
503.44	3.441
503.78	3.484
504.12	3.528
504.46	3.590
504.80	3.647
505.14	3.704
505.49	3.757
505.83	3.810
506.17	3.873
506.51	3.930
506.85	3.995
507.19	4.046
507.53	4.100
507.87	4.165
508.22	4.211
508.56	4.261
508.90	4.300
509.24	4.346
509.58	4.389
509.92	4.438
510.26	4.483
510.60	4.531
510.94	4.580
511.28	4.636
511.63	4.700
511.97	4.774
512.31	4.845
512.65	4.932
512.99	5.035
513.33	5.168
513.67	5.275
514.01	5.414
514.35	5.517
514.69	5.642
515.03	5.753
515.37	5.867
515.71	5.982
516.05	6.089
516.39	6.172
516.73	6.251
517.07	6.311
517.41	6.373
517.75	6.408
518.09	6.475
518.43	6.521
518.77	6.566
519.11	6.611
519.45	6.649
519.79	6.709
520.13	6.787
520.47	6.883
520.81	6.962
521.15	7.074
521.49	7.186
521.83	7.299
522.17	7.403
522.51	7.528
522.85	7.670
523.19	7.826
523.53	7.983
523.87	8.161
524.21	8.322
524.55	8.484
524.89	8.614
525.23	8.746
525.57	8.856
525.91	8.971
526.25	9.072
526.58	9.168
526.92	9.238
527.26	9.281
527.60	9.299
527.94	9.320
528.28	9.325
528.62	9.332
528.96	9.330
529.30	9.327
529.64	9.319
529.97	9.314
530.31	9.283
530.65	9.281
530.99	9.306
531.33	9.335
531.67	9.348
532.01	9.375
532.35	9.388
532.68	9.399
533.02	9.407
533.36	9.414
533.70	9.412
534.04	9.417
534.38	9.413
534.71	9.401
535.05	9.391
535.39	9.397
535.73	9.404
536.07	9.434
536.41	9.464
536.74	9.508
537.08	9.541
537.42	9.599
537.76	9.647
538.10	9.704
538.43	9.763
538.77	9.826
539.11	9.862
539.45	9.895
539.79	9.929
540.12	9.956
540.46	9.950
540.80	9.952
541.14	9.935
541.47	9.911
541.81	9.883
542.15	9.852
542.49	9.824
542.82	9.788
543.16	9.745
543.50	9.702
543.84	9.657
544.17	9.636
544.51	9.641
544.85	9.631
545.18	9.644
545.52	9.639
545.86	9.617
546.20	9.606
546.53	9.600
546.87	9.591
547.21	9.572
547.54	9.571
547.88	9.579
548.22	9.539
548.55	9.526
548.89	9.519
549.23	9.506
549.56	9.528
549.90	9.524
550.24	9.525
550.57	9.535
550.91	9.533
551.25	9.516
551.58	9.500
551.92	9.486
552.26	9.477
552.59	9.463
552.93	9.455
553.27	9.417
553.60	9.420
553.94	9.390
554.27	9.385
554.61	9.381
554.95	9.384
555.28	9.371
555.62	9.377
555.95	9.371
556.29	9.364
556.63	9.339
556.96	9.327
557.30	9.276
557.63	9.275
557.97	9.222
558.31	9.190
558.64	9.162
558.98	9.155
559.31	9.157
559.65	9.118
559.98	9.081
560.32	9.058
560.65	9.042
560.99	9.022
561.33	9.006
561.66	9.005
562.00	8.987
562.33	8.968
562.67	8.958
563.00	8.920
563.34	8.904
563.67	8.894
564.01	8.867
564.34	8.823
564.68	8.796
565.01	8.752
565.35	8.699
565.68	8.651
566.02	8.600
566.35	8.535
566.69	8.476
567.02	8.454
567.36	8.396
567.69	8.371
568.03	8.358
568.36	8.302
568.69	8.265
569.03	8.254
569.36	8.220
569.70	8.189
570.03	8.167
570.37	8.145
570.70	8.099
571.04	8.075
571.37	8.015
571.70	7.972
572.04	7.948
572.37	7.917
572.71	7.856
573.04	7.831
573.37	7.802
573.71	7.749
574.04	7.716
574.38	7.681
574.71	7.646
575.04	7.626
575.38	7.581
575.71	7.530
576.05	7.482
576.38	7.475
576.71	7.429
577.05	7.397
577.38	7.374
577.71	7.317
578.05	7.277
578.38	7.241
578.71	7.193
579.05	7.178
579.38	7.164
579.71	7.135
580.05	7.085
580.38	7.049
580.71	6.998
581.05	6.976
581.38	6.962
581.71	6.949
582.05	6.910
582.38	6.915
582.71	6.892
583.04	6.894
583.38	6.864
583.71	6.871
584.04	6.886
584.38	6.886
584.71	6.878
585.04	6.901
585.37	6.878
585.71	6.909
586.04	6.904
586.37	6.923
586.70	6.907
587.04	6.942
587.37	6.938
587.70	6.950
588.03	6.966
588.37	6.988
588.70	6.978
589.03	7.005
589.36	6.996
589.69	6.976
590.03	6.946
590.36	6.937
590.69	6.903
591.02	6.907
591.35	6.887
591.69	6.866
592.02	6.858
592.35	6.850
592.68	6.845
593.01	6.825
593.35	6.833
593.68	6.837
594.01	6.840
594.34	6.828
594.67	6.796
595.00	6.780
595.34	6.762
595.67	6.717
596.00	6.702
596.33	6.660
596.66	6.647
596.99	6.610
597.32	6.578
597.65	6.526
597.99	6.496
598.32	6.472
598.65	6.427
598.98	6.421
599.31	6.406
599.64	6.396
599.97	6.369
600.30	6.354
600.63	6.363
600.96	6.362
601.30	6.370
601.63	6.412
601.96	6.431
602.29	6.435
602.62	6.416
602.95	6.403
603.28	6.380
603.61	6.365
603.94	6.327
604.27	6.318
604.60	6.283
604.93	6.251
605.26	6.189
605.59	6.165
605.92	6.145
606.25	6.118
606.58	6.106
606.91	6.062
607.24	6.058
607.57	6.043
607.90	6.002
608.23	5.952
608.56	5.922
608.89	5.890
609.22	5.825
609.55	5.797
609.88	5.742
610.21	5.662
610.54	5.610
610.87	5.541
611.20	5.481
611.53	5.425
611.86	5.384
612.19	5.337
612.52	5.259
612.85	5.234
613.18	5.175
613.51	5.130
613.84	5.129
614.17	5.105
614.49	5.093
614.82	5.045
615.15	5.029
615.48	5.036
615.81	4.998
616.14	5.018
616.47	4.987
616.80	4.953
617.13	4.912
617.46	4.857
617.78	4.841
618.11	4.795
618.44	4.785
618.77	4.749
619.10	4.693
619.43	4.681
619.76	4.631
620.09	4.625
620.41	4.617
620.74	4.653
621.07	4.704
621.40	4.699
621.73	4.730
622.06	4.773
622.38	4.795
622.71	4.805
623.04	4.851
623.37	4.902
623.70	4.896
624.02	4.921
624.35	4.932
624.68	4.911
625.01	4.951
625.34	4.980
625.66	4.978
625.99	4.998
626.32	5.013
626.65	5.004
626.98	4.974
627.30	4.990
627.63	4.973
627.96	4.957
628.29	4.942
628.61	4.891
628.94	4.833
629.27	4.791
629.60	4.739
629.92	4.761
630.25	4.704
630.58	4.695
630.91	4.661
631.23	4.610
631.56	4.583
631.89	4.547
632.21	4.534
632.54	4.532
632.87	4.513
633.19	4.480
633.52	4.382
633.85	4.401
634.18	4.362
634.50	4.318
634.83	4.303
635.16	4.236
635.48	4.188
635.81	4.128
636.14	4.059
636.46	4.008
636.79	3.958
637.11	3.916
637.44	3.790
637.77	3.706
638.09	3.603
638.42	3.558
638.75	3.525
639.07	3.493
639.40	3.437
639.73	3.399
640.05	3.344
640.38	3.338
640.70	3.308
641.03	3.309
641.36	3.294
641.68	3.310
642.01	3.290
642.33	3.295
642.66	3.290
642.98	3.280
643.31	3.251
643.64	3.240
643.96	3.191
644.29	3.169
644.61	3.180
644.94	3.176
645.26	3.178
645.59	3.183
645.91	3.170
646.24	3.209
646.56	3.232
646.89	3.251
647.22	3.223
647.54	3.233
647.87	3.274
648.19	3.231
648.52	3.221
648.84	3.239
649.17	3.205
649.49	3.188
649.82	3.137
650.14	3.138
650.47	3.106
650.79	3.176
651.11	3.123
651.44	3.122
651.76	3.133
652.09	3.172
652.41	3.161
652.74	3.186
653.06	3.194
653.39	3.213
653.71	3.227
654.04	3.273
654.36	3.271
654.68	3.394
655.01	3.424
655.33	3.499
655.66	3.500
655.98	3.539
656.30	3.525
656.63	3.565
656.95	3.585
657.28	3.586
657.60	3.581
657.92	3.564
658.25	3.475
658.57	3.470
658.90	3.434
659.22	3.449
659.54	3.392
659.87	3.433
660.19	3.361
660.51	3.310
660.84	3.286
661.16	3.203
661.48	3.230
661.81	3.259
662.13	3.219
662.45	3.212
662.78	3.224
663.10	3.315
663.42	3.330
663.75	3.399
664.07	3.430
664.39	3.454
664.72	3.547
665.04	3.587
665.36	3.685
665.69	3.757
666.01	3.839
666.33	3.881
666.65	3.901
666.98	3.977
667.30	4.094
667.62	4.202
667.94	4.314
668.27	4.419
668.59	4.541
668.91	4.594
669.23	4.721
669.56	4.836
669.88	4.973
670.20	5.086
670.52	5.203
670.85	5.292
671.17	5.429
671.49	5.543
671.81	5.708
672.13	5.804
672.46	5.964
672.78	6.089
673.10	6.214
673.42	6.340
673.74	6.552
674.07	6.696
674.39	6.917
674.71	7.012
675.03	7.182
675.35	7.330
675.67	7.497
676.00	7.637
676.32	7.746
676.64	7.927
676.96	8.083
677.28	8.168
677.60	8.332
677.92	8.446
678.25	8.606
678.57	8.749
678.89	8.829
679.21	8.934
679.53	9.047
679.85	9.194
680.17	9.271
680.49	9.355
680.81	9.558
681.13	9.611
681.46	9.723
681.78	9.872
682.10	9.997
682.42	10.157
682.74	10.312
683.06	10.456
683.38	10.608
683.70	10.798
684.02	11.008
684.34	11.132
684.66	11.350
684.98	11.463
685.30	11.613
685.62	11.747
685.94	11.875
686.26	11.929
686.58	12.033
686.90	12.110
687.22	12.084
687.54	12.096
687.86	12.071
688.18	12.027
688.50	12.062
688.82	11.987
689.14	11.959
689.46	11.980
689.78	12.028
690.10	12.082
690.42	12.100
690.74	12.207
691.06	12.284
691.38	12.355
691.70	12.410
692.02	12.469
692.34	12.572
692.66	12.650
692.98	12.701
693.30	12.791
693.62	12.821
693.94	12.861
694.26	12.871
694.57	12.909
694.89	13.008
695.21	13.098
695.53	13.110
695.85	13.137
696.17	13.228
696.49	13.331
696.81	13.401
697.13	13.493
697.44	13.602
697.76	13.746
698.08	13.909
698.40	13.977
698.72	14.147
699.04	14.380
699.36	14.638
699.67	14.786
699.99	14.948
700.31	15.165
700.63	15.387
700.95	15.647
701.27	15.872
701.58	15.999
701.90	16.187
702.22	16.371
702.54	16.509
702.86	16.682
703.17	16.869
703.49	17.084
703.81	17.259
704.13	17.411
704.45	17.625
704.76	17.875
705.08	18.039
705.40	18.226
705.72	18.404
706.03	18.607
706.35	18.771
706.67	18.994
706.99	19.197
707.30	19.322
707.62	19.507
707.94	19.596
708.26	19.703
708.57	19.909
708.89	20.124
709.21	20.237
709.53	20.361
709.84	20.515
710.16	20.728
710.48	20.868
710.79	21.085
711.11	21.238
711.43	21.456
711.74	21.645
712.06	21.886
712.38	22.216
712.69	22.508
713.01	22.874
713.33	23.166
713.64	23.499
713.96	23.822
714.28	24.128
714.59	24.594
714.91	24.899
715.23	25.294
715.54	25.532
715.86	25.817
716.17	26.123
716.49	26.415
716.81	26.850
717.12	27.074
717.44	27.323
717.76	27.677
718.07	27.795
718.39	28.062
718.70	28.242
719.02	28.411
719.33	28.499
719.65	28.693
719.97	28.828
720.28	28.833
720.60	28.929
720.91	29.227
721.23	29.434
721.54	29.663
721.86	29.924
722.17	30.125
722.49	30.472
722.81	30.697
723.12	30.995
723.44	31.161
723.75	31.400
724.07	31.706
724.38	31.798
724.70	32.016
725.01	32.295
725.33	32.430
725.64	32.663
725.96	32.852
726.27	32.915
726.59	32.999
726.90	33.180
727.22	33.161
727.53	33.293
727.84	33.499
728.16	33.537
728.47	33.542
728.79	33.678
729.10	33.692
729.42	33.689
729.73	33.859
730.05	33.920
730.36	33.985
730.67	34.232
730.99	34.250
731.30	34.267
731.62	34.438
731.93	34.563
732.24	34.595
732.56	34.742
732.87	34.986
733.19	35.153
733.50	35.320
733.81	35.471
734.13	35.623
734.44	35.737
734.76	35.833
735.07	35.872
735.38	35.926
735.70	36.228
736.01	36.266
736.32	36.413
736.64	36.481
736.95	36.517
737.26	36.575
737.58	36.658
737.89	36.799
738.20	36.786
738.52	36.833
738.83	36.838
739.14	36.660
739.45	36.692
739.77	36.668
740.08	36.794
740.39	36.847
740.71	36.895
741.02	36.834
741.33	36.740
741.64	36.868
741.96	36.981
742.27	37.062
742.58	37.212
742.90	37.474
743.21	37.490
743.52	37.463
743.83	37.566
744.14	37.754
744.46	37.879
744.77	37.973
745.08	38.038
745.39	37.829
745.71	37.876
746.02	37.802
746.33	37.656
746.64	37.573
746.95	37.523
747.27	37.552
747.58	37.309
747.89	37.234
748.20	37.027
748.51	37.054
748.82	37.148
749.14	37.199
749.45	37.280
749.76	37.413
750.07	37.550
750.38	37.618
750.69	37.409
751.01	37.371
751.32	37.449
751.63	37.675
751.94	37.587
752.25	37.526
752.56	37.563
752.87	37.498
753.18	37.347
753.49	37.153
753.81	37.150
754.12	37.334
754.43	37.504
754.74	37.411
755.05	37.407
755.36	37.498
755.67	37.724
755.98	37.845
756.29	37.946
756.60	38.094
756.91	38.467
757.22	38.631
757.53	38.816
757.84	39.087
758.15	39.313
758.46	39.574
758.77	39.746
759.09	39.843
759.40	39.904
759.71	39.951
760.02	39.917
760.33	39.769
760.64	39.618
760.95	39.513
761.26	39.276
761.57	39.233
761.88	39.018
762.18	38.940
762.49	38.854
762.80	38.829
763.11	38.902
763.42	38.712
763.73	38.626
764.04	38.615
764.35	38.559
764.66	38.394
764.97	38.230
765.28	38.217
765.59	38.001
765.90	37.580
766.21	37.040
766.52	36.444
766.83	36.445
767.14	36.252
767.44	35.801
767.75	35.420
768.06	35.391
768.37	35.125
768.68	34.943
768.99	34.809
769.30	35.103
769.61	35.055
769.91	34.952
770.22	34.581
770.53	34.518
770.84	34.561
771.15	34.563
771.46	34.405
771.77	34.351
772.07	34.291
772.38	34.170
772.69	33.665
773.00	33.879
773.31	34.131
773.61	34.104
773.92	33.865
774.23	33.778
774.54	33.721
774.85	33.687
775.15	33.617
775.46	33.393
775.77	33.433
776.08	33.475
776.39	33.397
776.69	33.207
777.00	33.228
777.31	33.525
777.62	33.595
777.92	33.614
778.23	33.594
778.54	33.554
778.85	33.582
779.15	33.498
779.46	33.599
779.77	33.533
780.07	33.608
780.38	33.782
780.69	33.662
781.00	33.893
781.30	33.647
781.61	33.455
781.92	33.752
782.22	33.957
782.53	33.775
782.84	33.968
783.14	34.146
783.45	34.031
783.76	34.248
784.06	34.296
784.37	34.016
784.68	34.147
784.98	34.579
785.29	34.408
785.60	34.554
785.90	34.737
786.21	34.796
786.51	34.737
786.82	35.025
787.13	35.116
787.43	35.045
787.74	35.205
788.04	35.607
788.35	35.750
788.66	35.886
788.96	35.952
789.27	36.110
789.57	35.873
789.88	35.851
790.19	35.496
790.49	34.893
790.80	34.805
791.10	34.854
791.41	34.662
791.71	34.437
792.02	34.443
792.32	34.161
792.63	33.729
792.93	33.763
793.24	33.749
793.54	34.081
793.85	34.457
794.15	34.490
794.46	34.519
794.76	34.310
795.07	34.224
795.37	34.350
795.68	34.470
795.98	34.992
796.29	35.455
796.59	35.404
796.90	35.384
797.20	35.252
797.51	35.178
797.81	34.497
798.12	34.960
798.42	35.112
798.72	34.731
799.03	34.789
799.33	34.322
799.64	33.741
799.94	33.906
800.25	33.872
800.55	34.041
800.85	34.260
801.16	35.076
801.46	34.839
801.77	34.660
802.07	35.075
802.37	35.092
802.68	35.354
802.98	35.627
803.28	35.574
803.59	35.952
803.89	35.942
804.20	35.906
804.50	35.725
804.80	35.629
805.11	35.779
805.41	35.128
805.71	35.155
806.02	35.220
806.32	35.122
806.62	35.116
806.93	34.725
807.23	35.070
807.53	35.209
807.83	35.460
808.14	35.822
808.44	36.015
808.74	36.489
809.05	36.185
809.35	36.072
809.65	36.708
809.95	37.328
810.26	37.276
810.56	37.147
810.86	37.104
811.16	36.968
811.47	36.862
811.77	36.951
812.07	37.252
812.37	37.223
812.68	37.334
812.98	37.182
813.28	36.975
813.58	37.605
813.88	37.436
814.19	37.803
814.49	38.428
814.79	38.828
815.09	39.151
815.39	39.135
815.70	39.356
816.00	39.481
816.30	39.319
816.60	39.068
816.90	38.568
817.20	38.789
817.50	38.973
817.81	38.455
818.11	38.351
818.41	38.347
818.71	38.392
819.01	38.679
819.31	39.008
819.61	39.255
819.92	39.473
820.22	39.752
820.52	39.839
820.82	40.008
821.12	40.250
821.42	40.443
821.72	40.567
822.02	40.819
822.32	41.017
822.62	41.114
822.92	41.218
823.22	41.345
823.52	41.418
823.83	41.513
824.13	41.420
824.43	41.276
824.73	41.288
825.03	41.253
825.33	41.227
825.63	41.039
825.93	40.970
826.23	40.823
826.53	40.690
826.83	40.500
827.13	40.594
827.43	40.571
827.73	40.968
828.03	40.820
828.33	41.031
828.63	41.066
828.93	41.233
829.23	41.275
829.53	41.237
829.83	41.151
830.13	41.042
830.42	40.968
830.72	40.705
831.02	40.462
831.32	40.683
831.62	40.648
831.92	40.287
832.22	39.857
832.52	39.518
832.82	39.511
833.12	39.496
833.42	39.618
833.72	39.489
834.01	39.953
834.31	40.077
834.61	40.084
834.91	40.110
835.21	40.188
835.51	40.417
835.81	40.339
836.11	40.379
836.40	40.288
836.70	40.236
837.00	40.313
837.30	39.757
837.60	39.779
837.90	38.766
838.19	38.195
838.49	38.145
838.79	37.676
839.09	38.378
839.39	37.930
839.68	38.275
839.98	37.914
840.28	37.117
840.58	37.112
840.88	36.781
841.17	36.717
841.47	36.757
841.77	36.483
842.07	36.539
842.36	35.680
842.66	35.551
842.96	34.723
843.26	34.181
843.55	34.161
843.85	33.421
844.15	31.725
844.45	31.602
844.74	31.515
845.04	31.249
845.34	31.304
845.63	29.555
845.93	30.442
846.23	30.370
846.53	30.236
846.82	30.613
847.12	31.943
847.42	32.588
847.71	33.678
848.01	32.422
848.31	33.150
848.60	32.483
848.90	33.741
849.19	32.758
849.49	33.099
849.79	34.716
850.08	35.614
850.38	35.270
850.68	34.520
850.97	35.507
851.27	37.127
851.56	36.665
851.86	37.212
852.16	38.305
852.45	39.583
852.75	38.191
853.04	36.780
853.34	35.807
853.64	34.293
853.93	35.119
854.23	33.331
854.52	33.539
854.82	33.200
855.11	33.201
855.41	33.514
855.70	33.225
856.00	35.074
856.30	36.016
856.59	36.371
856.89	36.345
857.18	37.264
857.48	38.075
857.77	36.673
858.07	36.323
858.36	35.440
858.66	34.379
858.95	33.434
859.25	33.280
859.54	33.783
859.84	33.765
860.13	33.255
860.42	33.027
860.72	31.436
861.01	33.048
861.31	34.201
861.60	34.915
861.90	34.837
862.19	35.418
862.49	35.115
862.78	34.201
863.07	33.853
863.37	34.977
863.66	34.917
863.96	37.661
864.25	36.605
864.54	35.677
864.84	36.641
865.13	36.650
865.43	37.540
865.72	37.801
866.01	33.658
866.31	39.748
866.60	29.989
866.89	43.366
>>>>>End Spectral Data<<<<<
