OOIBase32 Version 2.0.0.6 Data File
++++++++++++++++++++++++++++++++++++
Date: 01-23-2012, 23:10:28
User: Valued Ocean Optics Customer
Spectrometer Serial Number: USB2E2917
Spectrometer Channel: Master
Integration Time (msec): 5
Spectra Averaged: 10
Boxcar Smoothing: 5
Correct for Electrical Dark: Enabled
Time Normalized: Disabled
Dual-beam Reference: Disabled
Reference Channel: Master
Temperature: Not acquired
Spectrometer Type: S2000
ADC Type: USB2000
Number of Pixels in File: 2048
Graph Title: 
>>>>>Begin Spectral Data<<<<<
180.30	0.000
180.67	0.000
181.03	74.565
181.40	256.034
181.77	1296.713
182.14	40.155
182.51	142.400
182.88	208.610
183.25	23.308
183.62	104.817
183.99	361.333
184.36	12.315
184.73	428.326
185.10	115.003
185.46	-489.068
185.83	-358.808
186.20	-32.661
186.57	26.545
186.94	98.494
187.31	29.789
187.68	83.732
188.05	50.948
188.42	52.500
188.78	62.610
189.15	309.595
189.52	-62.724
189.89	17.982
190.26	24.555
190.63	18.646
191.00	17.902
191.37	13.504
191.73	27.784
192.10	28.391
192.47	23.949
192.84	26.496
193.21	31.234
193.58	26.553
193.94	19.123
194.31	6.575
194.68	-1.454
195.05	-15.834
195.42	-23.098
195.79	-49.144
196.15	-53.456
196.52	-58.821
196.89	-94.157
197.26	-115.853
197.63	-79.668
198.00	-72.054
198.36	-60.016
198.73	-76.732
199.10	-45.120
199.47	-36.713
199.84	-37.715
200.20	-54.897
200.57	-54.328
200.94	-39.639
201.31	-22.550
201.68	-37.590
202.04	-53.428
202.41	-56.247
202.78	-68.217
203.15	-93.908
203.51	-79.896
203.88	-71.009
204.25	-70.635
204.62	-91.239
204.98	-100.652
205.35	-100.037
205.72	-105.295
206.09	-86.839
206.46	-142.235
206.82	-85.027
207.19	-70.177
207.56	-127.784
207.92	-115.328
208.29	-110.063
208.66	-67.879
209.03	-57.573
209.39	-40.115
209.76	-42.713
210.13	-74.271
210.50	-63.369
210.86	-64.434
211.23	-70.465
211.60	-39.227
211.96	-33.907
212.33	-22.074
212.70	-18.978
213.07	-25.903
213.43	-62.502
213.80	-52.482
214.17	-18.089
214.53	-2.544
214.90	-3.380
215.27	-4.832
215.63	-12.547
216.00	-12.410
216.37	-14.919
216.74	-31.349
217.10	-20.194
217.47	-15.084
217.84	-8.752
218.20	-16.116
218.57	-9.899
218.94	-10.399
219.30	-10.466
219.67	-11.903
220.04	-8.795
220.40	-10.151
220.77	-2.955
221.13	-8.100
221.50	-4.810
221.87	-9.425
222.23	-8.405
222.60	-20.928
222.97	-17.179
223.33	-14.006
223.70	-9.584
224.07	-10.001
224.43	-8.288
224.80	-8.278
225.16	-6.905
225.53	-5.566
225.90	-6.652
226.26	-3.579
226.63	-0.302
226.99	0.749
227.36	2.140
227.73	2.414
228.09	0.664
228.46	1.503
228.82	2.000
229.19	1.934
229.56	0.005
229.92	1.936
230.29	0.347
230.65	-0.904
231.02	-2.678
231.38	-6.171
231.75	-8.447
232.12	-7.408
232.48	-8.785
232.85	-10.320
233.21	-9.577
233.58	-10.483
233.94	-10.005
234.31	-10.010
234.68	-10.400
235.04	-11.373
235.41	-10.086
235.77	-6.603
236.14	-4.354
236.50	-2.857
236.87	-1.588
237.23	-2.442
237.60	-1.599
237.96	-1.420
238.33	-1.572
238.69	-2.100
239.06	-0.947
239.42	-0.430
239.79	-1.340
240.15	-1.787
240.52	-1.294
240.88	-0.869
241.25	-0.612
241.61	0.023
241.98	-0.051
242.34	0.292
242.71	0.898
243.07	0.815
243.44	0.565
243.80	0.464
244.17	0.441
244.53	0.080
244.90	0.048
245.26	0.104
245.63	-0.132
245.99	-0.278
246.36	-0.375
246.72	-0.119
247.09	-0.359
247.45	-0.203
247.81	0.435
248.18	0.584
248.54	0.655
248.91	0.314
249.27	0.392
249.64	0.589
250.00	0.657
250.36	0.504
250.73	0.001
251.09	0.181
251.46	0.096
251.82	-0.639
252.19	-0.821
252.55	-0.743
252.91	-0.543
253.28	-0.922
253.64	-1.552
254.01	-1.550
254.37	-1.201
254.73	-0.601
255.10	-0.062
255.46	0.587
255.83	0.879
256.19	1.037
256.55	0.747
256.92	0.934
257.28	1.214
257.65	1.612
258.01	1.866
258.37	1.783
258.74	1.617
259.10	1.314
259.46	0.936
259.83	0.719
260.19	0.513
260.55	0.546
260.92	0.327
261.28	0.218
261.64	0.070
262.01	-0.236
262.37	-0.167
262.73	-0.335
263.10	0.227
263.46	0.402
263.82	0.679
264.19	0.841
264.55	0.723
264.91	0.521
265.28	0.347
265.64	0.234
266.00	0.233
266.37	0.154
266.73	0.071
267.09	-0.250
267.46	-0.352
267.82	-0.552
268.18	-0.552
268.54	-0.248
268.91	0.064
269.27	0.035
269.63	0.316
270.00	0.415
270.36	0.342
270.72	0.521
271.08	0.599
271.45	0.699
271.81	0.676
272.17	0.540
272.53	0.501
272.90	0.468
273.26	0.738
273.62	0.496
273.98	0.311
274.35	0.540
274.71	0.637
275.07	0.627
275.43	0.698
275.80	0.800
276.16	0.840
276.52	0.742
276.88	0.640
277.25	0.239
277.61	0.101
277.97	0.047
278.33	-0.024
278.69	-0.146
279.06	-0.118
279.42	-0.002
279.78	0.205
280.14	0.341
280.50	0.507
280.87	0.499
281.23	0.577
281.59	0.842
281.95	0.849
282.31	0.991
282.68	0.850
283.04	0.678
283.40	0.673
283.76	0.599
284.12	0.776
284.48	0.669
284.85	0.948
285.21	1.003
285.57	0.866
285.93	1.023
286.29	0.831
286.65	0.950
287.02	1.308
287.38	1.226
287.74	1.233
288.10	0.987
288.46	0.989
288.82	0.697
289.18	0.653
289.54	0.704
289.91	0.660
290.27	0.702
290.63	0.964
290.99	0.867
291.35	0.902
291.71	1.020
292.07	0.984
292.43	1.004
292.79	1.159
293.16	1.128
293.52	1.235
293.88	1.365
294.24	1.434
294.60	1.319
294.96	1.242
295.32	1.344
295.68	1.294
296.04	1.432
296.40	1.541
296.76	1.541
297.12	1.651
297.49	1.518
297.85	1.315
298.21	1.202
298.57	0.993
298.93	1.004
299.29	0.709
299.65	0.600
300.01	0.549
300.37	0.549
300.73	0.549
301.09	0.513
301.45	0.622
301.81	0.756
302.17	0.908
302.53	0.947
302.89	0.936
303.25	1.211
303.61	1.243
303.97	1.162
304.33	1.167
304.69	1.258
305.05	1.193
305.41	1.050
305.77	1.039
306.13	0.914
306.49	0.929
306.85	0.910
307.21	0.810
307.57	0.888
307.93	1.038
308.29	1.083
308.65	1.047
309.01	1.208
309.37	1.278
309.73	1.321
310.09	1.491
310.45	1.555
310.81	1.524
311.17	1.479
311.53	1.330
311.89	1.207
312.25	1.070
312.61	1.012
312.96	1.001
313.32	1.150
313.68	1.062
314.04	0.896
314.40	0.916
314.76	0.960
315.12	0.966
315.48	0.998
315.84	1.087
316.20	1.173
316.56	1.082
316.92	0.931
317.27	0.718
317.63	0.732
317.99	0.821
318.35	0.847
318.71	0.926
319.07	0.950
319.43	1.080
319.79	1.098
320.15	0.948
320.50	1.094
320.86	1.197
321.22	1.188
321.58	1.200
321.94	1.085
322.30	1.033
322.66	0.973
323.01	0.963
323.37	0.928
323.73	0.890
324.09	0.872
324.45	0.894
324.81	0.854
325.17	0.890
325.52	0.792
325.88	0.767
326.24	0.766
326.60	0.818
326.96	0.787
327.31	0.728
327.67	0.701
328.03	0.777
328.39	0.636
328.75	0.713
329.11	0.826
329.46	0.899
329.82	1.031
330.18	1.016
330.54	0.879
330.90	0.904
331.25	0.984
331.61	0.977
331.97	1.044
332.33	1.201
332.68	1.169
333.04	1.142
333.40	1.069
333.76	1.033
334.11	1.042
334.47	1.234
334.83	1.183
335.19	1.096
335.54	1.122
335.90	1.086
336.26	1.067
336.62	1.063
336.97	0.918
337.33	0.941
337.69	0.967
338.05	0.955
338.40	0.782
338.76	0.853
339.12	0.944
339.48	0.909
339.83	0.922
340.19	0.887
340.55	0.961
340.90	1.040
341.26	1.021
341.62	0.946
341.97	0.989
342.33	1.075
342.69	1.083
343.04	1.091
343.40	1.078
343.76	1.049
344.12	1.115
344.47	1.107
344.83	1.158
345.19	1.228
345.54	1.259
345.90	1.291
346.26	1.320
346.61	1.338
346.97	1.360
347.32	1.463
347.68	1.545
348.04	1.502
348.39	1.448
348.75	1.460
349.11	1.478
349.46	1.520
349.82	1.516
350.18	1.544
350.53	1.593
350.89	1.582
351.24	1.573
351.60	1.641
351.96	1.704
352.31	1.706
352.67	1.763
353.02	1.800
353.38	1.807
353.74	1.837
354.09	1.768
354.45	1.861
354.80	1.843
355.16	1.914
355.52	1.899
355.87	1.822
356.23	1.874
356.58	1.871
356.94	1.919
357.29	1.962
357.65	1.993
358.00	2.078
358.36	2.027
358.72	2.050
359.07	2.022
359.43	2.029
359.78	2.107
360.14	2.109
360.49	2.119
360.85	2.124
361.20	2.109
361.56	2.083
361.91	2.090
362.27	2.118
362.62	2.191
362.98	2.270
363.33	2.261
363.69	2.260
364.04	2.324
364.40	2.355
364.75	2.339
365.11	2.364
365.46	2.319
365.82	2.343
366.17	2.350
366.53	2.394
366.88	2.387
367.24	2.456
367.59	2.516
367.95	2.508
368.30	2.497
368.66	2.547
369.01	2.585
369.37	2.691
369.72	2.745
370.08	2.823
370.43	2.798
370.78	2.826
371.14	2.827
371.49	2.824
371.85	2.841
372.20	2.897
372.56	2.929
372.91	2.951
373.26	2.971
373.62	2.923
373.97	2.923
374.33	2.947
374.68	2.941
375.03	2.959
375.39	2.949
375.74	2.964
376.10	2.943
376.45	2.935
376.80	2.970
377.16	2.997
377.51	3.064
377.87	3.080
378.22	3.064
378.57	3.056
378.93	3.096
379.28	3.178
379.63	3.200
379.99	3.252
380.34	3.277
380.70	3.303
381.05	3.332
381.40	3.353
381.76	3.373
382.11	3.429
382.46	3.504
382.82	3.542
383.17	3.512
383.52	3.516
383.88	3.503
384.23	3.544
384.58	3.529
384.94	3.514
385.29	3.527
385.64	3.546
385.99	3.566
386.35	3.587
386.70	3.589
387.05	3.593
387.41	3.623
387.76	3.624
388.11	3.597
388.47	3.604
388.82	3.646
389.17	3.655
389.52	3.678
389.88	3.692
390.23	3.668
390.58	3.675
390.93	3.698
391.29	3.743
391.64	3.801
391.99	3.908
392.34	3.961
392.70	3.957
393.05	3.939
393.40	3.936
393.75	3.918
394.11	3.919
394.46	3.897
394.81	3.928
395.16	3.881
395.52	3.849
395.87	3.798
396.22	3.805
396.57	3.805
396.92	3.807
397.28	3.761
397.63	3.751
397.98	3.752
398.33	3.749
398.68	3.709
399.04	3.702
399.39	3.679
399.74	3.662
400.09	3.616
400.44	3.594
400.80	3.608
401.15	3.632
401.50	3.630
401.85	3.628
402.20	3.629
402.55	3.626
402.90	3.627
403.26	3.628
403.61	3.623
403.96	3.632
404.31	3.679
404.66	3.689
405.01	3.677
405.36	3.683
405.72	3.672
406.07	3.660
406.42	3.656
406.77	3.654
407.12	3.664
407.47	3.674
407.82	3.683
408.17	3.632
408.53	3.626
408.88	3.612
409.23	3.620
409.58	3.614
409.93	3.622
410.28	3.640
410.63	3.606
410.98	3.604
411.33	3.593
411.68	3.600
412.03	3.636
412.38	3.607
412.73	3.636
413.09	3.648
413.44	3.664
413.79	3.678
414.14	3.707
414.49	3.786
414.84	3.802
415.19	3.814
415.54	3.839
415.89	3.820
416.24	3.867
416.59	3.876
416.94	3.891
417.29	3.921
417.64	3.904
417.99	3.923
418.34	3.922
418.69	3.941
419.04	3.945
419.39	3.936
419.74	3.958
420.09	3.967
420.44	3.981
420.79	3.981
421.14	3.978
421.49	4.003
421.84	3.986
422.19	3.996
422.54	3.985
422.89	3.994
423.24	3.991
423.59	3.984
423.94	3.960
424.29	3.955
424.64	3.953
424.99	3.963
425.34	3.945
425.68	3.945
426.03	3.906
426.38	3.898
426.73	3.868
427.08	3.855
427.43	3.855
427.78	3.872
428.13	3.851
428.48	3.854
428.83	3.840
429.18	3.869
429.53	3.861
429.87	3.865
430.22	3.871
430.57	3.879
430.92	3.875
431.27	3.881
431.62	3.852
431.97	3.850
432.32	3.829
432.67	3.809
433.01	3.784
433.36	3.778
433.71	3.769
434.06	3.757
434.41	3.751
434.76	3.779
435.11	3.766
435.45	3.783
435.80	3.780
436.15	3.808
436.50	3.835
436.85	3.859
437.20	3.863
437.54	3.872
437.89	3.892
438.24	3.914
438.59	3.913
438.94	3.923
439.29	3.904
439.63	3.919
439.98	3.914
440.33	3.911
440.68	3.912
441.03	3.943
441.37	3.971
441.72	3.990
442.07	4.000
442.42	4.016
442.76	4.047
443.11	4.090
443.46	4.111
443.81	4.134
444.16	4.154
444.50	4.173
444.85	4.175
445.20	4.177
445.55	4.183
445.89	4.196
446.24	4.203
446.59	4.195
446.94	4.191
447.28	4.199
447.63	4.197
447.98	4.208
448.32	4.203
448.67	4.191
449.02	4.207
449.37	4.199
449.71	4.233
450.06	4.241
450.41	4.264
450.75	4.279
451.10	4.292
451.45	4.294
451.79	4.273
452.14	4.285
452.49	4.298
452.84	4.306
453.18	4.305
453.53	4.274
453.88	4.274
454.22	4.270
454.57	4.280
454.92	4.281
455.26	4.300
455.61	4.358
455.95	4.385
456.30	4.415
456.65	4.442
456.99	4.474
457.34	4.509
457.69	4.531
458.03	4.542
458.38	4.559
458.73	4.566
459.07	4.573
459.42	4.534
459.76	4.515
460.11	4.488
460.46	4.451
460.80	4.432
461.15	4.398
461.49	4.360
461.84	4.357
462.19	4.335
462.53	4.336
462.88	4.334
463.22	4.346
463.57	4.358
463.91	4.373
464.26	4.408
464.61	4.415
464.95	4.401
465.30	4.419
465.64	4.417
465.99	4.424
466.33	4.410
466.68	4.421
467.02	4.426
467.37	4.422
467.71	4.406
468.06	4.393
468.41	4.387
468.75	4.405
469.10	4.399
469.44	4.388
469.79	4.371
470.13	4.358
470.48	4.336
470.82	4.326
471.17	4.333
471.51	4.339
471.86	4.337
472.20	4.328
472.55	4.324
472.89	4.323
473.23	4.333
473.58	4.348
473.92	4.357
474.27	4.357
474.61	4.352
474.96	4.347
475.30	4.348
475.65	4.328
475.99	4.333
476.34	4.337
476.68	4.327
477.02	4.342
477.37	4.337
477.71	4.371
478.06	4.414
478.40	4.504
478.75	4.589
479.09	4.691
479.43	4.794
479.78	4.928
480.12	5.054
480.47	5.186
480.81	5.302
481.15	5.428
481.50	5.556
481.84	5.690
482.19	5.806
482.53	5.915
482.87	5.988
483.22	6.005
483.56	5.946
483.90	5.853
484.25	5.735
484.59	5.606
484.94	5.490
485.28	5.380
485.62	5.251
485.97	5.126
486.31	5.017
486.65	4.931
487.00	4.903
487.34	4.923
487.68	4.956
488.03	5.012
488.37	5.066
488.71	5.102
489.06	5.102
489.40	5.117
489.74	5.117
490.09	5.111
490.43	5.105
490.77	5.084
491.11	5.067
491.46	5.065
491.80	5.058
492.14	5.043
492.49	5.039
492.83	5.042
493.17	5.026
493.51	5.033
493.86	5.031
494.20	5.047
494.54	5.069
494.88	5.107
495.23	5.136
495.57	5.177
495.91	5.235
496.25	5.277
496.60	5.320
496.94	5.355
497.28	5.386
497.62	5.436
497.97	5.484
498.31	5.548
498.65	5.576
498.99	5.629
499.33	5.703
499.68	5.763
500.02	5.838
500.36	5.894
500.70	5.964
501.04	6.029
501.39	6.075
501.73	6.142
502.07	6.217
502.41	6.300
502.75	6.385
503.09	6.443
503.44	6.512
503.78	6.579
504.12	6.660
504.46	6.762
504.80	6.867
505.14	6.979
505.49	7.082
505.83	7.164
506.17	7.255
506.51	7.342
506.85	7.435
507.19	7.529
507.53	7.620
507.87	7.713
508.22	7.776
508.56	7.859
508.90	7.937
509.24	8.017
509.58	8.101
509.92	8.199
510.26	8.294
510.60	8.363
510.94	8.444
511.28	8.522
511.63	8.619
511.97	8.728
512.31	8.827
512.65	8.935
512.99	9.052
513.33	9.217
513.67	9.339
514.01	9.492
514.35	9.647
514.69	9.799
515.03	9.941
515.37	10.090
515.71	10.214
516.05	10.335
516.39	10.455
516.73	10.563
517.07	10.638
517.41	10.722
517.75	10.769
518.09	10.844
518.43	10.904
518.77	10.954
519.11	10.995
519.45	11.050
519.79	11.135
520.13	11.204
520.47	11.285
520.81	11.367
521.15	11.471
521.49	11.597
521.83	11.714
522.17	11.842
522.51	11.993
522.85	12.160
523.19	12.351
523.53	12.524
523.87	12.724
524.21	12.910
524.55	13.099
524.89	13.270
525.23	13.448
525.57	13.592
525.91	13.723
526.25	13.828
526.58	13.938
526.92	14.015
527.26	14.073
527.60	14.096
527.94	14.117
528.28	14.123
528.62	14.110
528.96	14.079
529.30	14.052
529.64	14.022
529.97	14.019
530.31	13.981
530.65	13.964
530.99	13.968
531.33	13.990
531.67	14.007
532.01	14.018
532.35	14.049
532.68	14.068
533.02	14.079
533.36	14.080
533.70	14.067
534.04	14.062
534.38	14.063
534.71	14.057
535.05	14.063
535.39	14.080
535.73	14.096
536.07	14.111
536.41	14.148
536.74	14.196
537.08	14.260
537.42	14.337
537.76	14.391
538.10	14.456
538.43	14.516
538.77	14.569
539.11	14.605
539.45	14.643
539.79	14.682
540.12	14.701
540.46	14.718
540.80	14.721
541.14	14.700
541.47	14.678
541.81	14.652
542.15	14.628
542.49	14.589
542.82	14.554
543.16	14.522
543.50	14.485
543.84	14.461
544.17	14.429
544.51	14.432
544.85	14.413
545.18	14.432
545.52	14.415
545.86	14.385
546.20	14.392
546.53	14.397
546.87	14.399
547.21	14.404
547.54	14.385
547.88	14.398
548.22	14.367
548.55	14.365
548.89	14.365
549.23	14.392
549.56	14.425
549.90	14.438
550.24	14.431
550.57	14.431
550.91	14.433
551.25	14.463
551.58	14.463
551.92	14.475
552.26	14.477
552.59	14.454
552.93	14.441
553.27	14.434
553.60	14.427
553.94	14.407
554.27	14.406
554.61	14.404
554.95	14.353
555.28	14.326
555.62	14.300
555.95	14.310
556.29	14.321
556.63	14.321
556.96	14.310
557.30	14.296
557.63	14.307
557.97	14.268
558.31	14.213
558.64	14.199
558.98	14.178
559.31	14.174
559.65	14.137
559.98	14.103
560.32	14.049
560.65	13.985
560.99	13.932
561.33	13.886
561.66	13.845
562.00	13.827
562.33	13.801
562.67	13.784
563.00	13.723
563.34	13.705
563.67	13.672
564.01	13.649
564.34	13.622
564.68	13.589
565.01	13.543
565.35	13.496
565.68	13.448
566.02	13.383
566.35	13.324
566.69	13.278
567.02	13.216
567.36	13.149
567.69	13.092
568.03	13.068
568.36	13.016
568.69	12.995
569.03	12.965
569.36	12.919
569.70	12.879
570.03	12.851
570.37	12.813
570.70	12.779
571.04	12.750
571.37	12.692
571.70	12.633
572.04	12.575
572.37	12.509
572.71	12.458
573.04	12.418
573.37	12.403
573.71	12.349
574.04	12.304
574.38	12.243
574.71	12.177
575.04	12.144
575.38	12.090
575.71	12.044
576.05	12.001
576.38	11.979
576.71	11.922
577.05	11.870
577.38	11.809
577.71	11.772
578.05	11.745
578.38	11.709
578.71	11.657
579.05	11.615
579.38	11.572
579.71	11.514
580.05	11.441
580.38	11.405
580.71	11.356
581.05	11.319
581.38	11.274
581.71	11.217
582.05	11.191
582.38	11.170
582.71	11.121
583.04	11.103
583.38	11.077
583.71	11.062
584.04	11.060
584.38	11.025
584.71	11.023
585.04	11.027
585.37	11.020
585.71	11.039
586.04	11.022
586.37	11.038
586.70	11.046
587.04	11.054
587.37	11.062
587.70	11.031
588.03	11.031
588.37	11.008
588.70	10.982
589.03	10.967
589.36	10.912
589.69	10.867
590.03	10.823
590.36	10.796
590.69	10.753
591.02	10.696
591.35	10.667
591.69	10.627
592.02	10.614
592.35	10.591
592.68	10.561
593.01	10.546
593.35	10.541
593.68	10.562
594.01	10.536
594.34	10.518
594.67	10.524
595.00	10.510
595.34	10.501
595.67	10.438
596.00	10.409
596.33	10.381
596.66	10.355
596.99	10.329
597.32	10.281
597.65	10.242
597.99	10.197
598.32	10.132
598.65	10.085
598.98	10.040
599.31	10.034
599.64	10.015
599.97	10.007
600.30	9.987
600.63	9.982
600.96	9.972
601.30	9.985
601.63	10.010
601.96	10.024
602.29	10.017
602.62	10.006
602.95	10.003
603.28	9.991
603.61	9.933
603.94	9.884
604.27	9.865
604.60	9.809
604.93	9.754
605.26	9.719
605.59	9.681
605.92	9.664
606.25	9.631
606.58	9.594
606.91	9.532
607.24	9.559
607.57	9.528
607.90	9.472
608.23	9.454
608.56	9.412
608.89	9.366
609.22	9.321
609.55	9.258
609.88	9.205
610.21	9.156
610.54	9.108
610.87	9.005
611.20	8.981
611.53	8.940
611.86	8.887
612.19	8.830
612.52	8.767
612.85	8.730
613.18	8.702
613.51	8.653
613.84	8.599
614.17	8.569
614.49	8.570
614.82	8.527
615.15	8.488
615.48	8.446
615.81	8.443
616.14	8.403
616.47	8.361
616.80	8.325
617.13	8.281
617.46	8.235
617.78	8.208
618.11	8.173
618.44	8.171
618.77	8.151
619.10	8.134
619.43	8.113
619.76	8.092
620.09	8.063
620.41	8.027
620.74	8.047
621.07	8.085
621.40	8.100
621.73	8.083
622.06	8.077
622.38	8.071
622.71	8.066
623.04	8.085
623.37	8.146
623.70	8.163
624.02	8.238
624.35	8.249
624.68	8.256
625.01	8.268
625.34	8.314
625.66	8.333
625.99	8.367
626.32	8.396
626.65	8.368
626.98	8.334
627.30	8.333
627.63	8.261
627.96	8.262
628.29	8.231
628.61	8.204
628.94	8.167
629.27	8.113
629.60	8.067
629.92	8.052
630.25	8.000
630.58	7.968
630.91	7.939
631.23	7.919
631.56	7.850
631.89	7.805
632.21	7.785
632.54	7.714
632.87	7.657
633.19	7.609
633.52	7.564
633.85	7.536
634.18	7.463
634.50	7.394
634.83	7.342
635.16	7.288
635.48	7.217
635.81	7.125
636.14	7.061
636.46	7.022
636.79	6.934
637.11	6.816
637.44	6.750
637.77	6.705
638.09	6.641
638.42	6.548
638.75	6.482
639.07	6.424
639.40	6.345
639.73	6.263
640.05	6.210
640.38	6.212
640.70	6.143
641.03	6.069
641.36	5.979
641.68	5.935
642.01	5.886
642.33	5.856
642.66	5.845
642.98	5.811
643.31	5.821
643.64	5.764
643.96	5.711
644.29	5.722
644.61	5.736
644.94	5.746
645.26	5.750
645.59	5.783
645.91	5.770
646.24	5.743
646.56	5.730
646.89	5.683
647.22	5.688
647.54	5.672
647.87	5.682
648.19	5.636
648.52	5.627
648.84	5.581
649.17	5.506
649.49	5.508
649.82	5.509
650.14	5.509
650.47	5.529
650.79	5.505
651.11	5.480
651.44	5.428
651.76	5.436
652.09	5.502
652.41	5.505
652.74	5.534
653.06	5.517
653.39	5.483
653.71	5.475
654.04	5.483
654.36	5.459
654.68	5.476
655.01	5.518
655.33	5.532
655.66	5.466
655.98	5.477
656.30	5.464
656.63	5.466
656.95	5.470
657.28	5.467
657.60	5.416
657.92	5.378
658.25	5.316
658.57	5.294
658.90	5.284
659.22	5.237
659.54	5.214
659.87	5.176
660.19	5.087
660.51	5.036
660.84	4.987
661.16	4.978
661.48	5.028
661.81	5.036
662.13	4.965
662.45	4.901
662.78	4.918
663.10	4.897
663.42	4.933
663.75	4.992
664.07	5.010
664.39	5.004
664.72	4.983
665.04	4.980
665.36	5.031
665.69	5.088
666.01	5.168
666.33	5.190
666.65	5.222
666.98	5.275
667.30	5.326
667.62	5.379
667.94	5.478
668.27	5.555
668.59	5.678
668.91	5.734
669.23	5.827
669.56	5.873
669.88	6.032
670.20	6.139
670.52	6.245
670.85	6.313
671.17	6.489
671.49	6.600
671.81	6.748
672.13	6.778
672.46	6.955
672.78	7.087
673.10	7.234
673.42	7.356
673.74	7.523
674.07	7.673
674.39	7.900
674.71	7.949
675.03	8.180
675.35	8.370
675.67	8.544
676.00	8.622
676.32	8.718
676.64	8.853
676.96	8.997
677.28	9.111
677.60	9.256
677.92	9.384
678.25	9.570
678.57	9.612
678.89	9.718
679.21	9.841
679.53	10.003
679.85	10.191
680.17	10.404
680.49	10.553
680.81	10.774
681.13	10.922
681.46	11.064
681.78	11.309
682.10	11.569
682.42	11.794
682.74	12.049
683.06	12.316
683.38	12.526
683.70	12.698
684.02	12.922
684.34	13.085
684.66	13.292
684.98	13.498
685.30	13.636
685.62	13.803
685.94	13.952
686.26	14.085
686.58	14.188
686.90	14.323
687.22	14.483
687.54	14.563
687.86	14.665
688.18	14.814
688.50	14.978
688.82	15.070
689.14	15.195
689.46	15.326
689.78	15.441
690.10	15.625
690.42	15.759
690.74	15.792
691.06	15.937
691.38	16.124
691.70	16.278
692.02	16.331
692.34	16.450
692.66	16.560
692.98	16.734
693.30	16.852
693.62	16.922
693.94	17.014
694.26	17.235
694.57	17.345
694.89	17.442
695.21	17.500
695.53	17.671
695.85	17.783
696.17	17.860
696.49	17.965
696.81	18.112
697.13	18.241
697.44	18.366
697.76	18.487
698.08	18.692
698.40	18.863
698.72	19.047
699.04	19.233
699.36	19.534
699.67	19.772
699.99	19.996
700.31	20.199
700.63	20.436
700.95	20.735
701.27	20.958
701.58	21.146
701.90	21.339
702.22	21.591
702.54	21.787
702.86	21.913
703.17	22.151
703.49	22.351
703.81	22.633
704.13	22.854
704.45	23.142
704.76	23.368
705.08	23.617
705.40	23.846
705.72	24.042
706.03	24.258
706.35	24.503
706.67	24.670
706.99	24.849
707.30	25.036
707.62	25.214
707.94	25.318
708.26	25.541
708.57	25.640
708.89	25.899
709.21	26.111
709.53	26.346
709.84	26.489
710.16	26.720
710.48	26.946
710.79	27.159
711.11	27.342
711.43	27.524
711.74	27.721
712.06	27.978
712.38	28.170
712.69	28.343
713.01	28.493
713.33	28.763
713.64	29.041
713.96	29.258
714.28	29.523
714.59	29.852
714.91	30.219
715.23	30.614
715.54	30.966
715.86	31.324
716.17	31.695
716.49	32.093
716.81	32.441
717.12	32.680
717.44	33.004
717.76	33.434
718.07	33.649
718.39	33.936
718.70	34.126
719.02	34.277
719.33	34.330
719.65	34.454
719.97	34.522
720.28	34.721
720.60	34.892
720.91	35.146
721.23	35.309
721.54	35.607
721.86	35.698
722.17	35.787
722.49	36.020
722.81	36.265
723.12	36.593
723.44	36.789
723.75	37.017
724.07	37.272
724.38	37.444
724.70	37.601
725.01	37.709
725.33	37.886
725.64	38.112
725.96	38.352
726.27	38.412
726.59	38.543
726.90	38.758
727.22	38.643
727.53	38.701
727.84	38.805
728.16	38.879
728.47	38.974
728.79	39.162
729.10	39.227
729.42	39.129
729.73	39.293
730.05	39.393
730.36	39.473
730.67	39.749
730.99	40.060
731.30	40.061
731.62	40.223
731.93	40.376
732.24	40.480
732.56	40.629
732.87	40.953
733.19	41.066
733.50	41.121
733.81	41.297
734.13	41.368
734.44	41.382
734.76	41.603
735.07	41.631
735.38	41.736
735.70	41.959
736.01	42.119
736.32	42.220
736.64	42.568
736.95	42.570
737.26	42.619
737.58	42.777
737.89	42.959
738.20	43.074
738.52	43.114
738.83	43.203
739.14	43.173
739.45	43.095
739.77	43.132
740.08	42.946
740.39	43.160
740.71	43.382
741.02	43.426
741.33	43.407
741.64	43.392
741.96	43.554
742.27	43.547
742.58	43.558
742.90	43.854
743.21	43.762
743.52	43.963
743.83	44.041
744.14	43.932
744.46	44.165
744.77	44.178
745.08	44.191
745.39	44.140
745.71	44.117
746.02	44.103
746.33	44.002
746.64	43.925
746.95	43.937
747.27	43.847
747.58	43.922
747.89	43.649
748.20	43.454
748.51	43.604
748.82	43.498
749.14	43.613
749.45	43.801
749.76	43.924
750.07	44.113
750.38	44.102
750.69	44.191
751.01	44.235
751.32	44.351
751.63	44.565
751.94	44.378
752.25	44.562
752.56	44.578
752.87	44.345
753.18	44.142
753.49	44.238
753.81	44.191
754.12	44.151
754.43	44.066
754.74	44.165
755.05	44.172
755.36	44.417
755.67	44.405
755.98	44.706
756.29	44.967
756.60	45.222
756.91	45.331
757.22	45.563
757.53	45.831
757.84	46.092
758.15	46.216
758.46	46.526
758.77	46.651
759.09	46.705
759.40	46.545
759.71	46.545
760.02	46.366
760.33	46.370
760.64	46.382
760.95	46.395
761.26	46.264
761.57	46.193
761.88	45.994
762.18	45.869
762.49	45.791
762.80	45.847
763.11	45.788
763.42	45.768
763.73	45.728
764.04	45.592
764.35	45.377
764.66	45.187
764.97	44.980
765.28	44.710
765.59	44.413
765.90	44.150
766.21	43.758
766.52	43.450
766.83	43.499
767.14	43.262
767.44	42.894
767.75	42.656
768.06	42.643
768.37	42.424
768.68	42.375
768.99	42.462
769.30	42.658
769.61	42.607
769.91	42.533
770.22	42.020
770.53	41.687
770.84	41.786
771.15	41.703
771.46	41.470
771.77	41.556
772.07	41.596
772.38	41.397
772.69	41.115
773.00	41.102
773.31	41.277
773.61	41.296
773.92	41.513
774.23	41.374
774.54	41.381
774.85	41.353
775.15	41.351
775.46	41.053
775.77	41.274
776.08	41.314
776.39	41.017
776.69	40.867
777.00	40.875
777.31	40.848
777.62	40.789
777.92	40.778
778.23	40.989
778.54	41.014
778.85	41.204
779.15	40.886
779.46	41.046
779.77	41.125
780.07	41.192
780.38	41.231
780.69	40.926
781.00	40.842
781.30	40.867
781.61	40.466
781.92	40.264
782.22	40.425
782.53	40.249
782.84	40.230
783.14	40.572
783.45	40.544
783.76	41.033
784.06	41.287
784.37	41.399
784.68	41.437
784.98	41.737
785.29	41.982
785.60	41.678
785.90	42.004
786.21	41.782
786.51	41.853
786.82	41.954
787.13	41.734
787.43	41.725
787.74	41.969
788.04	41.917
788.35	42.015
788.66	42.018
788.96	42.252
789.27	42.388
789.57	42.197
789.88	42.196
790.19	42.187
790.49	42.104
790.80	42.070
791.10	41.933
791.41	42.142
791.71	42.007
792.02	41.714
792.32	41.803
792.63	41.797
792.93	42.246
793.24	42.077
793.54	42.044
793.85	42.117
794.15	42.184
794.46	42.338
794.76	42.363
795.07	42.505
795.37	42.926
795.68	42.981
795.98	43.077
796.29	43.221
796.59	43.170
796.90	43.115
797.20	43.046
797.51	42.829
797.81	42.749
798.12	42.482
798.42	42.529
798.72	42.326
799.03	42.451
799.33	42.124
799.64	41.838
799.94	42.112
800.25	42.039
800.55	42.182
800.85	42.762
801.16	42.695
801.46	43.109
801.77	43.068
802.07	43.109
802.37	42.925
802.68	43.372
802.98	43.324
803.28	43.095
803.59	43.250
803.89	43.171
804.20	43.063
804.50	43.210
804.80	42.945
805.11	42.886
805.41	42.691
805.71	42.680
806.02	42.288
806.32	42.358
806.62	42.497
806.93	42.537
807.23	42.301
807.53	42.319
807.83	42.273
808.14	42.711
808.44	42.942
808.74	43.304
809.05	42.889
809.35	43.032
809.65	43.435
809.95	43.636
810.26	43.081
810.56	43.465
810.86	43.377
811.16	43.678
811.47	43.705
811.77	43.735
812.07	43.337
812.37	44.186
812.68	44.432
812.98	44.366
813.28	44.460
813.58	45.678
813.88	45.334
814.19	45.823
814.49	45.877
814.79	45.685
815.09	46.064
815.39	46.358
815.70	46.286
816.00	46.492
816.30	46.411
816.60	46.406
816.90	45.866
817.20	46.522
817.50	46.491
817.81	46.271
818.11	46.234
818.41	46.316
818.71	46.460
819.01	46.579
819.31	46.808
819.61	47.045
819.92	47.268
820.22	47.631
820.52	47.717
820.82	47.957
821.12	48.315
821.42	48.658
821.72	48.800
822.02	49.084
822.32	49.380
822.62	49.666
822.92	49.831
823.22	50.049
823.52	50.172
823.83	50.382
824.13	50.371
824.43	50.228
824.73	50.103
825.03	50.124
825.33	50.097
825.63	49.933
825.93	49.595
826.23	49.552
826.53	49.422
826.83	49.248
827.13	49.181
827.43	49.231
827.73	49.355
828.03	49.486
828.33	49.567
828.63	49.411
828.93	49.524
829.23	49.519
829.53	49.131
829.83	48.819
830.13	48.546
830.42	48.297
830.72	48.003
831.02	47.899
831.32	47.598
831.62	47.630
831.92	47.675
832.22	47.364
832.52	47.105
832.82	47.474
833.12	47.487
833.42	47.660
833.72	47.726
834.01	47.984
834.31	48.151
834.61	48.289
834.91	48.548
835.21	48.585
835.51	48.863
835.81	49.156
836.11	48.812
836.40	48.574
836.70	48.308
837.00	48.527
837.30	47.850
837.60	47.314
837.90	47.197
838.19	46.521
838.49	46.404
838.79	46.305
839.09	46.055
839.39	46.463
839.68	46.561
839.98	46.068
840.28	45.412
840.58	46.091
840.88	47.024
841.17	46.854
841.47	47.223
841.77	47.480
842.07	46.820
842.36	46.462
842.66	45.436
842.96	44.948
843.26	44.451
843.55	43.986
843.85	42.957
844.15	41.002
844.45	41.050
844.74	39.889
845.04	39.263
845.34	38.580
845.63	38.861
845.93	40.395
846.23	41.279
846.53	42.899
846.82	42.353
847.12	42.543
847.42	42.512
847.71	41.045
848.01	40.786
848.31	39.095
848.60	39.547
848.90	39.228
849.19	37.276
849.49	37.175
849.79	36.589
850.08	36.531
850.38	36.555
850.68	37.451
850.97	40.886
851.27	41.954
851.56	41.792
851.86	42.693
852.16	43.990
852.45	45.688
852.75	43.654
853.04	43.925
853.34	44.868
853.64	44.033
853.93	43.141
854.23	41.822
854.52	41.173
854.82	43.448
855.11	41.980
855.41	41.877
855.70	41.760
856.00	43.430
856.30	41.467
856.59	41.735
856.89	43.223
857.18	44.067
857.48	42.268
857.77	40.913
858.07	40.065
858.36	40.279
858.66	38.679
858.95	38.504
859.25	39.030
859.54	40.067
859.84	39.633
860.13	37.393
860.42	36.798
860.72	37.080
861.01	38.735
861.31	40.606
861.60	42.213
861.90	45.729
862.19	45.829
862.49	44.416
862.78	44.543
863.07	45.391
863.37	46.868
863.66	45.561
863.96	47.048
864.25	47.007
864.54	45.299
864.84	45.277
865.13	42.614
865.43	43.772
865.72	48.501
866.01	43.958
866.31	51.999
866.60	36.222
866.89	56.171
>>>>>End Spectral Data<<<<<
