OOIBase32 Version 2.0.0.6 Data File
++++++++++++++++++++++++++++++++++++
Date: 01-23-2012, 23:12:36
User: Valued Ocean Optics Customer
Spectrometer Serial Number: USB2E2917
Spectrometer Channel: Master
Integration Time (msec): 5
Spectra Averaged: 10
Boxcar Smoothing: 5
Correct for Electrical Dark: Enabled
Time Normalized: Disabled
Dual-beam Reference: Disabled
Reference Channel: Master
Temperature: Not acquired
Spectrometer Type: S2000
ADC Type: USB2000
Number of Pixels in File: 2048
Graph Title: 
>>>>>Begin Spectral Data<<<<<
180.30	0.000
180.67	0.000
181.03	117.801
181.40	265.311
181.77	-11660.627
182.14	79.281
182.51	-492.729
182.88	12.687
183.25	-8.575
183.62	39.790
183.99	-27.826
184.36	-7.576
184.73	247.070
185.10	50.414
185.46	138.739
185.83	-241.026
186.20	181.771
186.57	175.040
186.94	144.465
187.31	1.414
187.68	183.460
188.05	35.554
188.42	43.873
188.78	86.808
189.15	646.563
189.52	-194.276
189.89	-30.107
190.26	-5.630
190.63	13.432
191.00	22.057
191.37	23.838
191.73	42.416
192.10	42.373
192.47	41.998
192.84	39.789
193.21	57.034
193.58	60.374
193.94	66.727
194.31	50.465
194.68	37.785
195.05	29.788
195.42	42.228
195.79	18.800
196.15	8.341
196.52	-3.336
196.89	0.184
197.26	-15.588
197.63	-2.054
198.00	-10.583
198.36	8.060
198.73	24.917
199.10	20.265
199.47	3.234
199.84	8.986
200.20	10.957
200.57	19.666
200.94	22.575
201.31	27.908
201.68	9.551
202.04	18.137
202.41	8.730
202.78	-5.115
203.15	-15.150
203.51	-12.281
203.88	-12.845
204.25	3.031
204.62	1.283
204.98	-14.357
205.35	-18.594
205.72	-6.770
206.09	-7.517
206.46	-21.231
206.82	1.460
207.19	21.607
207.56	6.419
207.92	16.062
208.29	-19.787
208.66	-6.400
209.03	-13.986
209.39	6.342
209.76	-4.397
210.13	-26.351
210.50	-24.609
210.86	-29.988
211.23	-45.311
211.60	-29.190
211.96	-33.807
212.33	-10.081
212.70	-13.095
213.07	-9.648
213.43	-53.274
213.80	-42.752
214.17	-18.007
214.53	-2.972
214.90	-1.611
215.27	1.128
215.63	0.667
216.00	8.478
216.37	1.246
216.74	-7.584
217.10	-3.636
217.47	6.845
217.84	10.165
218.20	3.964
218.57	0.482
218.94	3.235
219.30	5.714
219.67	3.863
220.04	-7.218
220.40	-13.402
220.77	-19.275
221.13	-16.032
221.50	-15.809
221.87	-14.360
222.23	-15.736
222.60	-24.608
222.97	-31.530
223.33	-26.052
223.70	-21.175
224.07	-19.655
224.43	-15.074
224.80	-8.589
225.16	-8.174
225.53	-8.792
225.90	-12.656
226.26	-9.633
226.63	-7.053
226.99	-4.860
227.36	-4.167
227.73	-1.914
228.09	-1.718
228.46	-0.468
228.82	0.492
229.19	0.174
229.56	0.516
229.92	3.318
230.29	3.436
230.65	4.106
231.02	4.271
231.38	1.870
231.75	0.017
232.12	0.014
232.48	-3.189
232.85	-5.652
233.21	-5.284
233.58	-6.427
233.94	-6.657
234.31	-7.111
234.68	-6.343
235.04	-6.991
235.41	-5.661
235.77	-5.294
236.14	-4.022
236.50	0.385
236.87	0.219
237.23	0.585
237.60	-0.346
237.96	-0.264
238.33	-0.779
238.69	-1.540
239.06	-1.273
239.42	-1.612
239.79	-1.916
240.15	-2.119
240.52	-3.332
240.88	-2.279
241.25	-2.158
241.61	-1.347
241.98	-1.673
242.34	-1.378
242.71	-0.663
243.07	-0.126
243.44	-0.138
243.80	0.208
244.17	0.196
244.53	0.152
244.90	-0.013
245.26	-0.028
245.63	-0.115
245.99	-0.041
246.36	-0.055
246.72	-0.246
247.09	-0.823
247.45	-0.492
247.81	-0.367
248.18	-0.400
248.54	-0.015
248.91	-0.240
249.27	-0.251
249.64	0.268
250.00	0.363
250.36	0.312
250.73	0.277
251.09	0.951
251.46	0.596
251.82	0.248
252.19	0.652
252.55	0.029
252.91	0.419
253.28	0.292
253.64	-0.496
254.01	-0.177
254.37	0.151
254.73	0.784
255.10	0.761
255.46	0.973
255.83	1.070
256.19	0.918
256.55	0.819
256.92	0.797
257.28	0.768
257.65	1.133
258.01	1.044
258.37	0.980
258.74	0.527
259.10	0.410
259.46	0.297
259.83	0.106
260.19	0.034
260.55	0.230
260.92	-0.119
261.28	-0.115
261.64	-0.452
262.01	-0.392
262.37	-0.196
262.73	0.318
263.10	0.438
263.46	0.390
263.82	0.536
264.19	0.464
264.55	0.144
264.91	0.418
265.28	0.304
265.64	0.372
266.00	0.104
266.37	-0.240
266.73	-0.530
267.09	-0.481
267.46	-0.446
267.82	-0.602
268.18	-0.471
268.54	-0.076
268.91	-0.137
269.27	-0.060
269.63	0.136
270.00	0.121
270.36	0.225
270.72	0.455
271.08	0.589
271.45	0.599
271.81	0.540
272.17	0.382
272.53	0.142
272.90	0.189
273.26	0.335
273.62	0.111
273.98	0.126
274.35	-0.099
274.71	-0.227
275.07	-0.422
275.43	-0.334
275.80	-0.309
276.16	-0.217
276.52	-0.242
276.88	-0.254
277.25	-0.646
277.61	-0.840
277.97	-0.974
278.33	-0.813
278.69	-0.877
279.06	-0.873
279.42	-0.788
279.78	-0.646
280.14	-0.695
280.50	-0.558
280.87	-0.385
281.23	-0.100
281.59	0.247
281.95	0.450
282.31	0.623
282.68	0.444
283.04	0.372
283.40	0.364
283.76	0.449
284.12	0.710
284.48	0.854
284.85	0.867
285.21	0.857
285.57	0.653
285.93	0.744
286.29	0.533
286.65	0.860
287.02	1.292
287.38	1.381
287.74	1.302
288.10	1.111
288.46	0.929
288.82	0.691
289.18	0.690
289.54	0.743
289.91	0.697
290.27	0.862
290.63	0.750
290.99	0.294
291.35	0.134
291.71	0.134
292.07	0.086
292.43	0.149
292.79	0.264
293.16	0.231
293.52	0.370
293.88	0.385
294.24	0.220
294.60	0.190
294.96	0.354
295.32	0.397
295.68	0.472
296.04	0.568
296.40	0.623
296.76	0.812
297.12	0.724
297.49	0.616
297.85	0.610
298.21	0.633
298.57	0.498
298.93	0.402
299.29	0.296
299.65	0.338
300.01	0.300
300.37	0.365
300.73	0.259
301.09	0.371
301.45	0.352
301.81	0.340
302.17	0.471
302.53	0.506
302.89	0.450
303.25	0.503
303.61	0.464
303.97	0.356
304.33	0.178
304.69	0.108
305.05	0.122
305.41	0.158
305.77	0.156
306.13	0.124
306.49	0.142
306.85	0.337
307.21	0.366
307.57	0.420
307.93	0.520
308.29	0.714
308.65	0.798
309.01	0.783
309.37	0.761
309.73	0.759
310.09	0.908
310.45	1.068
310.81	0.964
311.17	0.889
311.53	0.772
311.89	0.766
312.25	0.591
312.61	0.563
312.96	0.489
313.32	0.545
313.68	0.545
314.04	0.433
314.40	0.417
314.76	0.371
315.12	0.416
315.48	0.526
315.84	0.467
316.20	0.491
316.56	0.394
316.92	0.425
317.27	0.392
317.63	0.275
317.99	0.128
318.35	0.096
318.71	0.184
319.07	0.264
319.43	0.286
319.79	0.467
320.15	0.426
320.50	0.476
320.86	0.471
321.22	0.554
321.58	0.665
321.94	0.765
322.30	0.642
322.66	0.616
323.01	0.510
323.37	0.421
323.73	0.364
324.09	0.356
324.45	0.349
324.81	0.367
325.17	0.303
325.52	0.265
325.88	0.207
326.24	0.297
326.60	0.298
326.96	0.390
327.31	0.370
327.67	0.354
328.03	0.483
328.39	0.525
328.75	0.510
329.11	0.486
329.46	0.437
329.82	0.514
330.18	0.501
330.54	0.498
330.90	0.375
331.25	0.403
331.61	0.395
331.97	0.371
332.33	0.423
332.68	0.513
333.04	0.572
333.40	0.587
333.76	0.573
334.11	0.587
334.47	0.568
334.83	0.607
335.19	0.579
335.54	0.581
335.90	0.523
336.26	0.465
336.62	0.310
336.97	0.241
337.33	0.194
337.69	0.183
338.05	0.124
338.40	0.091
338.76	0.140
339.12	0.241
339.48	0.226
339.83	0.206
340.19	0.195
340.55	0.331
340.90	0.357
341.26	0.429
341.62	0.376
341.97	0.413
342.33	0.556
342.69	0.610
343.04	0.588
343.40	0.578
343.76	0.543
344.12	0.564
344.47	0.615
344.83	0.672
345.19	0.720
345.54	0.780
345.90	0.782
346.26	0.775
346.61	0.758
346.97	0.782
347.32	0.831
347.68	0.891
348.04	0.872
348.39	0.787
348.75	0.779
349.11	0.768
349.46	0.790
349.82	0.794
350.18	0.710
350.53	0.744
350.89	0.724
351.24	0.717
351.60	0.742
351.96	0.803
352.31	0.808
352.67	0.817
353.02	0.789
353.38	0.801
353.74	0.836
354.09	0.843
354.45	0.850
354.80	0.842
355.16	0.876
355.52	0.933
355.87	0.921
356.23	0.945
356.58	0.954
356.94	1.018
357.29	1.028
357.65	1.077
358.00	1.140
358.36	1.143
358.72	1.184
359.07	1.209
359.43	1.178
359.78	1.227
360.14	1.255
360.49	1.272
360.85	1.289
361.20	1.321
361.56	1.302
361.91	1.291
362.27	1.293
362.62	1.322
362.98	1.339
363.33	1.352
363.69	1.316
364.04	1.333
364.40	1.372
364.75	1.370
365.11	1.359
365.46	1.381
365.82	1.452
366.17	1.455
366.53	1.445
366.88	1.470
367.24	1.525
367.59	1.541
367.95	1.575
368.30	1.600
368.66	1.657
369.01	1.671
369.37	1.719
369.72	1.771
370.08	1.847
370.43	1.908
370.78	1.936
371.14	1.926
371.49	1.996
371.85	2.044
372.20	2.063
372.56	2.041
372.91	2.096
373.26	2.124
373.62	2.045
373.97	2.082
374.33	2.071
374.68	2.085
375.03	2.118
375.39	2.102
375.74	2.077
376.10	2.073
376.45	2.101
376.80	2.159
377.16	2.120
377.51	2.213
377.87	2.217
378.22	2.223
378.57	2.199
378.93	2.257
379.28	2.345
379.63	2.371
379.99	2.432
380.34	2.485
380.70	2.448
381.05	2.556
381.40	2.516
381.76	2.543
382.11	2.615
382.46	2.707
382.82	2.746
383.17	2.735
383.52	2.737
383.88	2.747
384.23	2.742
384.58	2.774
384.94	2.756
385.29	2.813
385.64	2.820
385.99	2.806
386.35	2.807
386.70	2.764
387.05	2.731
387.41	2.763
387.76	2.768
388.11	2.806
388.47	2.835
388.82	2.862
389.17	2.894
389.52	2.921
389.88	3.001
390.23	3.008
390.58	3.063
390.93	3.135
391.29	3.173
391.64	3.205
391.99	3.268
392.34	3.310
392.70	3.333
393.05	3.294
393.40	3.280
393.75	3.246
394.11	3.241
394.46	3.223
394.81	3.199
395.16	3.166
395.52	3.116
395.87	3.031
396.22	2.998
396.57	2.938
396.92	2.959
397.28	2.953
397.63	2.945
397.98	2.927
398.33	2.928
398.68	2.926
399.04	2.944
399.39	2.942
399.74	2.949
400.09	2.951
400.44	2.995
400.80	2.982
401.15	2.959
401.50	2.957
401.85	2.980
402.20	2.974
402.55	2.979
402.90	2.967
403.26	2.988
403.61	2.990
403.96	2.972
404.31	2.945
404.66	2.948
405.01	2.959
405.36	2.949
405.72	2.957
406.07	2.952
406.42	2.909
406.77	2.896
407.12	2.887
407.47	2.902
407.82	2.892
408.17	2.889
408.53	2.874
408.88	2.844
409.23	2.827
409.58	2.772
409.93	2.812
410.28	2.834
410.63	2.828
410.98	2.832
411.33	2.796
411.68	2.842
412.03	2.853
412.38	2.839
412.73	2.877
413.09	2.906
413.44	2.950
413.79	2.939
414.14	2.973
414.49	3.004
414.84	3.009
415.19	3.032
415.54	3.033
415.89	3.044
416.24	3.117
416.59	3.138
416.94	3.144
417.29	3.160
417.64	3.147
417.99	3.167
418.34	3.178
418.69	3.192
419.04	3.196
419.39	3.191
419.74	3.187
420.09	3.169
420.44	3.170
420.79	3.176
421.14	3.177
421.49	3.189
421.84	3.176
422.19	3.183
422.54	3.180
422.89	3.181
423.24	3.188
423.59	3.185
423.94	3.162
424.29	3.148
424.64	3.134
424.99	3.107
425.34	3.093
425.68	3.077
426.03	3.037
426.38	3.023
426.73	3.020
427.08	2.973
427.43	3.001
427.78	3.025
428.13	3.020
428.48	3.024
428.83	3.025
429.18	3.031
429.53	3.028
429.87	3.026
430.22	3.018
430.57	3.027
430.92	3.041
431.27	3.019
431.62	3.007
431.97	3.013
432.32	3.008
432.67	3.011
433.01	2.997
433.36	2.997
433.71	2.986
434.06	2.973
434.41	2.959
434.76	2.982
435.11	2.979
435.45	2.971
435.80	2.967
436.15	2.974
436.50	2.992
436.85	2.998
437.20	2.996
437.54	3.003
437.89	3.019
438.24	3.039
438.59	3.026
438.94	3.020
439.29	3.012
439.63	3.021
439.98	3.014
440.33	3.001
440.68	3.026
441.03	3.048
441.37	3.074
441.72	3.094
442.07	3.098
442.42	3.117
442.76	3.152
443.11	3.176
443.46	3.190
443.81	3.213
444.16	3.246
444.50	3.246
444.85	3.243
445.20	3.247
445.55	3.243
445.89	3.246
446.24	3.240
446.59	3.216
446.94	3.230
447.28	3.231
447.63	3.217
447.98	3.201
448.32	3.208
448.67	3.204
449.02	3.195
449.37	3.193
449.71	3.184
450.06	3.198
450.41	3.213
450.75	3.204
451.10	3.210
451.45	3.211
451.79	3.198
452.14	3.183
452.49	3.191
452.84	3.201
453.18	3.218
453.53	3.229
453.88	3.227
454.22	3.241
454.57	3.254
454.92	3.254
455.26	3.297
455.61	3.341
455.95	3.387
456.30	3.414
456.65	3.438
456.99	3.457
457.34	3.472
457.69	3.494
458.03	3.509
458.38	3.527
458.73	3.530
459.07	3.520
459.42	3.492
459.76	3.457
460.11	3.434
460.46	3.410
460.80	3.388
461.15	3.369
461.49	3.347
461.84	3.340
462.19	3.316
462.53	3.307
462.88	3.314
463.22	3.316
463.57	3.327
463.91	3.341
464.26	3.347
464.61	3.358
464.95	3.357
465.30	3.352
465.64	3.342
465.99	3.351
466.33	3.361
466.68	3.361
467.02	3.365
467.37	3.346
467.71	3.324
468.06	3.322
468.41	3.298
468.75	3.296
469.10	3.292
469.44	3.285
469.79	3.252
470.13	3.225
470.48	3.196
470.82	3.190
471.17	3.206
471.51	3.204
471.86	3.189
472.20	3.185
472.55	3.184
472.89	3.184
473.23	3.172
473.58	3.186
473.92	3.191
474.27	3.190
474.61	3.172
474.96	3.164
475.30	3.173
475.65	3.169
475.99	3.177
476.34	3.170
476.68	3.171
477.02	3.176
477.37	3.188
477.71	3.217
478.06	3.262
478.40	3.342
478.75	3.414
479.09	3.510
479.43	3.621
479.78	3.731
480.12	3.844
480.47	3.956
480.81	4.060
481.15	4.159
481.50	4.263
481.84	4.374
482.19	4.476
482.53	4.569
482.87	4.626
483.22	4.623
483.56	4.573
483.90	4.493
484.25	4.392
484.59	4.297
484.94	4.209
485.28	4.121
485.62	4.022
485.97	3.921
486.31	3.834
486.65	3.769
487.00	3.748
487.34	3.763
487.68	3.792
488.03	3.836
488.37	3.870
488.71	3.891
489.06	3.899
489.40	3.903
489.74	3.897
490.09	3.891
490.43	3.880
490.77	3.870
491.11	3.853
491.46	3.849
491.80	3.834
492.14	3.823
492.49	3.817
492.83	3.794
493.17	3.774
493.51	3.774
493.86	3.769
494.20	3.773
494.54	3.800
494.88	3.834
495.23	3.865
495.57	3.906
495.91	3.962
496.25	4.007
496.60	4.057
496.94	4.099
497.28	4.131
497.62	4.182
497.97	4.224
498.31	4.257
498.65	4.295
498.99	4.339
499.33	4.408
499.68	4.468
500.02	4.534
500.36	4.586
500.70	4.649
501.04	4.719
501.39	4.770
501.73	4.830
502.07	4.922
502.41	5.002
502.75	5.095
503.09	5.164
503.44	5.241
503.78	5.302
504.12	5.393
504.46	5.483
504.80	5.577
505.14	5.691
505.49	5.807
505.83	5.889
506.17	5.991
506.51	6.078
506.85	6.169
507.19	6.263
507.53	6.361
507.87	6.477
508.22	6.566
508.56	6.666
508.90	6.745
509.24	6.840
509.58	6.932
509.92	7.031
510.26	7.132
510.60	7.237
510.94	7.353
511.28	7.459
511.63	7.580
511.97	7.691
512.31	7.809
512.65	7.935
512.99	8.067
513.33	8.239
513.67	8.403
514.01	8.578
514.35	8.745
514.69	8.901
515.03	9.068
515.37	9.206
515.71	9.389
516.05	9.520
516.39	9.643
516.73	9.746
517.07	9.846
517.41	9.945
517.75	10.043
518.09	10.142
518.43	10.250
518.77	10.330
519.11	10.417
519.45	10.493
519.79	10.620
520.13	10.740
520.47	10.915
520.81	11.048
521.15	11.209
521.49	11.342
521.83	11.498
522.17	11.635
522.51	11.820
522.85	12.010
523.19	12.220
523.53	12.451
523.87	12.714
524.21	12.941
524.55	13.168
524.89	13.358
525.23	13.554
525.57	13.720
525.91	13.880
526.25	14.023
526.58	14.160
526.92	14.267
527.26	14.315
527.60	14.341
527.94	14.367
528.28	14.386
528.62	14.410
528.96	14.418
529.30	14.427
529.64	14.426
529.97	14.420
530.31	14.412
530.65	14.420
530.99	14.475
531.33	14.540
531.67	14.590
532.01	14.639
532.35	14.663
532.68	14.698
533.02	14.725
533.36	14.749
533.70	14.773
534.04	14.791
534.38	14.806
534.71	14.818
535.05	14.824
535.39	14.831
535.73	14.860
536.07	14.908
536.41	14.955
536.74	15.018
537.08	15.077
537.42	15.144
537.76	15.213
538.10	15.286
538.43	15.372
538.77	15.454
539.11	15.532
539.45	15.579
539.79	15.627
540.12	15.668
540.46	15.675
540.80	15.682
541.14	15.675
541.47	15.651
541.81	15.633
542.15	15.592
542.49	15.544
542.82	15.503
543.16	15.463
543.50	15.430
543.84	15.394
544.17	15.386
544.51	15.394
544.85	15.379
545.18	15.403
545.52	15.408
545.86	15.405
546.20	15.430
546.53	15.433
546.87	15.445
547.21	15.442
547.54	15.439
547.88	15.433
548.22	15.405
548.55	15.420
548.89	15.416
549.23	15.403
549.56	15.419
549.90	15.437
550.24	15.420
550.57	15.410
550.91	15.402
551.25	15.403
551.58	15.401
551.92	15.395
552.26	15.371
552.59	15.361
552.93	15.377
553.27	15.385
553.60	15.336
553.94	15.313
554.27	15.294
554.61	15.290
554.95	15.267
555.28	15.244
555.62	15.238
555.95	15.257
556.29	15.222
556.63	15.170
556.96	15.125
557.30	15.108
557.63	15.090
557.97	15.047
558.31	14.986
558.64	14.927
558.98	14.884
559.31	14.876
559.65	14.831
559.98	14.790
560.32	14.752
560.65	14.691
560.99	14.623
561.33	14.573
561.66	14.513
562.00	14.470
562.33	14.434
562.67	14.383
563.00	14.326
563.34	14.269
563.67	14.230
564.01	14.161
564.34	14.119
564.68	14.069
565.01	14.007
565.35	13.983
565.68	13.940
566.02	13.856
566.35	13.787
566.69	13.666
567.02	13.588
567.36	13.494
567.69	13.435
568.03	13.361
568.36	13.281
568.69	13.201
569.03	13.109
569.36	13.011
569.70	12.943
570.03	12.887
570.37	12.820
570.70	12.746
571.04	12.682
571.37	12.603
571.70	12.516
572.04	12.451
572.37	12.382
572.71	12.301
573.04	12.258
573.37	12.203
573.71	12.140
574.04	12.103
574.38	12.044
574.71	11.995
575.04	11.931
575.38	11.878
575.71	11.815
576.05	11.798
576.38	11.781
576.71	11.699
577.05	11.645
577.38	11.556
577.71	11.482
578.05	11.409
578.38	11.325
578.71	11.247
579.05	11.158
579.38	11.130
579.71	11.052
580.05	10.968
580.38	10.924
580.71	10.873
581.05	10.825
581.38	10.773
581.71	10.726
582.05	10.690
582.38	10.694
582.71	10.681
583.04	10.628
583.38	10.570
583.71	10.544
584.04	10.506
584.38	10.480
584.71	10.475
585.04	10.456
585.37	10.444
585.71	10.426
586.04	10.397
586.37	10.414
586.70	10.386
587.04	10.385
587.37	10.378
587.70	10.357
588.03	10.343
588.37	10.333
588.70	10.320
589.03	10.294
589.36	10.279
589.69	10.242
590.03	10.189
590.36	10.136
590.69	10.091
591.02	10.034
591.35	10.004
591.69	9.969
592.02	9.933
592.35	9.891
592.68	9.884
593.01	9.846
593.35	9.815
593.68	9.781
594.01	9.783
594.34	9.757
594.67	9.736
595.00	9.707
595.34	9.645
595.67	9.597
596.00	9.585
596.33	9.518
596.66	9.473
596.99	9.438
597.32	9.397
597.65	9.360
597.99	9.309
598.32	9.268
598.65	9.199
598.98	9.183
599.31	9.158
599.64	9.103
599.97	9.086
600.30	9.075
600.63	9.057
600.96	9.043
601.30	9.035
601.63	9.044
601.96	9.024
602.29	9.031
602.62	9.008
602.95	8.989
603.28	8.970
603.61	8.938
603.94	8.887
604.27	8.871
604.60	8.848
604.93	8.761
605.26	8.719
605.59	8.685
605.92	8.628
606.25	8.596
606.58	8.565
606.91	8.523
607.24	8.503
607.57	8.480
607.90	8.406
608.23	8.318
608.56	8.295
608.89	8.235
609.22	8.178
609.55	8.137
609.88	8.067
610.21	8.011
610.54	7.930
610.87	7.852
611.20	7.791
611.53	7.762
611.86	7.753
612.19	7.684
612.52	7.620
612.85	7.597
613.18	7.544
613.51	7.489
613.84	7.401
614.17	7.395
614.49	7.372
614.82	7.311
615.15	7.265
615.48	7.230
615.81	7.196
616.14	7.183
616.47	7.129
616.80	7.093
617.13	7.057
617.46	7.019
617.78	6.965
618.11	6.914
618.44	6.884
618.77	6.818
619.10	6.762
619.43	6.746
619.76	6.677
620.09	6.694
620.41	6.672
620.74	6.669
621.07	6.695
621.40	6.714
621.73	6.721
622.06	6.751
622.38	6.790
622.71	6.808
623.04	6.833
623.37	6.880
623.70	6.846
624.02	6.874
624.35	6.914
624.68	6.911
625.01	6.900
625.34	6.932
625.66	6.934
625.99	6.937
626.32	6.925
626.65	6.934
626.98	6.914
627.30	6.937
627.63	6.932
627.96	6.897
628.29	6.879
628.61	6.874
628.94	6.823
629.27	6.774
629.60	6.700
629.92	6.692
630.25	6.593
630.58	6.556
630.91	6.503
631.23	6.453
631.56	6.399
631.89	6.341
632.21	6.314
632.54	6.267
632.87	6.227
633.19	6.196
633.52	6.142
633.85	6.171
634.18	6.125
634.50	6.040
634.83	5.976
635.16	5.898
635.48	5.857
635.81	5.756
636.14	5.671
636.46	5.612
636.79	5.553
637.11	5.463
637.44	5.308
637.77	5.226
638.09	5.165
638.42	5.083
638.75	5.016
639.07	4.922
639.40	4.841
639.73	4.783
640.05	4.681
640.38	4.645
640.70	4.568
641.03	4.534
641.36	4.478
641.68	4.403
642.01	4.338
642.33	4.289
642.66	4.247
642.98	4.189
643.31	4.143
643.64	4.165
643.96	4.074
644.29	4.043
644.61	4.013
644.94	3.966
645.26	3.967
645.59	3.963
645.91	3.931
646.24	3.913
646.56	3.888
646.89	3.865
647.22	3.810
647.54	3.789
647.87	3.790
648.19	3.730
648.52	3.711
648.84	3.670
649.17	3.615
649.49	3.597
649.82	3.556
650.14	3.553
650.47	3.515
650.79	3.493
651.11	3.490
651.44	3.476
651.76	3.472
652.09	3.510
652.41	3.551
652.74	3.550
653.06	3.587
653.39	3.602
653.71	3.595
654.04	3.592
654.36	3.592
654.68	3.597
655.01	3.591
655.33	3.638
655.66	3.597
655.98	3.560
656.30	3.564
656.63	3.510
656.95	3.511
657.28	3.535
657.60	3.528
657.92	3.470
658.25	3.435
658.57	3.417
658.90	3.378
659.22	3.355
659.54	3.316
659.87	3.268
660.19	3.209
660.51	3.143
660.84	3.061
661.16	3.016
661.48	3.011
661.81	2.977
662.13	2.917
662.45	2.896
662.78	2.902
663.10	2.949
663.42	2.974
663.75	3.048
664.07	3.058
664.39	3.069
664.72	3.084
665.04	3.102
665.36	3.186
665.69	3.197
666.01	3.250
666.33	3.291
666.65	3.249
666.98	3.338
667.30	3.399
667.62	3.527
667.94	3.607
668.27	3.694
668.59	3.792
668.91	3.821
669.23	3.958
669.56	4.025
669.88	4.121
670.20	4.239
670.52	4.347
670.85	4.427
671.17	4.510
671.49	4.637
671.81	4.732
672.13	4.810
672.46	4.967
672.78	5.100
673.10	5.224
673.42	5.357
673.74	5.496
674.07	5.624
674.39	5.827
674.71	5.924
675.03	6.080
675.35	6.324
675.67	6.479
676.00	6.603
676.32	6.681
676.64	6.784
676.96	6.959
677.28	7.097
677.60	7.236
677.92	7.321
678.25	7.442
678.57	7.559
678.89	7.615
679.21	7.777
679.53	7.918
679.85	8.084
680.17	8.257
680.49	8.338
680.81	8.502
681.13	8.663
681.46	8.831
681.78	9.096
682.10	9.280
682.42	9.476
682.74	9.662
683.06	9.846
683.38	10.070
683.70	10.285
684.02	10.495
684.34	10.709
684.66	10.890
684.98	11.097
685.30	11.230
685.62	11.412
685.94	11.589
686.26	11.751
686.58	11.911
686.90	12.070
687.22	12.213
687.54	12.356
687.86	12.489
688.18	12.612
688.50	12.792
688.82	12.951
689.14	13.068
689.46	13.293
689.78	13.479
690.10	13.699
690.42	13.824
690.74	14.014
691.06	14.246
691.38	14.487
691.70	14.746
692.02	14.935
692.34	15.183
692.66	15.466
692.98	15.683
693.30	15.911
693.62	16.072
693.94	16.352
694.26	16.609
694.57	16.800
694.89	16.968
695.21	17.098
695.53	17.303
695.85	17.386
696.17	17.583
696.49	17.679
696.81	17.870
697.13	18.088
697.44	18.244
697.76	18.412
698.08	18.662
698.40	18.936
698.72	19.213
699.04	19.455
699.36	19.828
699.67	20.083
699.99	20.450
700.31	20.834
700.63	21.193
700.95	21.617
701.27	21.994
701.58	22.266
701.90	22.475
702.22	22.734
702.54	22.955
702.86	23.193
703.17	23.484
703.49	23.715
703.81	23.908
704.13	24.073
704.45	24.290
704.76	24.482
705.08	24.753
705.40	25.064
705.72	25.311
706.03	25.611
706.35	25.738
706.67	25.913
706.99	26.108
707.30	26.288
707.62	26.476
707.94	26.620
708.26	26.816
708.57	27.012
708.89	27.141
709.21	27.390
709.53	27.580
709.84	27.842
710.16	28.085
710.48	28.399
710.79	28.699
711.11	29.024
711.43	29.298
711.74	29.546
712.06	29.786
712.38	30.055
712.69	30.269
713.01	30.572
713.33	30.873
713.64	31.209
713.96	31.477
714.28	31.697
714.59	32.020
714.91	32.408
715.23	32.754
715.54	33.019
715.86	33.467
716.17	33.865
716.49	34.208
716.81	34.619
717.12	34.899
717.44	35.222
717.76	35.626
718.07	35.813
718.39	35.979
718.70	36.298
719.02	36.585
719.33	36.708
719.65	36.885
719.97	37.083
720.28	37.269
720.60	37.485
720.91	37.701
721.23	37.853
721.54	38.253
721.86	38.590
722.17	38.772
722.49	39.037
722.81	39.324
723.12	39.633
723.44	39.900
723.75	40.168
724.07	40.409
724.38	40.598
724.70	40.848
725.01	40.940
725.33	41.031
725.64	41.246
725.96	41.400
726.27	41.417
726.59	41.640
726.90	41.814
727.22	41.791
727.53	41.978
727.84	42.141
728.16	42.316
728.47	42.432
728.79	42.636
729.10	42.726
729.42	42.958
729.73	43.213
730.05	43.259
730.36	43.346
730.67	43.635
730.99	43.782
731.30	43.933
731.62	44.033
731.93	44.235
732.24	44.363
732.56	44.459
732.87	44.519
733.19	44.785
733.50	44.903
733.81	44.981
734.13	45.125
734.44	45.302
734.76	45.333
735.07	45.420
735.38	45.523
735.70	45.808
736.01	45.974
736.32	46.208
736.64	46.350
736.95	46.430
737.26	46.499
737.58	46.720
737.89	46.772
738.20	46.950
738.52	47.177
738.83	47.241
739.14	47.014
739.45	47.234
739.77	47.284
740.08	47.161
740.39	47.345
740.71	47.720
741.02	47.621
741.33	47.583
741.64	47.707
741.96	47.596
742.27	47.752
742.58	48.081
742.90	48.072
743.21	48.143
743.52	48.335
743.83	48.460
744.14	48.322
744.46	48.489
744.77	48.716
745.08	48.606
745.39	48.717
745.71	48.691
746.02	48.622
746.33	48.666
746.64	48.562
746.95	48.481
747.27	48.511
747.58	48.463
747.89	48.338
748.20	48.182
748.51	48.395
748.82	48.433
749.14	48.594
749.45	48.609
749.76	48.716
750.07	48.752
750.38	48.730
750.69	48.717
751.01	48.751
751.32	48.916
751.63	49.030
751.94	48.798
752.25	48.812
752.56	48.745
752.87	48.618
753.18	48.401
753.49	48.493
753.81	48.546
754.12	48.415
754.43	48.465
754.74	48.356
755.05	48.432
755.36	48.596
755.67	48.707
755.98	48.802
756.29	49.036
756.60	49.317
756.91	49.349
757.22	49.521
757.53	49.700
757.84	49.828
758.15	50.188
758.46	50.302
758.77	50.357
759.09	50.363
759.40	50.342
759.71	50.214
760.02	50.116
760.33	50.048
760.64	49.885
760.95	49.964
761.26	49.758
761.57	49.474
761.88	49.262
762.18	49.226
762.49	49.146
762.80	49.033
763.11	49.024
763.42	48.962
763.73	48.812
764.04	48.858
764.35	48.625
764.66	48.561
764.97	48.461
765.28	48.312
765.59	48.120
765.90	47.904
766.21	47.626
766.52	47.427
766.83	47.358
767.14	47.135
767.44	46.879
767.75	46.551
768.06	46.598
768.37	46.236
768.68	46.452
768.99	46.287
769.30	46.284
769.61	46.237
769.91	46.332
770.22	45.829
770.53	45.883
770.84	45.767
771.15	45.911
771.46	45.668
771.77	45.800
772.07	45.409
772.38	45.517
772.69	45.073
773.00	45.305
773.31	45.123
773.61	45.454
773.92	45.585
774.23	45.802
774.54	45.645
774.85	45.706
775.15	45.638
775.46	45.527
775.77	45.370
776.08	45.719
776.39	45.400
776.69	45.440
777.00	45.060
777.31	44.982
777.62	44.641
777.92	44.530
778.23	44.410
778.54	44.495
778.85	44.479
779.15	44.547
779.46	44.492
779.77	44.858
780.07	44.776
780.38	45.202
780.69	45.091
781.00	45.198
781.30	45.177
781.61	45.095
781.92	45.230
782.22	45.693
782.53	45.503
782.84	45.339
783.14	45.107
783.45	44.970
783.76	45.117
784.06	45.154
784.37	45.089
784.68	45.232
784.98	45.465
785.29	45.362
785.60	45.181
785.90	45.568
786.21	45.754
786.51	45.992
786.82	46.347
787.13	46.320
787.43	46.533
787.74	46.724
788.04	46.850
788.35	46.875
788.66	46.849
788.96	46.835
789.27	46.652
789.57	46.787
789.88	46.460
790.19	46.308
790.49	46.001
790.80	45.910
791.10	45.873
791.41	45.682
791.71	45.412
792.02	45.283
792.32	45.230
792.63	45.192
792.93	44.891
793.24	44.798
793.54	44.914
793.85	45.158
794.15	45.088
794.46	45.168
794.76	45.192
795.07	45.359
795.37	45.661
795.68	45.887
795.98	46.244
796.29	46.763
796.59	46.651
796.90	46.662
797.20	46.404
797.51	46.449
797.81	46.054
798.12	46.418
798.42	46.524
798.72	46.539
799.03	46.203
799.33	45.909
799.64	45.454
799.94	45.805
800.25	45.820
800.55	46.200
800.85	46.192
801.16	46.246
801.46	45.545
801.77	45.629
802.07	45.552
802.37	45.804
802.68	45.463
802.98	45.618
803.28	45.796
803.59	45.785
803.89	45.548
804.20	45.603
804.50	45.657
804.80	46.071
805.11	45.821
805.41	45.575
805.71	45.627
806.02	45.887
806.32	45.583
806.62	45.732
806.93	45.624
807.23	45.599
807.53	45.734
807.83	46.125
808.14	46.270
808.44	46.612
808.74	46.564
809.05	46.606
809.35	46.849
809.65	47.369
809.95	47.180
810.26	46.998
810.56	47.200
810.86	47.212
811.16	47.418
811.47	47.934
811.77	47.915
812.07	48.329
812.37	48.183
812.68	48.137
812.98	48.210
813.28	48.446
813.58	49.069
813.88	48.818
814.19	49.226
814.49	49.439
814.79	49.390
815.09	49.961
815.39	49.643
815.70	49.821
816.00	49.570
816.30	49.491
816.60	49.340
816.90	49.120
817.20	49.579
817.50	49.520
817.81	49.149
818.11	49.193
818.41	48.957
818.71	49.061
819.01	49.118
819.31	49.524
819.61	49.677
819.92	49.962
820.22	50.103
820.52	50.154
820.82	50.283
821.12	50.595
821.42	50.743
821.72	50.960
822.02	51.242
822.32	51.565
822.62	51.691
822.92	51.886
823.22	52.010
823.52	52.211
823.83	52.345
824.13	52.396
824.43	52.231
824.73	52.283
825.03	52.287
825.33	52.411
825.63	52.249
825.93	52.127
826.23	52.038
826.53	51.846
826.83	51.725
827.13	51.816
827.43	51.941
827.73	52.403
828.03	52.438
828.33	52.601
828.63	52.459
828.93	52.393
829.23	52.328
829.53	52.087
829.83	52.089
830.13	52.002
830.42	51.707
830.72	51.475
831.02	50.583
831.32	50.738
831.62	50.641
831.92	50.485
832.22	50.560
832.52	50.491
832.82	50.524
833.12	50.547
833.42	50.687
833.72	50.804
834.01	51.148
834.31	51.643
834.61	51.563
834.91	51.556
835.21	51.827
835.51	51.807
835.81	51.764
836.11	52.169
836.40	52.168
836.70	52.343
837.00	52.580
837.30	51.983
837.60	51.886
837.90	52.262
838.19	51.936
838.49	51.532
838.79	51.561
839.09	51.678
839.39	51.421
839.68	51.396
839.98	49.924
840.28	49.487
840.58	49.757
840.88	49.335
841.17	47.404
841.47	47.334
841.77	47.520
842.07	46.906
842.36	46.787
842.66	46.303
842.96	45.905
843.26	46.725
843.55	46.075
843.85	45.482
844.15	45.829
844.45	47.112
844.74	47.374
845.04	45.707
845.34	45.774
845.63	45.891
845.93	45.428
846.23	46.539
846.53	46.381
846.82	46.102
847.12	45.689
847.42	45.145
847.71	43.520
848.01	44.000
848.31	44.066
848.60	44.520
848.90	43.534
849.19	43.626
849.49	42.274
849.79	43.099
850.08	44.640
850.38	44.501
850.68	45.929
850.97	49.464
851.27	48.855
851.56	48.981
851.86	48.150
852.16	50.331
852.45	49.511
852.75	50.498
853.04	50.886
853.34	49.949
853.64	50.538
853.93	49.002
854.23	48.271
854.52	49.011
854.82	50.056
855.11	49.170
855.41	49.977
855.70	51.930
856.00	49.937
856.30	48.820
856.59	48.685
856.89	49.084
857.18	49.935
857.48	49.408
857.77	47.390
858.07	47.143
858.36	48.135
858.66	46.410
858.95	45.020
859.25	45.907
859.54	46.025
859.84	45.473
860.13	44.317
860.42	43.499
860.72	43.230
861.01	45.473
861.31	45.219
861.60	45.820
861.90	47.005
862.19	48.182
862.49	47.541
862.78	47.574
863.07	48.217
863.37	50.655
863.66	50.485
863.96	50.572
864.25	49.276
864.54	50.146
864.84	50.056
865.13	49.094
865.43	49.048
865.72	47.392
866.01	54.742
866.31	47.437
866.60	48.038
866.89	50.496
>>>>>End Spectral Data<<<<<
