OOIBase32 Version 2.0.0.6 Data File
++++++++++++++++++++++++++++++++++++
Date: 01-23-2012, 23:12:46
User: Valued Ocean Optics Customer
Spectrometer Serial Number: USB2E2917
Spectrometer Channel: Master
Integration Time (msec): 5
Spectra Averaged: 10
Boxcar Smoothing: 5
Correct for Electrical Dark: Enabled
Time Normalized: Disabled
Dual-beam Reference: Disabled
Reference Channel: Master
Temperature: Not acquired
Spectrometer Type: S2000
ADC Type: USB2000
Number of Pixels in File: 2048
Graph Title: 
>>>>>Begin Spectral Data<<<<<
180.30	0.000
180.67	0.000
181.03	110.406
181.40	458.926
181.77	-2165.902
182.14	19.208
182.51	-675.594
182.88	273.365
183.25	76.486
183.62	72.431
183.99	309.402
184.36	-60.589
184.73	311.807
185.10	145.176
185.46	429.476
185.83	458.946
186.20	17.924
186.57	-106.283
186.94	148.534
187.31	36.564
187.68	79.630
188.05	24.205
188.42	11.998
188.78	-85.058
189.15	32.865
189.52	-24.268
189.89	4.776
190.26	25.550
190.63	27.163
191.00	23.924
191.37	31.217
191.73	32.438
192.10	27.678
192.47	23.787
192.84	18.882
193.21	21.940
193.58	23.911
193.94	21.653
194.31	8.940
194.68	13.812
195.05	14.264
195.42	15.716
195.79	-3.672
196.15	-11.764
196.52	-25.120
196.89	-25.773
197.26	-46.540
197.63	-29.233
198.00	-21.880
198.36	-16.346
198.73	-40.226
199.10	-41.948
199.47	-40.169
199.84	-27.025
200.20	-27.798
200.57	-4.867
200.94	-4.598
201.31	4.052
201.68	-13.968
202.04	-20.755
202.41	-31.529
202.78	-57.148
203.15	-63.659
203.51	-62.623
203.88	-56.380
204.25	-42.943
204.62	-77.361
204.98	-78.680
205.35	-67.072
205.72	-67.546
206.09	-54.261
206.46	-94.886
206.82	-65.485
207.19	-53.602
207.56	-92.941
207.92	-73.408
208.29	-102.029
208.66	-44.202
209.03	-49.873
209.39	-36.845
209.76	-15.767
210.13	-45.376
210.50	-25.101
210.86	-5.502
211.23	-23.125
211.60	-17.303
211.96	-30.676
212.33	-19.188
212.70	-36.663
213.07	-28.850
213.43	-58.388
213.80	-64.324
214.17	-26.343
214.53	-22.912
214.90	-25.200
215.27	-22.407
215.63	-20.198
216.00	-14.828
216.37	-22.615
216.74	-32.716
217.10	-36.895
217.47	-26.856
217.84	-24.277
218.20	-27.097
218.57	-26.592
218.94	-28.015
219.30	-30.386
219.67	-29.368
220.04	-31.555
220.40	-27.835
220.77	-24.666
221.13	-20.645
221.50	-17.360
221.87	-19.266
222.23	-20.824
222.60	-22.945
222.97	-19.069
223.33	-14.709
223.70	-17.006
224.07	-18.141
224.43	-18.159
224.80	-12.735
225.16	-12.917
225.53	-14.423
225.90	-15.537
226.26	-13.265
226.63	-9.973
226.99	-8.167
227.36	-6.169
227.73	-4.142
228.09	-3.655
228.46	-1.075
228.82	-1.064
229.19	-1.337
229.56	-1.199
229.92	0.892
230.29	2.367
230.65	0.936
231.02	-1.233
231.38	-5.420
231.75	-7.977
232.12	-8.453
232.48	-12.858
232.85	-14.989
233.21	-15.325
233.58	-17.359
233.94	-17.208
234.31	-19.343
234.68	-19.205
235.04	-17.176
235.41	-13.454
235.77	-10.224
236.14	-8.098
236.50	-4.903
236.87	-3.760
237.23	-2.143
237.60	-0.494
237.96	0.137
238.33	0.476
238.69	0.933
239.06	0.523
239.42	0.251
239.79	-0.629
240.15	-1.112
240.52	-1.274
240.88	-0.848
241.25	-1.032
241.61	-1.336
241.98	-1.869
242.34	-1.961
242.71	-1.433
243.07	-1.152
243.44	-1.194
243.80	-1.167
244.17	-0.850
244.53	-0.954
244.90	-0.965
245.26	-0.930
245.63	-0.755
245.99	-0.514
246.36	-0.395
246.72	-0.503
247.09	-1.070
247.45	-1.104
247.81	-0.857
248.18	-0.864
248.54	-0.483
248.91	-0.736
249.27	-0.691
249.64	-0.622
250.00	-0.663
250.36	-0.672
250.73	-0.826
251.09	0.105
251.46	-0.008
251.82	-0.232
252.19	-0.531
252.55	-1.005
252.91	-0.657
253.28	-0.459
253.64	-0.904
254.01	-0.940
254.37	-0.842
254.73	-0.447
255.10	-0.596
255.46	0.295
255.83	0.442
256.19	0.629
256.55	0.502
256.92	0.494
257.28	0.491
257.65	0.829
258.01	0.956
258.37	0.832
258.74	0.661
259.10	0.444
259.46	0.047
259.83	-0.130
260.19	-0.298
260.55	-0.085
260.92	-0.258
261.28	-0.187
261.64	-0.307
262.01	-0.518
262.37	-0.662
262.73	-0.608
263.10	-0.215
263.46	-0.072
263.82	0.205
264.19	0.183
264.55	-0.445
264.91	-0.331
265.28	-0.427
265.64	-0.347
266.00	-0.150
266.37	0.093
266.73	0.093
267.09	0.200
267.46	0.267
267.82	0.114
268.18	0.482
268.54	0.911
268.91	0.960
269.27	0.889
269.63	0.906
270.00	0.853
270.36	0.819
270.72	0.843
271.08	0.756
271.45	0.477
271.81	0.408
272.17	0.191
272.53	0.043
272.90	-0.193
273.26	-0.075
273.62	-0.297
273.98	-0.500
274.35	-0.737
274.71	-0.768
275.07	-0.751
275.43	-0.521
275.80	-0.420
276.16	-0.495
276.52	-0.494
276.88	-0.362
277.25	-0.680
277.61	-0.808
277.97	-0.846
278.33	-0.552
278.69	-0.728
279.06	-0.867
279.42	-0.795
279.78	-0.606
280.14	-0.370
280.50	-0.219
280.87	-0.182
281.23	-0.155
281.59	-0.005
281.95	0.073
282.31	0.098
282.68	0.160
283.04	0.243
283.40	0.359
283.76	0.224
284.12	0.172
284.48	0.137
284.85	0.088
285.21	0.169
285.57	0.104
285.93	0.004
286.29	-0.327
286.65	-0.187
287.02	-0.011
287.38	-0.114
287.74	-0.028
288.10	-0.186
288.46	-0.248
288.82	-0.349
289.18	-0.397
289.54	-0.366
289.91	-0.278
290.27	0.005
290.63	-0.031
290.99	-0.165
291.35	-0.174
291.71	-0.099
292.07	0.006
292.43	-0.069
292.79	0.124
293.16	0.190
293.52	0.306
293.88	0.371
294.24	0.313
294.60	0.232
294.96	0.189
295.32	0.228
295.68	0.108
296.04	0.193
296.40	0.330
296.76	0.388
297.12	0.282
297.49	0.197
297.85	0.193
298.21	0.232
298.57	0.114
298.93	0.122
299.29	-0.042
299.65	0.084
300.01	0.030
300.37	-0.028
300.73	-0.067
301.09	0.012
301.45	-0.019
301.81	-0.083
302.17	0.037
302.53	0.058
302.89	0.044
303.25	0.228
303.61	0.159
303.97	0.089
304.33	0.159
304.69	0.103
305.05	0.081
305.41	0.183
305.77	0.248
306.13	0.119
306.49	0.138
306.85	0.182
307.21	0.157
307.57	0.242
307.93	0.361
308.29	0.405
308.65	0.480
309.01	0.412
309.37	0.332
309.73	0.368
310.09	0.491
310.45	0.542
310.81	0.548
311.17	0.398
311.53	0.298
311.89	0.302
312.25	0.235
312.61	0.188
312.96	0.298
313.32	0.402
313.68	0.222
314.04	0.042
314.40	0.121
314.76	0.101
315.12	0.121
315.48	0.101
315.84	-0.073
316.20	-0.203
316.56	-0.260
316.92	-0.331
317.27	-0.464
317.63	-0.315
317.99	-0.276
318.35	-0.395
318.71	-0.386
319.07	-0.191
319.43	-0.045
319.79	0.120
320.15	0.217
320.50	0.256
320.86	0.296
321.22	0.327
321.58	0.278
321.94	0.187
322.30	0.219
322.66	0.171
323.01	-0.002
323.37	-0.117
323.73	-0.154
324.09	-0.202
324.45	-0.136
324.81	-0.242
325.17	-0.240
325.52	-0.299
325.88	-0.229
326.24	-0.204
326.60	-0.172
326.96	-0.072
327.31	-0.039
327.67	-0.147
328.03	-0.136
328.39	-0.185
328.75	-0.045
329.11	0.019
329.46	0.131
329.82	0.183
330.18	0.193
330.54	0.186
330.90	0.149
331.25	0.132
331.61	0.295
331.97	0.408
332.33	0.450
332.68	0.490
333.04	0.476
333.40	0.305
333.76	0.178
334.11	0.113
334.47	0.137
334.83	0.168
335.19	0.125
335.54	0.068
335.90	0.031
336.26	-0.035
336.62	-0.108
336.97	-0.196
337.33	-0.148
337.69	-0.016
338.05	0.058
338.40	-0.034
338.76	-0.096
339.12	-0.047
339.48	-0.134
339.83	-0.103
340.19	-0.105
340.55	-0.088
340.90	-0.095
341.26	-0.073
341.62	-0.201
341.97	-0.241
342.33	-0.148
342.69	-0.095
343.04	-0.078
343.40	-0.142
343.76	-0.269
344.12	-0.260
344.47	-0.273
344.83	-0.175
345.19	-0.154
345.54	-0.033
345.90	-0.009
346.26	0.037
346.61	0.060
346.97	0.048
347.32	0.132
347.68	0.172
348.04	0.150
348.39	0.100
348.75	0.107
349.11	0.144
349.46	0.084
349.82	0.061
350.18	-0.067
350.53	-0.115
350.89	-0.143
351.24	-0.179
351.60	-0.181
351.96	-0.077
352.31	-0.044
352.67	-0.065
353.02	-0.081
353.38	-0.036
353.74	-0.049
354.09	-0.032
354.45	0.019
354.80	0.041
355.16	0.129
355.52	0.175
355.87	0.116
356.23	0.161
356.58	0.165
356.94	0.198
357.29	0.244
357.65	0.275
358.00	0.335
358.36	0.330
358.72	0.302
359.07	0.302
359.43	0.296
359.78	0.340
360.14	0.334
360.49	0.304
360.85	0.331
361.20	0.256
361.56	0.216
361.91	0.181
362.27	0.208
362.62	0.266
362.98	0.258
363.33	0.219
363.69	0.186
364.04	0.248
364.40	0.253
364.75	0.187
365.11	0.211
365.46	0.201
365.82	0.287
366.17	0.256
366.53	0.273
366.88	0.296
367.24	0.385
367.59	0.380
367.95	0.353
368.30	0.374
368.66	0.464
369.01	0.502
369.37	0.577
369.72	0.594
370.08	0.658
370.43	0.675
370.78	0.709
371.14	0.671
371.49	0.724
371.85	0.754
372.20	0.829
372.56	0.825
372.91	0.875
373.26	0.950
373.62	0.949
373.97	1.013
374.33	1.056
374.68	1.102
375.03	1.192
375.39	1.203
375.74	1.216
376.10	1.239
376.45	1.284
376.80	1.311
377.16	1.277
377.51	1.336
377.87	1.381
378.22	1.416
378.57	1.487
378.93	1.576
379.28	1.664
379.63	1.721
379.99	1.792
380.34	1.853
380.70	1.895
381.05	1.995
381.40	2.042
381.76	2.068
382.11	2.105
382.46	2.137
382.82	2.165
383.17	2.218
383.52	2.295
383.88	2.314
384.23	2.344
384.58	2.367
384.94	2.418
385.29	2.494
385.64	2.526
385.99	2.600
386.35	2.624
386.70	2.641
387.05	2.646
387.41	2.680
387.76	2.720
388.11	2.765
388.47	2.817
388.82	2.881
389.17	2.901
389.52	2.948
389.88	3.013
390.23	3.050
390.58	3.101
390.93	3.149
391.29	3.184
391.64	3.246
391.99	3.325
392.34	3.384
392.70	3.400
393.05	3.402
393.40	3.435
393.75	3.439
394.11	3.478
394.46	3.480
394.81	3.513
395.16	3.502
395.52	3.523
395.87	3.515
396.22	3.542
396.57	3.487
396.92	3.504
397.28	3.466
397.63	3.440
397.98	3.434
398.33	3.451
398.68	3.438
399.04	3.456
399.39	3.432
399.74	3.397
400.09	3.363
400.44	3.408
400.80	3.434
401.15	3.441
401.50	3.432
401.85	3.429
402.20	3.408
402.55	3.454
402.90	3.422
403.26	3.411
403.61	3.403
403.96	3.396
404.31	3.381
404.66	3.345
405.01	3.341
405.36	3.389
405.72	3.389
406.07	3.407
406.42	3.380
406.77	3.368
407.12	3.379
407.47	3.378
407.82	3.369
408.17	3.375
408.53	3.383
408.88	3.369
409.23	3.300
409.58	3.268
409.93	3.235
410.28	3.221
410.63	3.235
410.98	3.210
411.33	3.215
411.68	3.233
412.03	3.234
412.38	3.216
412.73	3.248
413.09	3.279
413.44	3.316
413.79	3.359
414.14	3.356
414.49	3.376
414.84	3.390
415.19	3.392
415.54	3.418
415.89	3.418
416.24	3.441
416.59	3.457
416.94	3.467
417.29	3.468
417.64	3.442
417.99	3.452
418.34	3.463
418.69	3.476
419.04	3.485
419.39	3.472
419.74	3.478
420.09	3.484
420.44	3.481
420.79	3.472
421.14	3.452
421.49	3.477
421.84	3.462
422.19	3.467
422.54	3.452
422.89	3.439
423.24	3.435
423.59	3.420
423.94	3.385
424.29	3.372
424.64	3.375
424.99	3.380
425.34	3.346
425.68	3.351
426.03	3.322
426.38	3.322
426.73	3.323
427.08	3.304
427.43	3.308
427.78	3.334
428.13	3.316
428.48	3.295
428.83	3.308
429.18	3.313
429.53	3.304
429.87	3.279
430.22	3.256
430.57	3.249
430.92	3.246
431.27	3.245
431.62	3.199
431.97	3.194
432.32	3.198
432.67	3.172
433.01	3.136
433.36	3.115
433.71	3.111
434.06	3.097
434.41	3.087
434.76	3.094
435.11	3.082
435.45	3.111
435.80	3.109
436.15	3.101
436.50	3.119
436.85	3.149
437.20	3.164
437.54	3.158
437.89	3.181
438.24	3.193
438.59	3.201
438.94	3.210
439.29	3.187
439.63	3.208
439.98	3.223
440.33	3.223
440.68	3.233
441.03	3.253
441.37	3.298
441.72	3.304
442.07	3.327
442.42	3.335
442.76	3.352
443.11	3.404
443.46	3.424
443.81	3.435
444.16	3.451
444.50	3.456
444.85	3.469
445.20	3.461
445.55	3.478
445.89	3.488
446.24	3.500
446.59	3.490
446.94	3.482
447.28	3.472
447.63	3.483
447.98	3.488
448.32	3.502
448.67	3.501
449.02	3.498
449.37	3.496
449.71	3.495
450.06	3.503
450.41	3.533
450.75	3.545
451.10	3.552
451.45	3.540
451.79	3.536
452.14	3.535
452.49	3.543
452.84	3.570
453.18	3.587
453.53	3.596
453.88	3.584
454.22	3.590
454.57	3.610
454.92	3.633
455.26	3.665
455.61	3.696
455.95	3.723
456.30	3.744
456.65	3.766
456.99	3.780
457.34	3.795
457.69	3.822
458.03	3.822
458.38	3.819
458.73	3.815
459.07	3.810
459.42	3.795
459.76	3.772
460.11	3.746
460.46	3.715
460.80	3.703
461.15	3.673
461.49	3.638
461.84	3.635
462.19	3.609
462.53	3.597
462.88	3.599
463.22	3.581
463.57	3.590
463.91	3.592
464.26	3.602
464.61	3.592
464.95	3.592
465.30	3.589
465.64	3.594
465.99	3.605
466.33	3.604
466.68	3.582
467.02	3.589
467.37	3.564
467.71	3.556
468.06	3.565
468.41	3.556
468.75	3.556
469.10	3.556
469.44	3.547
469.79	3.530
470.13	3.504
470.48	3.501
470.82	3.493
471.17	3.506
471.51	3.495
471.86	3.469
472.20	3.468
472.55	3.467
472.89	3.471
473.23	3.465
473.58	3.466
473.92	3.465
474.27	3.450
474.61	3.445
474.96	3.434
475.30	3.444
475.65	3.448
475.99	3.451
476.34	3.450
476.68	3.442
477.02	3.452
477.37	3.475
477.71	3.514
478.06	3.567
478.40	3.640
478.75	3.741
479.09	3.831
479.43	3.941
479.78	4.061
480.12	4.183
480.47	4.310
480.81	4.417
481.15	4.528
481.50	4.642
481.84	4.770
482.19	4.882
482.53	4.975
482.87	5.043
483.22	5.042
483.56	4.991
483.90	4.909
484.25	4.804
484.59	4.700
484.94	4.597
485.28	4.499
485.62	4.382
485.97	4.271
486.31	4.174
486.65	4.096
487.00	4.075
487.34	4.091
487.68	4.123
488.03	4.166
488.37	4.209
488.71	4.243
489.06	4.256
489.40	4.265
489.74	4.266
490.09	4.268
490.43	4.274
490.77	4.262
491.11	4.243
491.46	4.233
491.80	4.226
492.14	4.210
492.49	4.214
492.83	4.201
493.17	4.196
493.51	4.191
493.86	4.190
494.20	4.203
494.54	4.233
494.88	4.287
495.23	4.337
495.57	4.382
495.91	4.444
496.25	4.486
496.60	4.553
496.94	4.595
497.28	4.643
497.62	4.690
497.97	4.737
498.31	4.796
498.65	4.836
498.99	4.880
499.33	4.951
499.68	5.010
500.02	5.078
500.36	5.138
500.70	5.205
501.04	5.276
501.39	5.342
501.73	5.413
502.07	5.501
502.41	5.594
502.75	5.693
503.09	5.779
503.44	5.866
503.78	5.954
504.12	6.044
504.46	6.161
504.80	6.270
505.14	6.384
505.49	6.497
505.83	6.580
506.17	6.688
506.51	6.785
506.85	6.888
507.19	6.999
507.53	7.099
507.87	7.195
508.22	7.285
508.56	7.385
508.90	7.474
509.24	7.560
509.58	7.679
509.92	7.785
510.26	7.888
510.60	7.992
510.94	8.111
511.28	8.208
511.63	8.339
511.97	8.474
512.31	8.598
512.65	8.739
512.99	8.901
513.33	9.079
513.67	9.253
514.01	9.451
514.35	9.616
514.69	9.790
515.03	9.984
515.37	10.153
515.71	10.294
516.05	10.446
516.39	10.589
516.73	10.716
517.07	10.820
517.41	10.921
517.75	10.998
518.09	11.105
518.43	11.203
518.77	11.272
519.11	11.348
519.45	11.447
519.79	11.566
520.13	11.683
520.47	11.812
520.81	11.946
521.15	12.106
521.49	12.273
521.83	12.430
522.17	12.560
522.51	12.746
522.85	12.922
523.19	13.133
523.53	13.369
523.87	13.602
524.21	13.829
524.55	14.058
524.89	14.246
525.23	14.421
525.57	14.588
525.91	14.749
526.25	14.880
526.58	15.023
526.92	15.124
527.26	15.172
527.60	15.198
527.94	15.227
528.28	15.224
528.62	15.218
528.96	15.217
529.30	15.209
529.64	15.205
529.97	15.180
530.31	15.144
530.65	15.133
530.99	15.154
531.33	15.188
531.67	15.217
532.01	15.260
532.35	15.294
532.68	15.311
533.02	15.310
533.36	15.301
533.70	15.319
534.04	15.321
534.38	15.316
534.71	15.309
535.05	15.306
535.39	15.300
535.73	15.289
536.07	15.293
536.41	15.324
536.74	15.378
537.08	15.430
537.42	15.495
537.76	15.551
538.10	15.623
538.43	15.678
538.77	15.742
539.11	15.799
539.45	15.837
539.79	15.895
540.12	15.923
540.46	15.935
540.80	15.930
541.14	15.902
541.47	15.867
541.81	15.834
542.15	15.807
542.49	15.761
542.82	15.705
543.16	15.670
543.50	15.620
543.84	15.557
544.17	15.519
544.51	15.507
544.85	15.494
545.18	15.513
545.52	15.513
545.86	15.504
546.20	15.520
546.53	15.536
546.87	15.532
547.21	15.515
547.54	15.521
547.88	15.517
548.22	15.502
548.55	15.501
548.89	15.502
549.23	15.492
549.56	15.475
549.90	15.468
550.24	15.458
550.57	15.461
550.91	15.450
551.25	15.477
551.58	15.475
551.92	15.473
552.26	15.471
552.59	15.465
552.93	15.436
553.27	15.451
553.60	15.443
553.94	15.403
554.27	15.370
554.61	15.352
554.95	15.299
555.28	15.288
555.62	15.257
555.95	15.248
556.29	15.222
556.63	15.190
556.96	15.134
557.30	15.095
557.63	15.057
557.97	15.026
558.31	14.973
558.64	14.936
558.98	14.888
559.31	14.886
559.65	14.831
559.98	14.752
560.32	14.723
560.65	14.668
560.99	14.621
561.33	14.581
561.66	14.536
562.00	14.511
562.33	14.455
562.67	14.388
563.00	14.305
563.34	14.263
563.67	14.217
564.01	14.156
564.34	14.132
564.68	14.068
565.01	14.024
565.35	13.960
565.68	13.865
566.02	13.812
566.35	13.739
566.69	13.647
567.02	13.579
567.36	13.497
567.69	13.432
568.03	13.354
568.36	13.269
568.69	13.185
569.03	13.112
569.36	13.045
569.70	12.974
570.03	12.934
570.37	12.873
570.70	12.806
571.04	12.770
571.37	12.685
571.70	12.604
572.04	12.544
572.37	12.465
572.71	12.410
573.04	12.356
573.37	12.293
573.71	12.221
574.04	12.159
574.38	12.088
574.71	12.023
575.04	11.950
575.38	11.892
575.71	11.830
576.05	11.795
576.38	11.740
576.71	11.661
577.05	11.600
577.38	11.532
577.71	11.466
578.05	11.396
578.38	11.316
578.71	11.300
579.05	11.258
579.38	11.172
579.71	11.103
580.05	11.015
580.38	10.990
580.71	10.928
581.05	10.870
581.38	10.828
581.71	10.805
582.05	10.759
582.38	10.692
582.71	10.620
583.04	10.640
583.38	10.581
583.71	10.561
584.04	10.534
584.38	10.497
584.71	10.479
585.04	10.461
585.37	10.405
585.71	10.390
586.04	10.363
586.37	10.375
586.70	10.338
587.04	10.354
587.37	10.358
587.70	10.323
588.03	10.306
588.37	10.295
588.70	10.257
589.03	10.228
589.36	10.209
589.69	10.176
590.03	10.133
590.36	10.065
590.69	9.995
591.02	9.953
591.35	9.904
591.69	9.897
592.02	9.859
592.35	9.838
592.68	9.851
593.01	9.797
593.35	9.786
593.68	9.773
594.01	9.782
594.34	9.769
594.67	9.752
595.00	9.719
595.34	9.673
595.67	9.621
596.00	9.597
596.33	9.545
596.66	9.519
596.99	9.455
597.32	9.396
597.65	9.365
597.99	9.309
598.32	9.242
598.65	9.240
598.98	9.193
599.31	9.183
599.64	9.169
599.97	9.145
600.30	9.130
600.63	9.138
600.96	9.148
601.30	9.119
601.63	9.129
601.96	9.114
602.29	9.103
602.62	9.087
602.95	9.065
603.28	9.013
603.61	8.968
603.94	8.930
604.27	8.899
604.60	8.825
604.93	8.803
605.26	8.752
605.59	8.720
605.92	8.653
606.25	8.617
606.58	8.572
606.91	8.519
607.24	8.504
607.57	8.465
607.90	8.416
608.23	8.374
608.56	8.305
608.89	8.251
609.22	8.199
609.55	8.150
609.88	8.083
610.21	8.020
610.54	7.970
610.87	7.878
611.20	7.800
611.53	7.752
611.86	7.722
612.19	7.642
612.52	7.617
612.85	7.561
613.18	7.533
613.51	7.465
613.84	7.393
614.17	7.374
614.49	7.345
614.82	7.310
615.15	7.263
615.48	7.208
615.81	7.189
616.14	7.148
616.47	7.074
616.80	6.974
617.13	6.939
617.46	6.900
617.78	6.840
618.11	6.783
618.44	6.761
618.77	6.711
619.10	6.685
619.43	6.686
619.76	6.635
620.09	6.666
620.41	6.690
620.74	6.691
621.07	6.737
621.40	6.737
621.73	6.739
622.06	6.751
622.38	6.770
622.71	6.756
623.04	6.766
623.37	6.810
623.70	6.812
624.02	6.827
624.35	6.861
624.68	6.862
625.01	6.880
625.34	6.924
625.66	6.928
625.99	6.933
626.32	6.956
626.65	6.934
626.98	6.893
627.30	6.867
627.63	6.842
627.96	6.763
628.29	6.703
628.61	6.639
628.94	6.590
629.27	6.560
629.60	6.478
629.92	6.427
630.25	6.372
630.58	6.354
630.91	6.310
631.23	6.270
631.56	6.293
631.89	6.256
632.21	6.252
632.54	6.190
632.87	6.113
633.19	6.094
633.52	6.059
633.85	6.011
634.18	5.941
634.50	5.890
634.83	5.836
635.16	5.740
635.48	5.682
635.81	5.608
636.14	5.519
636.46	5.456
636.79	5.361
637.11	5.237
637.44	5.132
637.77	5.033
638.09	4.948
638.42	4.827
638.75	4.734
639.07	4.660
639.40	4.562
639.73	4.490
640.05	4.454
640.38	4.427
640.70	4.375
641.03	4.351
641.36	4.316
641.68	4.274
642.01	4.271
642.33	4.238
642.66	4.202
642.98	4.150
643.31	4.126
643.64	4.039
643.96	4.003
644.29	4.006
644.61	3.952
644.94	3.908
645.26	3.867
645.59	3.853
645.91	3.873
646.24	3.854
646.56	3.834
646.89	3.823
647.22	3.804
647.54	3.770
647.87	3.719
648.19	3.710
648.52	3.682
648.84	3.638
649.17	3.570
649.49	3.522
649.82	3.487
650.14	3.525
650.47	3.505
650.79	3.529
651.11	3.505
651.44	3.483
651.76	3.504
652.09	3.540
652.41	3.574
652.74	3.607
653.06	3.604
653.39	3.643
653.71	3.639
654.04	3.633
654.36	3.654
654.68	3.701
655.01	3.720
655.33	3.709
655.66	3.693
655.98	3.725
656.30	3.699
656.63	3.699
656.95	3.644
657.28	3.639
657.60	3.620
657.92	3.536
658.25	3.474
658.57	3.462
658.90	3.428
659.22	3.390
659.54	3.346
659.87	3.339
660.19	3.282
660.51	3.253
660.84	3.181
661.16	3.156
661.48	3.160
661.81	3.145
662.13	3.097
662.45	3.081
662.78	3.089
663.10	3.127
663.42	3.125
663.75	3.166
664.07	3.159
664.39	3.170
664.72	3.157
665.04	3.211
665.36	3.284
665.69	3.359
666.01	3.412
666.33	3.496
666.65	3.510
666.98	3.578
667.30	3.663
667.62	3.784
667.94	3.893
668.27	4.020
668.59	4.137
668.91	4.210
669.23	4.309
669.56	4.388
669.88	4.471
670.20	4.578
670.52	4.736
670.85	4.776
671.17	4.921
671.49	5.014
671.81	5.128
672.13	5.235
672.46	5.398
672.78	5.556
673.10	5.759
673.42	5.920
673.74	6.005
674.07	6.105
674.39	6.363
674.71	6.475
675.03	6.727
675.35	6.964
675.67	7.115
676.00	7.272
676.32	7.385
676.64	7.495
676.96	7.659
677.28	7.865
677.60	8.041
677.92	8.169
678.25	8.327
678.57	8.433
678.89	8.503
679.21	8.623
679.53	8.775
679.85	8.981
680.17	9.148
680.49	9.252
680.81	9.466
681.13	9.620
681.46	9.813
681.78	10.074
682.10	10.316
682.42	10.553
682.74	10.875
683.06	11.110
683.38	11.315
683.70	11.594
684.02	11.877
684.34	12.119
684.66	12.339
684.98	12.534
685.30	12.702
685.62	12.834
685.94	13.020
686.26	13.080
686.58	13.159
686.90	13.310
687.22	13.405
687.54	13.486
687.86	13.498
688.18	13.621
688.50	13.727
688.82	13.800
689.14	13.900
689.46	14.070
689.78	14.165
690.10	14.316
690.42	14.399
690.74	14.562
691.06	14.729
691.38	14.886
691.70	15.043
692.02	15.180
692.34	15.363
692.66	15.568
692.98	15.682
693.30	15.974
693.62	16.145
693.94	16.327
694.26	16.410
694.57	16.543
694.89	16.732
695.21	16.829
695.53	17.006
695.85	17.145
696.17	17.314
696.49	17.488
696.81	17.628
697.13	17.787
697.44	17.937
697.76	18.168
698.08	18.439
698.40	18.644
698.72	18.913
699.04	19.125
699.36	19.425
699.67	19.687
699.99	19.951
700.31	20.193
700.63	20.563
700.95	20.974
701.27	21.275
701.58	21.472
701.90	21.801
702.22	22.095
702.54	22.446
702.86	22.709
703.17	22.924
703.49	23.245
703.81	23.599
704.13	23.804
704.45	24.009
704.76	24.241
705.08	24.522
705.40	24.759
705.72	25.022
706.03	25.228
706.35	25.410
706.67	25.622
706.99	25.799
707.30	26.025
707.62	26.310
707.94	26.538
708.26	26.741
708.57	26.986
708.89	27.198
709.21	27.414
709.53	27.648
709.84	27.875
710.16	28.171
710.48	28.479
710.79	28.703
711.11	28.940
711.43	29.188
711.74	29.523
712.06	29.788
712.38	30.024
712.69	30.298
713.01	30.561
713.33	30.925
713.64	31.201
713.96	31.408
714.28	31.723
714.59	32.065
714.91	32.365
715.23	32.663
715.54	32.942
715.86	33.342
716.17	33.710
716.49	34.051
716.81	34.413
717.12	34.743
717.44	35.081
717.76	35.430
718.07	35.640
718.39	35.880
718.70	36.122
719.02	36.347
719.33	36.483
719.65	36.601
719.97	36.820
720.28	36.974
720.60	37.234
720.91	37.575
721.23	37.769
721.54	37.984
721.86	38.302
722.17	38.545
722.49	38.883
722.81	39.174
723.12	39.518
723.44	39.877
723.75	40.027
724.07	40.223
724.38	40.390
724.70	40.634
725.01	40.857
725.33	40.978
725.64	41.198
725.96	41.360
726.27	41.460
726.59	41.605
726.90	41.661
727.22	41.627
727.53	41.803
727.84	41.922
728.16	41.946
728.47	42.047
728.79	42.266
729.10	42.389
729.42	42.381
729.73	42.441
730.05	42.476
730.36	42.589
730.67	42.943
730.99	43.105
731.30	43.134
731.62	43.375
731.93	43.465
732.24	43.483
732.56	43.550
732.87	43.851
733.19	44.171
733.50	44.370
733.81	44.537
734.13	44.655
734.44	44.735
734.76	44.876
735.07	44.990
735.38	45.226
735.70	45.562
736.01	45.717
736.32	45.819
736.64	45.929
736.95	46.041
737.26	45.976
737.58	46.147
737.89	46.233
738.20	46.406
738.52	46.481
738.83	46.425
739.14	46.410
739.45	46.524
739.77	46.585
740.08	46.664
740.39	46.806
740.71	47.085
741.02	47.160
741.33	47.173
741.64	47.206
741.96	47.241
742.27	47.330
742.58	47.335
742.90	47.402
743.21	47.557
743.52	47.594
743.83	47.478
744.14	47.459
744.46	47.384
744.77	47.572
745.08	47.546
745.39	47.474
745.71	47.621
746.02	47.675
746.33	47.569
746.64	47.427
746.95	47.489
747.27	47.626
747.58	47.638
747.89	47.550
748.20	47.226
748.51	47.412
748.82	47.528
749.14	47.495
749.45	47.447
749.76	47.656
750.07	47.784
750.38	47.684
750.69	47.597
751.01	47.558
751.32	47.693
751.63	47.848
751.94	47.637
752.25	47.411
752.56	47.294
752.87	47.211
753.18	47.025
753.49	47.049
753.81	47.102
754.12	47.072
754.43	47.160
754.74	47.224
755.05	47.345
755.36	47.426
755.67	47.728
755.98	47.957
756.29	48.172
756.60	48.342
756.91	48.251
757.22	48.385
757.53	48.552
757.84	48.675
758.15	48.881
758.46	49.072
758.77	49.186
759.09	49.087
759.40	49.061
759.71	49.050
760.02	48.985
760.33	49.003
760.64	48.984
760.95	49.005
761.26	48.880
761.57	48.719
761.88	48.504
762.18	48.399
762.49	48.341
762.80	48.322
763.11	48.208
763.42	47.952
763.73	47.876
764.04	47.811
764.35	47.703
764.66	47.620
764.97	47.451
765.28	47.455
765.59	47.314
765.90	47.144
766.21	46.680
766.52	46.527
766.83	46.634
767.14	46.459
767.44	46.034
767.75	45.707
768.06	45.482
768.37	45.108
768.68	44.978
768.99	44.850
769.30	44.800
769.61	44.800
769.91	44.740
770.22	44.426
770.53	44.269
770.84	44.281
771.15	44.309
771.46	44.264
771.77	44.403
772.07	44.075
772.38	44.132
772.69	43.962
773.00	44.294
773.31	44.347
773.61	44.445
773.92	44.544
774.23	44.470
774.54	44.195
774.85	44.113
775.15	44.106
775.46	44.295
775.77	44.159
776.08	44.078
776.39	43.537
776.69	43.547
777.00	43.591
777.31	43.584
777.62	43.588
777.92	43.865
778.23	43.864
778.54	43.757
778.85	43.616
779.15	43.653
779.46	43.833
779.77	44.284
780.07	44.084
780.38	44.355
780.69	44.216
781.00	44.222
781.30	44.053
781.61	43.810
781.92	43.896
782.22	43.875
782.53	43.442
782.84	43.230
783.14	43.435
783.45	43.406
783.76	43.432
784.06	43.538
784.37	43.602
784.68	43.816
784.98	44.085
785.29	44.014
785.60	44.221
785.90	44.656
786.21	44.696
786.51	44.174
786.82	44.461
787.13	44.603
787.43	44.616
787.74	44.878
788.04	44.933
788.35	45.113
788.66	45.200
788.96	44.912
789.27	44.971
789.57	44.804
789.88	45.157
790.19	44.932
790.49	44.601
790.80	44.249
791.10	44.095
791.41	43.932
791.71	43.867
792.02	43.891
792.32	43.929
792.63	43.854
792.93	44.403
793.24	44.335
793.54	44.480
793.85	44.362
794.15	44.811
794.46	44.865
794.76	44.712
795.07	44.766
795.37	44.586
795.68	44.644
795.98	44.987
796.29	45.070
796.59	44.866
796.90	44.746
797.20	44.942
797.51	44.931
797.81	44.638
798.12	45.067
798.42	44.994
798.72	45.363
799.03	45.761
799.33	45.387
799.64	45.187
799.94	45.578
800.25	45.327
800.55	45.017
800.85	44.921
801.16	45.206
801.46	44.761
801.77	44.612
802.07	44.402
802.37	44.145
802.68	44.073
802.98	44.124
803.28	44.400
803.59	44.795
803.89	45.396
804.20	45.689
804.50	45.745
804.80	46.206
805.11	46.550
805.41	46.583
805.71	46.644
806.02	46.910
806.32	46.838
806.62	46.681
806.93	46.808
807.23	46.429
807.53	46.314
807.83	46.184
808.14	46.208
808.44	46.205
808.74	46.501
809.05	46.320
809.35	45.978
809.65	46.527
809.95	46.220
810.26	45.952
810.56	46.035
810.86	46.013
811.16	46.285
811.47	46.443
811.77	46.617
812.07	46.590
812.37	46.965
812.68	47.771
812.98	47.632
813.28	48.005
813.58	48.631
813.88	48.729
814.19	49.159
814.49	49.238
814.79	49.139
815.09	49.344
815.39	48.877
815.70	48.610
816.00	48.338
816.30	48.090
816.60	48.163
816.90	47.837
817.20	48.172
817.50	48.054
817.81	47.840
818.11	47.878
818.41	47.761
818.71	48.068
819.01	48.381
819.31	48.575
819.61	48.874
819.92	48.963
820.22	49.245
820.52	49.341
820.82	49.529
821.12	49.883
821.42	50.196
821.72	50.407
822.02	50.692
822.32	50.948
822.62	51.196
822.92	51.338
823.22	51.647
823.52	51.789
823.83	52.013
824.13	52.025
824.43	51.857
824.73	51.729
825.03	51.629
825.33	51.430
825.63	51.273
825.93	51.110
826.23	50.880
826.53	50.566
826.83	50.394
827.13	50.155
827.43	50.371
827.73	50.685
828.03	50.671
828.33	50.913
828.63	50.887
828.93	50.683
829.23	50.612
829.53	50.560
829.83	50.600
830.13	50.437
830.42	50.458
830.72	49.960
831.02	49.598
831.32	49.697
831.62	49.712
831.92	49.936
832.22	49.847
832.52	49.835
832.82	50.230
833.12	50.069
833.42	50.187
833.72	50.253
834.01	50.562
834.31	50.636
834.61	50.824
834.91	51.115
835.21	51.030
835.51	51.219
835.81	51.116
836.11	50.838
836.40	50.902
836.70	50.540
837.00	50.555
837.30	50.038
837.60	49.890
837.90	49.274
838.19	48.628
838.49	48.869
838.79	48.488
839.09	48.091
839.39	48.131
839.68	48.473
839.98	48.080
840.28	47.549
840.58	47.692
840.88	47.597
841.17	47.099
841.47	47.414
841.77	47.325
842.07	48.156
842.36	48.648
842.66	48.026
842.96	46.971
843.26	46.983
843.55	46.506
843.85	45.609
844.15	45.524
844.45	45.708
844.74	44.157
845.04	42.873
845.34	42.120
845.63	42.535
845.93	42.884
846.23	44.071
846.53	44.328
846.82	45.557
847.12	47.131
847.42	46.317
847.71	46.799
848.01	47.620
848.31	47.431
848.60	46.198
848.90	44.046
849.19	43.996
849.49	43.146
849.79	43.783
850.08	43.719
850.38	42.566
850.68	41.657
850.97	41.988
851.27	41.401
851.56	42.814
851.86	43.262
852.16	43.661
852.45	43.401
852.75	42.375
853.04	43.026
853.34	42.077
853.64	41.516
853.93	43.194
854.23	43.422
854.52	44.196
854.82	44.361
855.11	44.292
855.41	45.225
855.70	44.985
856.00	45.381
856.30	44.663
856.59	44.932
856.89	46.402
857.18	45.438
857.48	43.483
857.77	43.307
858.07	42.284
858.36	41.610
858.66	41.407
858.95	41.108
859.25	42.548
859.54	42.297
859.84	42.211
860.13	40.327
860.42	40.720
860.72	40.311
861.01	40.100
861.31	40.960
861.60	41.955
861.90	42.053
862.19	41.870
862.49	41.430
862.78	41.036
863.07	41.135
863.37	42.767
863.66	43.191
863.96	46.868
864.25	48.536
864.54	48.200
864.84	49.235
865.13	49.124
865.43	50.481
865.72	65.625
866.01	48.508
866.31	55.808
866.60	42.546
866.89	53.804
>>>>>End Spectral Data<<<<<
