OOIBase32 Version 2.0.0.6 Data File
++++++++++++++++++++++++++++++++++++
Date: 01-23-2012, 23:15:29
User: Valued Ocean Optics Customer
Spectrometer Serial Number: USB2E2917
Spectrometer Channel: Master
Integration Time (msec): 5
Spectra Averaged: 10
Boxcar Smoothing: 5
Correct for Electrical Dark: Enabled
Time Normalized: Disabled
Dual-beam Reference: Disabled
Reference Channel: Master
Temperature: Not acquired
Spectrometer Type: S2000
ADC Type: USB2000
Number of Pixels in File: 2048
Graph Title: 
>>>>>Begin Spectral Data<<<<<
180.30	0.000
180.67	0.000
181.03	-56.811
181.40	546.314
181.77	-7048.089
182.14	103.825
182.51	1.762
182.88	265.412
183.25	44.235
183.62	69.506
183.99	225.163
184.36	69.662
184.73	308.527
185.10	70.264
185.46	-261.350
185.83	39.992
186.20	448.025
186.57	274.973
186.94	70.025
187.31	76.187
187.68	-27.329
188.05	97.691
188.42	128.759
188.78	341.487
189.15	895.326
189.52	-191.917
189.89	-65.224
190.26	-47.142
190.63	-8.385
191.00	-5.744
191.37	-0.941
191.73	11.080
192.10	14.199
192.47	12.615
192.84	15.104
193.21	11.204
193.58	15.389
193.94	11.452
194.31	20.622
194.68	14.586
195.05	14.859
195.42	21.192
195.79	24.198
196.15	28.359
196.52	46.558
196.89	61.755
197.26	50.760
197.63	26.135
198.00	40.396
198.36	19.951
198.73	14.446
199.10	7.889
199.47	-3.541
199.84	-15.819
200.20	-35.784
200.57	-61.583
200.94	-69.422
201.31	-79.164
201.68	-77.382
202.04	-80.209
202.41	-80.108
202.78	-98.038
203.15	-111.803
203.51	-103.885
203.88	-106.562
204.25	-99.760
204.62	-105.012
204.98	-107.538
205.35	-87.026
205.72	-102.024
206.09	-103.912
206.46	-177.179
206.82	-125.724
207.19	-113.267
207.56	-184.047
207.92	-163.184
208.29	-160.872
208.66	-108.465
209.03	-107.639
209.39	-73.131
209.76	-59.564
210.13	-106.639
210.50	-75.777
210.86	-69.623
211.23	-73.333
211.60	-31.382
211.96	-17.396
212.33	-17.502
212.70	-25.198
213.07	-28.717
213.43	-75.608
213.80	-71.491
214.17	-35.144
214.53	-8.759
214.90	-3.108
215.27	3.519
215.63	-1.411
216.00	-2.424
216.37	6.631
216.74	3.934
217.10	0.816
217.47	6.618
217.84	13.397
218.20	13.736
218.57	7.248
218.94	-0.528
219.30	-8.659
219.67	-10.706
220.04	-7.845
220.40	-16.567
220.77	-19.139
221.13	-13.644
221.50	-12.234
221.87	-19.933
222.23	-22.627
222.60	-28.200
222.97	-22.978
223.33	-19.822
223.70	-21.082
224.07	-23.798
224.43	-19.678
224.80	-13.257
225.16	-11.652
225.53	-12.128
225.90	-13.634
226.26	-12.328
226.63	-7.323
226.99	-5.287
227.36	-2.978
227.73	-0.446
228.09	-0.039
228.46	2.447
228.82	2.597
229.19	2.488
229.56	2.388
229.92	3.872
230.29	3.639
230.65	0.505
231.02	-1.431
231.38	-5.308
231.75	-7.482
232.12	-9.146
232.48	-12.666
232.85	-14.973
233.21	-14.626
233.58	-14.727
233.94	-15.847
234.31	-16.162
234.68	-13.726
235.04	-13.376
235.41	-11.034
235.77	-8.329
236.14	-5.365
236.50	-4.367
236.87	-3.424
237.23	-3.029
237.60	-3.114
237.96	-1.646
238.33	-1.746
238.69	-3.199
239.06	-2.702
239.42	-2.516
239.79	-3.173
240.15	-3.642
240.52	-3.029
240.88	-2.046
241.25	-2.001
241.61	-1.525
241.98	-1.794
242.34	-1.513
242.71	-0.493
243.07	-0.632
243.44	-0.855
243.80	-0.754
244.17	-0.448
244.53	-0.653
244.90	-0.888
245.26	-0.974
245.63	-0.889
245.99	-0.845
246.36	-0.859
246.72	-0.851
247.09	-0.817
247.45	-0.607
247.81	-0.490
248.18	-0.626
248.54	-0.309
248.91	-0.454
249.27	-0.127
249.64	-0.272
250.00	-0.116
250.36	-0.338
250.73	-0.989
251.09	-1.094
251.46	-1.314
251.82	-1.694
252.19	-1.755
252.55	-2.606
252.91	-2.475
253.28	-2.763
253.64	-2.671
254.01	-2.636
254.37	-1.876
254.73	-0.995
255.10	-0.747
255.46	-0.273
255.83	-0.008
256.19	-0.083
256.55	-0.049
256.92	-0.120
257.28	-0.229
257.65	-0.124
258.01	-0.192
258.37	-0.316
258.74	-0.639
259.10	-0.751
259.46	-1.022
259.83	-1.068
260.19	-0.986
260.55	-0.871
260.92	-1.059
261.28	-1.065
261.64	-0.846
262.01	-0.865
262.37	-0.909
262.73	-0.890
263.10	-0.814
263.46	-0.814
263.82	-0.945
264.19	-1.215
264.55	-1.578
264.91	-1.498
265.28	-1.559
265.64	-2.075
266.00	-1.966
266.37	-1.797
266.73	-1.674
267.09	-1.521
267.46	-1.282
267.82	-1.494
268.18	-1.374
268.54	-1.206
268.91	-1.223
269.27	-1.135
269.63	-0.843
270.00	-0.755
270.36	-0.817
270.72	-0.725
271.08	-0.949
271.45	-1.210
271.81	-1.081
272.17	-1.100
272.53	-1.006
272.90	-0.849
273.26	-0.755
273.62	-0.915
273.98	-1.023
274.35	-0.962
274.71	-0.986
275.07	-0.762
275.43	-0.587
275.80	-0.341
276.16	-0.226
276.52	-0.261
276.88	-0.159
277.25	-0.385
277.61	-0.546
277.97	-0.622
278.33	-0.687
278.69	-0.810
279.06	-0.869
279.42	-0.781
279.78	-0.846
280.14	-0.977
280.50	-0.974
280.87	-1.068
281.23	-0.976
281.59	-0.847
281.95	-0.653
282.31	-0.458
282.68	-0.429
283.04	-0.515
283.40	-0.435
283.76	-0.476
284.12	-0.346
284.48	-0.317
284.85	-0.367
285.21	-0.266
285.57	-0.309
285.93	-0.383
286.29	-0.627
286.65	-0.553
287.02	-0.113
287.38	-0.181
287.74	-0.107
288.10	-0.159
288.46	-0.118
288.82	-0.065
289.18	-0.094
289.54	-0.112
289.91	-0.041
290.27	-0.003
290.63	0.061
290.99	-0.220
291.35	-0.270
291.71	-0.372
292.07	-0.417
292.43	-0.529
292.79	-0.566
293.16	-0.524
293.52	-0.295
293.88	-0.244
294.24	-0.166
294.60	-0.301
294.96	-0.326
295.32	-0.204
295.68	-0.121
296.04	0.019
296.40	0.185
296.76	0.273
297.12	0.289
297.49	0.153
297.85	0.049
298.21	0.043
298.57	0.027
298.93	0.045
299.29	-0.075
299.65	-0.147
300.01	-0.278
300.37	-0.326
300.73	-0.238
301.09	-0.404
301.45	-0.378
301.81	-0.428
302.17	-0.411
302.53	-0.500
302.89	-0.545
303.25	-0.497
303.61	-0.428
303.97	-0.527
304.33	-0.533
304.69	-0.621
305.05	-0.509
305.41	-0.607
305.77	-0.570
306.13	-0.550
306.49	-0.383
306.85	-0.201
307.21	-0.123
307.57	-0.099
307.93	-0.015
308.29	-0.002
308.65	-0.015
309.01	-0.002
309.37	0.038
309.73	0.067
310.09	0.133
310.45	0.180
310.81	0.026
311.17	-0.054
311.53	-0.197
311.89	-0.217
312.25	-0.246
312.61	-0.323
312.96	-0.303
313.32	-0.268
313.68	-0.259
314.04	-0.299
314.40	-0.250
314.76	-0.301
315.12	-0.295
315.48	-0.119
315.84	0.010
316.20	0.049
316.56	0.106
316.92	0.017
317.27	-0.016
317.63	-0.008
317.99	-0.175
318.35	-0.306
318.71	-0.255
319.07	-0.202
319.43	-0.201
319.79	-0.211
320.15	-0.246
320.50	-0.219
320.86	-0.134
321.22	-0.078
321.58	-0.055
321.94	-0.082
322.30	-0.088
322.66	-0.075
323.01	-0.130
323.37	-0.275
323.73	-0.328
324.09	-0.438
324.45	-0.420
324.81	-0.469
325.17	-0.463
325.52	-0.525
325.88	-0.452
326.24	-0.462
326.60	-0.507
326.96	-0.545
327.31	-0.521
327.67	-0.634
328.03	-0.586
328.39	-0.644
328.75	-0.619
329.11	-0.567
329.46	-0.524
329.82	-0.488
330.18	-0.460
330.54	-0.415
330.90	-0.444
331.25	-0.460
331.61	-0.340
331.97	-0.326
332.33	-0.254
332.68	-0.171
333.04	-0.199
333.40	-0.261
333.76	-0.298
334.11	-0.338
334.47	-0.321
334.83	-0.295
335.19	-0.237
335.54	-0.292
335.90	-0.240
336.26	-0.294
336.62	-0.395
336.97	-0.500
337.33	-0.544
337.69	-0.517
338.05	-0.498
338.40	-0.536
338.76	-0.514
339.12	-0.469
339.48	-0.461
339.83	-0.513
340.19	-0.465
340.55	-0.392
340.90	-0.257
341.26	-0.157
341.62	-0.156
341.97	-0.187
342.33	-0.112
342.69	-0.054
343.04	-0.034
343.40	-0.061
343.76	-0.050
344.12	-0.013
344.47	0.038
344.83	0.034
345.19	0.026
345.54	0.057
345.90	0.146
346.26	0.212
346.61	0.187
346.97	0.175
347.32	0.273
347.68	0.287
348.04	0.228
348.39	0.115
348.75	0.129
349.11	0.166
349.46	0.158
349.82	0.172
350.18	0.105
350.53	0.164
350.89	0.177
351.24	0.078
351.60	0.171
351.96	0.341
352.31	0.434
352.67	0.472
353.02	0.516
353.38	0.586
353.74	0.623
354.09	0.667
354.45	0.705
354.80	0.752
355.16	0.890
355.52	0.938
355.87	0.827
356.23	0.853
356.58	0.885
356.94	0.889
357.29	0.912
357.65	0.952
358.00	0.961
358.36	0.939
358.72	0.972
359.07	1.031
359.43	1.035
359.78	1.092
360.14	1.155
360.49	1.126
360.85	1.148
361.20	1.136
361.56	1.154
361.91	1.198
362.27	1.255
362.62	1.303
362.98	1.340
363.33	1.341
363.69	1.355
364.04	1.379
364.40	1.399
364.75	1.454
365.11	1.492
365.46	1.482
365.82	1.498
366.17	1.503
366.53	1.525
366.88	1.501
367.24	1.558
367.59	1.593
367.95	1.588
368.30	1.649
368.66	1.639
369.01	1.672
369.37	1.736
369.72	1.807
370.08	1.868
370.43	1.831
370.78	1.858
371.14	1.814
371.49	1.835
371.85	1.848
372.20	1.860
372.56	1.887
372.91	1.873
373.26	1.887
373.62	1.823
373.97	1.824
374.33	1.889
374.68	1.875
375.03	1.921
375.39	1.914
375.74	1.918
376.10	1.954
376.45	1.992
376.80	2.073
377.16	2.063
377.51	2.127
377.87	2.157
378.22	2.128
378.57	2.167
378.93	2.210
379.28	2.291
379.63	2.277
379.99	2.336
380.34	2.344
380.70	2.366
381.05	2.431
381.40	2.458
381.76	2.486
382.11	2.550
382.46	2.602
382.82	2.649
383.17	2.645
383.52	2.710
383.88	2.675
384.23	2.677
384.58	2.658
384.94	2.627
385.29	2.641
385.64	2.658
385.99	2.690
386.35	2.722
386.70	2.723
387.05	2.736
387.41	2.773
387.76	2.775
388.11	2.805
388.47	2.814
388.82	2.883
389.17	2.898
389.52	2.914
389.88	2.928
390.23	2.908
390.58	2.927
390.93	2.952
391.29	2.944
391.64	2.994
391.99	3.039
392.34	3.071
392.70	3.047
393.05	3.039
393.40	3.041
393.75	3.034
394.11	3.076
394.46	3.059
394.81	3.064
395.16	3.051
395.52	3.034
395.87	3.012
396.22	3.036
396.57	3.017
396.92	3.025
397.28	3.012
397.63	2.974
397.98	2.931
398.33	2.917
398.68	2.900
399.04	2.897
399.39	2.860
399.74	2.839
400.09	2.809
400.44	2.823
400.80	2.817
401.15	2.803
401.50	2.839
401.85	2.861
402.20	2.832
402.55	2.835
402.90	2.838
403.26	2.874
403.61	2.877
403.96	2.856
404.31	2.837
404.66	2.858
405.01	2.833
405.36	2.843
405.72	2.806
406.07	2.822
406.42	2.782
406.77	2.766
407.12	2.733
407.47	2.712
407.82	2.703
408.17	2.686
408.53	2.655
408.88	2.669
409.23	2.632
409.58	2.618
409.93	2.649
410.28	2.674
410.63	2.674
410.98	2.698
411.33	2.709
411.68	2.740
412.03	2.795
412.38	2.806
412.73	2.820
413.09	2.830
413.44	2.874
413.79	2.863
414.14	2.877
414.49	2.900
414.84	2.921
415.19	2.931
415.54	2.963
415.89	2.967
416.24	2.990
416.59	3.024
416.94	3.039
417.29	3.045
417.64	3.050
417.99	3.073
418.34	3.084
418.69	3.078
419.04	3.075
419.39	3.067
419.74	3.064
420.09	3.064
420.44	3.042
420.79	3.048
421.14	3.046
421.49	3.051
421.84	3.038
422.19	3.044
422.54	3.030
422.89	3.036
423.24	3.015
423.59	3.005
423.94	2.978
424.29	2.978
424.64	2.975
424.99	2.952
425.34	2.927
425.68	2.913
426.03	2.880
426.38	2.890
426.73	2.872
427.08	2.860
427.43	2.860
427.78	2.877
428.13	2.864
428.48	2.844
428.83	2.843
429.18	2.855
429.53	2.860
429.87	2.852
430.22	2.842
430.57	2.857
430.92	2.855
431.27	2.857
431.62	2.843
431.97	2.837
432.32	2.828
432.67	2.817
433.01	2.781
433.36	2.761
433.71	2.750
434.06	2.748
434.41	2.731
434.76	2.751
435.11	2.728
435.45	2.741
435.80	2.753
436.15	2.768
436.50	2.805
436.85	2.858
437.20	2.866
437.54	2.864
437.89	2.866
438.24	2.898
438.59	2.897
438.94	2.909
439.29	2.908
439.63	2.918
439.98	2.917
440.33	2.907
440.68	2.917
441.03	2.940
441.37	2.986
441.72	3.013
442.07	3.004
442.42	3.027
442.76	3.079
443.11	3.113
443.46	3.148
443.81	3.188
444.16	3.231
444.50	3.242
444.85	3.261
445.20	3.273
445.55	3.292
445.89	3.324
446.24	3.347
446.59	3.345
446.94	3.360
447.28	3.366
447.63	3.366
447.98	3.371
448.32	3.384
448.67	3.395
449.02	3.396
449.37	3.406
449.71	3.411
450.06	3.440
450.41	3.462
450.75	3.466
451.10	3.479
451.45	3.492
451.79	3.484
452.14	3.504
452.49	3.531
452.84	3.569
453.18	3.576
453.53	3.578
453.88	3.582
454.22	3.599
454.57	3.623
454.92	3.640
455.26	3.677
455.61	3.728
455.95	3.741
456.30	3.758
456.65	3.778
456.99	3.807
457.34	3.848
457.69	3.869
458.03	3.870
458.38	3.874
458.73	3.894
459.07	3.889
459.42	3.868
459.76	3.858
460.11	3.823
460.46	3.794
460.80	3.776
461.15	3.749
461.49	3.718
461.84	3.711
462.19	3.703
462.53	3.671
462.88	3.675
463.22	3.671
463.57	3.661
463.91	3.680
464.26	3.694
464.61	3.682
464.95	3.656
465.30	3.656
465.64	3.657
465.99	3.680
466.33	3.693
466.68	3.685
467.02	3.688
467.37	3.698
467.71	3.688
468.06	3.679
468.41	3.673
468.75	3.689
469.10	3.671
469.44	3.661
469.79	3.627
470.13	3.592
470.48	3.567
470.82	3.565
471.17	3.547
471.51	3.547
471.86	3.546
472.20	3.552
472.55	3.550
472.89	3.565
473.23	3.562
473.58	3.566
473.92	3.589
474.27	3.602
474.61	3.597
474.96	3.624
475.30	3.635
475.65	3.641
475.99	3.651
476.34	3.654
476.68	3.651
477.02	3.664
477.37	3.672
477.71	3.696
478.06	3.731
478.40	3.798
478.75	3.865
479.09	3.972
479.43	4.079
479.78	4.190
480.12	4.310
480.47	4.440
480.81	4.551
481.15	4.669
481.50	4.786
481.84	4.912
482.19	5.032
482.53	5.135
482.87	5.196
483.22	5.208
483.56	5.164
483.90	5.086
484.25	4.990
484.59	4.885
484.94	4.789
485.28	4.691
485.62	4.586
485.97	4.478
486.31	4.390
486.65	4.324
487.00	4.302
487.34	4.325
487.68	4.368
488.03	4.413
488.37	4.483
488.71	4.516
489.06	4.534
489.40	4.556
489.74	4.572
490.09	4.587
490.43	4.590
490.77	4.593
491.11	4.594
491.46	4.605
491.80	4.605
492.14	4.585
492.49	4.600
492.83	4.618
493.17	4.612
493.51	4.629
493.86	4.645
494.20	4.688
494.54	4.731
494.88	4.796
495.23	4.848
495.57	4.925
495.91	5.005
496.25	5.072
496.60	5.138
496.94	5.204
497.28	5.258
497.62	5.320
497.97	5.376
498.31	5.453
498.65	5.507
498.99	5.576
499.33	5.659
499.68	5.746
500.02	5.837
500.36	5.918
500.70	6.009
501.04	6.090
501.39	6.172
501.73	6.274
502.07	6.374
502.41	6.474
502.75	6.588
503.09	6.684
503.44	6.804
503.78	6.888
504.12	6.999
504.46	7.127
504.80	7.257
505.14	7.396
505.49	7.520
505.83	7.636
506.17	7.781
506.51	7.907
506.85	8.028
507.19	8.136
507.53	8.265
507.87	8.394
508.22	8.483
508.56	8.610
508.90	8.715
509.24	8.850
509.58	8.965
509.92	9.078
510.26	9.181
510.60	9.300
510.94	9.417
511.28	9.546
511.63	9.678
511.97	9.848
512.31	9.983
512.65	10.133
512.99	10.274
513.33	10.463
513.67	10.642
514.01	10.826
514.35	11.001
514.69	11.187
515.03	11.358
515.37	11.527
515.71	11.673
516.05	11.812
516.39	11.946
516.73	12.082
517.07	12.191
517.41	12.294
517.75	12.399
518.09	12.526
518.43	12.606
518.77	12.697
519.11	12.799
519.45	12.904
519.79	13.030
520.13	13.156
520.47	13.293
520.81	13.424
521.15	13.587
521.49	13.742
521.83	13.880
522.17	14.039
522.51	14.196
522.85	14.357
523.19	14.559
523.53	14.766
523.87	15.002
524.21	15.228
524.55	15.446
524.89	15.637
525.23	15.835
525.57	16.003
525.91	16.170
526.25	16.330
526.58	16.486
526.92	16.593
527.26	16.675
527.60	16.711
527.94	16.739
528.28	16.760
528.62	16.764
528.96	16.762
529.30	16.750
529.64	16.742
529.97	16.726
530.31	16.684
530.65	16.675
530.99	16.670
531.33	16.718
531.67	16.751
532.01	16.778
532.35	16.820
532.68	16.838
533.02	16.862
533.36	16.882
533.70	16.885
534.04	16.900
534.38	16.901
534.71	16.931
535.05	16.933
535.39	16.928
535.73	16.949
536.07	16.945
536.41	16.971
536.74	17.007
537.08	17.031
537.42	17.109
537.76	17.167
538.10	17.254
538.43	17.320
538.77	17.392
539.11	17.451
539.45	17.507
539.79	17.580
540.12	17.629
540.46	17.649
540.80	17.665
541.14	17.659
541.47	17.641
541.81	17.605
542.15	17.576
542.49	17.532
542.82	17.503
543.16	17.456
543.50	17.399
543.84	17.343
544.17	17.329
544.51	17.322
544.85	17.303
545.18	17.313
545.52	17.328
545.86	17.313
546.20	17.328
546.53	17.335
546.87	17.332
547.21	17.328
547.54	17.330
547.88	17.317
548.22	17.320
548.55	17.311
548.89	17.320
549.23	17.324
549.56	17.332
549.90	17.335
550.24	17.341
550.57	17.356
550.91	17.354
551.25	17.366
551.58	17.404
551.92	17.387
552.26	17.387
552.59	17.381
552.93	17.352
553.27	17.361
553.60	17.336
553.94	17.294
554.27	17.280
554.61	17.289
554.95	17.268
555.28	17.215
555.62	17.203
555.95	17.222
556.29	17.210
556.63	17.200
556.96	17.168
557.30	17.133
557.63	17.116
557.97	17.071
558.31	17.014
558.64	16.984
558.98	16.953
559.31	16.934
559.65	16.845
559.98	16.785
560.32	16.725
560.65	16.674
560.99	16.618
561.33	16.583
561.66	16.533
562.00	16.495
562.33	16.438
562.67	16.404
563.00	16.331
563.34	16.290
563.67	16.235
564.01	16.161
564.34	16.086
564.68	16.047
565.01	15.973
565.35	15.902
565.68	15.836
566.02	15.758
566.35	15.667
566.69	15.580
567.02	15.513
567.36	15.437
567.69	15.376
568.03	15.315
568.36	15.222
568.69	15.137
569.03	15.075
569.36	14.986
569.70	14.939
570.03	14.856
570.37	14.791
570.70	14.699
571.04	14.606
571.37	14.541
571.70	14.477
572.04	14.416
572.37	14.369
572.71	14.302
573.04	14.252
573.37	14.175
573.71	14.139
574.04	14.075
574.38	14.042
574.71	13.999
575.04	13.944
575.38	13.886
575.71	13.800
576.05	13.731
576.38	13.685
576.71	13.621
577.05	13.537
577.38	13.468
577.71	13.400
578.05	13.313
578.38	13.259
578.71	13.199
579.05	13.122
579.38	13.091
579.71	13.039
580.05	12.971
580.38	12.903
580.71	12.852
581.05	12.780
581.38	12.739
581.71	12.716
582.05	12.654
582.38	12.604
582.71	12.567
583.04	12.550
583.38	12.505
583.71	12.487
584.04	12.476
584.38	12.459
584.71	12.438
585.04	12.428
585.37	12.386
585.71	12.370
586.04	12.351
586.37	12.354
586.70	12.320
587.04	12.324
587.37	12.294
587.70	12.271
588.03	12.261
588.37	12.244
588.70	12.222
589.03	12.200
589.36	12.171
589.69	12.118
590.03	12.075
590.36	12.012
590.69	11.956
591.02	11.893
591.35	11.838
591.69	11.805
592.02	11.756
592.35	11.694
592.68	11.659
593.01	11.626
593.35	11.639
593.68	11.603
594.01	11.598
594.34	11.567
594.67	11.559
595.00	11.532
595.34	11.492
595.67	11.444
596.00	11.430
596.33	11.395
596.66	11.355
596.99	11.291
597.32	11.258
597.65	11.216
597.99	11.169
598.32	11.097
598.65	11.069
598.98	11.010
599.31	11.011
599.64	10.995
599.97	10.958
600.30	10.944
600.63	10.920
600.96	10.910
601.30	10.876
601.63	10.876
601.96	10.866
602.29	10.849
602.62	10.846
602.95	10.819
603.28	10.776
603.61	10.747
603.94	10.702
604.27	10.670
604.60	10.617
604.93	10.577
605.26	10.521
605.59	10.473
605.92	10.423
606.25	10.361
606.58	10.335
606.91	10.281
607.24	10.239
607.57	10.203
607.90	10.154
608.23	10.088
608.56	10.045
608.89	9.990
609.22	9.940
609.55	9.874
609.88	9.829
610.21	9.734
610.54	9.646
610.87	9.570
611.20	9.489
611.53	9.423
611.86	9.370
612.19	9.303
612.52	9.219
612.85	9.197
613.18	9.157
613.51	9.080
613.84	9.033
614.17	8.986
614.49	8.977
614.82	8.924
615.15	8.890
615.48	8.881
615.81	8.837
616.14	8.843
616.47	8.759
616.80	8.686
617.13	8.669
617.46	8.612
617.78	8.601
618.11	8.521
618.44	8.498
618.77	8.463
619.10	8.397
619.43	8.387
619.76	8.326
620.09	8.333
620.41	8.323
620.74	8.295
621.07	8.307
621.40	8.321
621.73	8.338
622.06	8.361
622.38	8.340
622.71	8.339
623.04	8.363
623.37	8.376
623.70	8.372
624.02	8.377
624.35	8.388
624.68	8.368
625.01	8.372
625.34	8.374
625.66	8.338
625.99	8.352
626.32	8.366
626.65	8.335
626.98	8.350
627.30	8.348
627.63	8.348
627.96	8.319
628.29	8.325
628.61	8.269
628.94	8.251
629.27	8.221
629.60	8.179
629.92	8.163
630.25	8.118
630.58	8.058
630.91	8.011
631.23	7.997
631.56	7.986
631.89	7.916
632.21	7.919
632.54	7.884
632.87	7.821
633.19	7.760
633.52	7.667
633.85	7.628
634.18	7.553
634.50	7.474
634.83	7.386
635.16	7.248
635.48	7.180
635.81	7.063
636.14	6.975
636.46	6.921
636.79	6.859
637.11	6.790
637.44	6.673
637.77	6.613
638.09	6.528
638.42	6.428
638.75	6.371
639.07	6.313
639.40	6.239
639.73	6.145
640.05	6.053
640.38	6.006
640.70	5.913
641.03	5.837
641.36	5.763
641.68	5.701
642.01	5.615
642.33	5.582
642.66	5.495
642.98	5.450
643.31	5.410
643.64	5.401
643.96	5.330
644.29	5.278
644.61	5.267
644.94	5.231
645.26	5.213
645.59	5.208
645.91	5.161
646.24	5.141
646.56	5.104
646.89	5.066
647.22	4.997
647.54	4.959
647.87	4.962
648.19	4.917
648.52	4.892
648.84	4.849
649.17	4.796
649.49	4.774
649.82	4.745
650.14	4.724
650.47	4.711
650.79	4.714
651.11	4.719
651.44	4.699
651.76	4.664
652.09	4.676
652.41	4.700
652.74	4.698
653.06	4.694
653.39	4.708
653.71	4.711
654.04	4.690
654.36	4.705
654.68	4.702
655.01	4.685
655.33	4.688
655.66	4.659
655.98	4.629
656.30	4.605
656.63	4.578
656.95	4.558
657.28	4.526
657.60	4.485
657.92	4.427
658.25	4.356
658.57	4.327
658.90	4.298
659.22	4.235
659.54	4.179
659.87	4.133
660.19	4.082
660.51	4.020
660.84	3.971
661.16	3.929
661.48	3.917
661.81	3.921
662.13	3.863
662.45	3.862
662.78	3.850
663.10	3.864
663.42	3.907
663.75	3.949
664.07	3.944
664.39	3.922
664.72	3.951
665.04	3.943
665.36	3.983
665.69	4.070
666.01	4.111
666.33	4.142
666.65	4.167
666.98	4.233
667.30	4.305
667.62	4.405
667.94	4.490
668.27	4.558
668.59	4.684
668.91	4.776
669.23	4.833
669.56	4.912
669.88	5.079
670.20	5.195
670.52	5.343
670.85	5.417
671.17	5.568
671.49	5.739
671.81	5.933
672.13	6.071
672.46	6.256
672.78	6.455
673.10	6.643
673.42	6.802
673.74	6.994
674.07	7.154
674.39	7.416
674.71	7.570
675.03	7.817
675.35	8.007
675.67	8.168
676.00	8.314
676.32	8.455
676.64	8.603
676.96	8.768
677.28	8.909
677.60	9.043
677.92	9.215
678.25	9.429
678.57	9.539
678.89	9.686
679.21	9.896
679.53	10.096
679.85	10.316
680.17	10.545
680.49	10.749
680.81	11.053
681.13	11.301
681.46	11.514
681.78	11.734
682.10	12.033
682.42	12.261
682.74	12.522
683.06	12.745
683.38	12.982
683.70	13.274
684.02	13.539
684.34	13.759
684.66	14.010
684.98	14.201
685.30	14.461
685.62	14.628
685.94	14.871
686.26	15.070
686.58	15.254
686.90	15.415
687.22	15.539
687.54	15.694
687.86	15.833
688.18	15.942
688.50	16.174
688.82	16.247
689.14	16.402
689.46	16.594
689.78	16.727
690.10	16.953
690.42	17.180
690.74	17.392
691.06	17.637
691.38	17.828
691.70	18.103
692.02	18.226
692.34	18.494
692.66	18.678
692.98	18.814
693.30	19.042
693.62	19.177
693.94	19.313
694.26	19.426
694.57	19.445
694.89	19.571
695.21	19.682
695.53	19.808
695.85	19.862
696.17	20.011
696.49	20.162
696.81	20.307
697.13	20.446
697.44	20.626
697.76	20.824
698.08	21.119
698.40	21.360
698.72	21.573
699.04	21.860
699.36	22.234
699.67	22.547
699.99	22.886
700.31	23.212
700.63	23.584
700.95	23.950
701.27	24.328
701.58	24.529
701.90	24.807
702.22	25.192
702.54	25.458
702.86	25.715
703.17	26.023
703.49	26.209
703.81	26.378
704.13	26.615
704.45	26.800
704.76	27.038
705.08	27.315
705.40	27.588
705.72	27.727
706.03	27.934
706.35	28.091
706.67	28.210
706.99	28.446
707.30	28.687
707.62	28.880
707.94	29.063
708.26	29.207
708.57	29.372
708.89	29.533
709.21	29.719
709.53	29.918
709.84	30.174
710.16	30.448
710.48	30.683
710.79	30.921
711.11	31.121
711.43	31.344
711.74	31.531
712.06	31.844
712.38	32.057
712.69	32.333
713.01	32.601
713.33	32.796
713.64	33.045
713.96	33.278
714.28	33.545
714.59	33.845
714.91	34.228
715.23	34.529
715.54	34.776
715.86	35.030
716.17	35.271
716.49	35.623
716.81	35.936
717.12	36.126
717.44	36.512
717.76	36.889
718.07	37.093
718.39	37.303
718.70	37.542
719.02	37.776
719.33	37.994
719.65	38.170
719.97	38.272
720.28	38.300
720.60	38.526
720.91	38.633
721.23	38.754
721.54	38.926
721.86	39.016
722.17	39.229
722.49	39.492
722.81	39.651
723.12	39.961
723.44	40.097
723.75	40.428
724.07	40.690
724.38	40.817
724.70	40.900
725.01	41.047
725.33	41.145
725.64	41.265
725.96	41.269
726.27	41.288
726.59	41.331
726.90	41.475
727.22	41.409
727.53	41.344
727.84	41.369
728.16	41.370
728.47	41.426
728.79	41.488
729.10	41.516
729.42	41.568
729.73	41.798
730.05	41.837
730.36	41.825
730.67	42.060
730.99	42.242
731.30	42.325
731.62	42.522
731.93	42.575
732.24	42.712
732.56	42.868
732.87	42.931
733.19	42.995
733.50	43.100
733.81	43.133
734.13	43.057
734.44	43.092
734.76	43.159
735.07	43.211
735.38	43.229
735.70	43.412
736.01	43.275
736.32	43.319
736.64	43.383
736.95	43.345
737.26	43.437
737.58	43.480
737.89	43.535
738.20	43.631
738.52	43.606
738.83	43.792
739.14	43.718
739.45	43.921
739.77	44.020
740.08	44.106
740.39	44.194
740.71	44.343
741.02	44.476
741.33	44.500
741.64	44.598
741.96	44.608
742.27	44.607
742.58	44.622
742.90	44.722
743.21	44.809
743.52	44.814
743.83	44.959
744.14	44.907
744.46	45.031
744.77	45.061
745.08	44.829
745.39	44.844
745.71	44.871
746.02	44.761
746.33	44.757
746.64	44.838
746.95	44.796
747.27	44.711
747.58	44.701
747.89	44.779
748.20	44.606
748.51	44.741
748.82	44.787
749.14	44.786
749.45	44.883
749.76	44.815
750.07	44.819
750.38	44.727
750.69	44.676
751.01	44.853
751.32	44.668
751.63	44.806
751.94	44.661
752.25	44.552
752.56	44.537
752.87	44.422
753.18	44.526
753.49	44.403
753.81	44.386
754.12	44.330
754.43	44.167
754.74	44.087
755.05	43.942
755.36	44.064
755.67	44.217
755.98	44.166
756.29	44.473
756.60	44.411
756.91	44.494
757.22	44.688
757.53	45.007
757.84	45.117
758.15	45.301
758.46	45.624
758.77	45.639
759.09	45.609
759.40	45.626
759.71	45.522
760.02	45.482
760.33	45.271
760.64	45.117
760.95	45.004
761.26	44.848
761.57	44.750
761.88	44.556
762.18	44.460
762.49	44.481
762.80	44.403
763.11	44.301
763.42	44.176
763.73	44.152
764.04	44.166
764.35	43.959
764.66	43.881
764.97	43.642
765.28	43.401
765.59	43.310
765.90	42.888
766.21	42.649
766.52	42.556
766.83	42.345
767.14	42.144
767.44	41.745
767.75	41.496
768.06	41.523
768.37	41.491
768.68	41.635
768.99	41.414
769.30	41.420
769.61	41.346
769.91	41.025
770.22	40.815
770.53	40.863
770.84	41.086
771.15	41.157
771.46	40.790
771.77	40.723
772.07	40.516
772.38	40.538
772.69	40.492
773.00	40.437
773.31	40.379
773.61	40.455
773.92	40.399
774.23	40.119
774.54	40.088
774.85	39.986
775.15	39.861
775.46	39.614
775.77	39.573
776.08	39.293
776.39	39.035
776.69	39.043
777.00	38.994
777.31	39.009
777.62	38.874
777.92	38.606
778.23	38.711
778.54	38.521
778.85	38.759
779.15	38.630
779.46	38.901
779.77	39.264
780.07	39.354
780.38	39.423
780.69	39.227
781.00	39.429
781.30	39.578
781.61	39.329
781.92	39.564
782.22	39.457
782.53	39.258
782.84	39.397
783.14	39.230
783.45	38.986
783.76	39.237
784.06	39.238
784.37	39.148
784.68	39.353
784.98	39.844
785.29	39.920
785.60	40.195
785.90	40.559
786.21	40.260
786.51	40.421
786.82	40.677
787.13	40.702
787.43	40.670
787.74	40.774
788.04	40.714
788.35	40.634
788.66	40.458
788.96	40.243
789.27	40.279
789.57	40.266
789.88	40.185
790.19	39.974
790.49	39.758
790.80	39.733
791.10	39.620
791.41	39.572
791.71	39.679
792.02	39.792
792.32	39.861
792.63	39.787
792.93	40.065
793.24	39.982
793.54	40.181
793.85	40.357
794.15	40.474
794.46	40.794
794.76	40.757
795.07	40.886
795.37	41.177
795.68	40.993
795.98	41.118
796.29	41.199
796.59	41.204
796.90	41.257
797.20	41.164
797.51	41.277
797.81	40.902
798.12	41.123
798.42	40.834
798.72	40.851
799.03	41.025
799.33	40.680
799.64	40.550
799.94	40.753
800.25	40.179
800.55	40.054
800.85	40.048
801.16	40.116
801.46	39.753
801.77	39.626
802.07	39.486
802.37	39.577
802.68	39.626
802.98	39.928
803.28	39.962
803.59	40.292
803.89	40.404
804.20	40.444
804.50	40.677
804.80	40.834
805.11	41.035
805.41	40.910
805.71	41.191
806.02	41.481
806.32	41.086
806.62	41.165
806.93	41.506
807.23	41.544
807.53	41.427
807.83	41.204
808.14	41.546
808.44	41.520
808.74	41.448
809.05	40.783
809.35	40.546
809.65	40.739
809.95	40.980
810.26	40.802
810.56	40.784
810.86	41.230
811.16	41.653
811.47	41.776
811.77	41.850
812.07	42.015
812.37	42.403
812.68	43.012
812.98	43.081
813.28	43.130
813.58	43.739
813.88	43.669
814.19	43.911
814.49	44.114
814.79	43.889
815.09	44.207
815.39	44.076
815.70	44.483
816.00	44.698
816.30	44.446
816.60	44.277
816.90	44.283
817.20	44.496
817.50	44.325
817.81	43.907
818.11	44.073
818.41	43.958
818.71	44.112
819.01	44.031
819.31	44.138
819.61	44.447
819.92	44.629
820.22	44.864
820.52	45.082
820.82	45.254
821.12	45.637
821.42	45.842
821.72	46.082
822.02	46.384
822.32	46.766
822.62	47.060
822.92	47.261
823.22	47.543
823.52	47.671
823.83	47.752
824.13	47.834
824.43	47.692
824.73	47.796
825.03	47.888
825.33	47.839
825.63	47.641
825.93	47.435
826.23	47.332
826.53	47.084
826.83	46.970
827.13	47.022
827.43	47.179
827.73	47.465
828.03	47.394
828.33	47.400
828.63	47.513
828.93	47.523
829.23	47.198
829.53	47.138
829.83	47.004
830.13	46.818
830.42	46.506
830.72	46.347
831.02	45.959
831.32	45.752
831.62	45.880
831.92	45.563
832.22	45.387
832.52	45.376
832.82	45.422
833.12	45.453
833.42	45.318
833.72	45.403
834.01	45.428
834.31	45.793
834.61	45.872
834.91	45.852
835.21	46.167
835.51	46.487
835.81	46.648
836.11	46.596
836.40	46.410
836.70	46.864
837.00	47.145
837.30	46.376
837.60	46.101
837.90	46.066
838.19	45.402
838.49	45.027
838.79	44.737
839.09	44.705
839.39	44.745
839.68	45.010
839.98	44.742
840.28	44.080
840.58	45.050
840.88	44.778
841.17	44.941
841.47	45.229
841.77	45.010
842.07	44.905
842.36	44.921
842.66	44.192
842.96	43.699
843.26	42.809
843.55	42.741
843.85	41.240
844.15	40.364
844.45	39.044
844.74	39.163
845.04	38.539
845.34	39.285
845.63	39.414
845.93	40.237
846.23	39.926
846.53	39.265
846.82	39.181
847.12	40.459
847.42	41.099
847.71	40.946
848.01	39.444
848.31	39.671
848.60	38.572
848.90	38.784
849.19	38.572
849.49	39.579
849.79	41.388
850.08	42.384
850.38	41.922
850.68	40.310
850.97	41.174
851.27	42.440
851.56	42.228
851.86	40.266
852.16	39.942
852.45	39.110
852.75	38.702
853.04	39.776
853.34	38.138
853.64	39.981
853.93	40.603
854.23	40.541
854.52	41.629
854.82	43.014
855.11	44.693
855.41	45.921
855.70	46.345
856.00	46.400
856.30	44.433
856.59	46.051
856.89	44.771
857.18	46.004
857.48	45.895
857.77	44.024
858.07	44.139
858.36	42.880
858.66	40.790
858.95	40.168
859.25	40.250
859.54	40.178
859.84	40.845
860.13	39.329
860.42	38.986
860.72	37.950
861.01	37.950
861.31	38.340
861.60	39.785
861.90	41.646
862.19	42.364
862.49	41.579
862.78	41.760
863.07	40.577
863.37	40.270
863.66	39.748
863.96	40.734
864.25	41.510
864.54	41.332
864.84	41.640
865.13	41.279
865.43	42.647
865.72	49.361
866.01	54.240
866.31	46.769
866.60	46.678
866.89	56.147
>>>>>End Spectral Data<<<<<
