OOIBase32 Version 2.0.0.6 Data File
++++++++++++++++++++++++++++++++++++
Date: 01-23-2012, 23:15:38
User: Valued Ocean Optics Customer
Spectrometer Serial Number: USB2E2917
Spectrometer Channel: Master
Integration Time (msec): 5
Spectra Averaged: 10
Boxcar Smoothing: 5
Correct for Electrical Dark: Enabled
Time Normalized: Disabled
Dual-beam Reference: Disabled
Reference Channel: Master
Temperature: Not acquired
Spectrometer Type: S2000
ADC Type: USB2000
Number of Pixels in File: 2048
Graph Title: 
>>>>>Begin Spectral Data<<<<<
180.30	0.000
180.67	0.000
181.03	67.689
181.40	566.837
181.77	-3200.841
182.14	48.313
182.51	-305.512
182.88	-108.370
183.25	20.089
183.62	93.620
183.99	228.444
184.36	76.135
184.73	645.957
185.10	47.412
185.46	273.338
185.83	-84.156
186.20	2243.127
186.57	59.803
186.94	17.009
187.31	82.782
187.68	97.352
188.05	72.118
188.42	116.569
188.78	160.636
189.15	537.025
189.52	-80.618
189.89	-12.642
190.26	-3.209
190.63	14.996
191.00	33.548
191.37	53.833
191.73	50.810
192.10	48.956
192.47	44.892
192.84	37.018
193.21	43.172
193.58	43.356
193.94	44.512
194.31	50.965
194.68	42.940
195.05	27.556
195.42	10.568
195.79	6.727
196.15	-8.404
196.52	-11.857
196.89	-9.527
197.26	-13.263
197.63	0.883
198.00	-3.302
198.36	-19.419
198.73	-61.812
199.10	-43.984
199.47	-23.560
199.84	-32.239
200.20	-21.654
200.57	-19.720
200.94	-22.490
201.31	-14.520
201.68	-24.008
202.04	-15.834
202.41	-13.344
202.78	-9.776
203.15	-7.219
203.51	-28.165
203.88	-18.084
204.25	-14.676
204.62	-16.575
204.98	-15.853
205.35	-36.563
205.72	-38.349
206.09	-45.174
206.46	-99.380
206.82	-65.158
207.19	-71.351
207.56	-104.863
207.92	-94.210
208.29	-105.946
208.66	-79.934
209.03	-72.861
209.39	-40.151
209.76	-36.455
210.13	-61.753
210.50	-40.697
210.86	-44.389
211.23	-64.916
211.60	-35.710
211.96	-47.420
212.33	-43.269
212.70	-67.048
213.07	-76.571
213.43	-121.791
213.80	-132.042
214.17	-79.086
214.53	-51.475
214.90	-40.968
215.27	-35.448
215.63	-46.920
216.00	-38.751
216.37	-27.064
216.74	-20.758
217.10	-8.551
217.47	-6.390
217.84	4.358
218.20	4.250
218.57	-3.335
218.94	-3.657
219.30	1.183
219.67	-2.198
220.04	-2.326
220.40	-13.155
220.77	-13.413
221.13	-13.232
221.50	-11.061
221.87	-16.644
222.23	-17.222
222.60	-18.287
222.97	-12.308
223.33	-14.625
223.70	-10.878
224.07	-13.568
224.43	-10.655
224.80	-7.918
225.16	-10.302
225.53	-9.267
225.90	-11.150
226.26	-8.868
226.63	-6.770
226.99	-6.994
227.36	-5.611
227.73	-3.282
228.09	-3.056
228.46	-1.532
228.82	-0.963
229.19	-0.909
229.56	-0.424
229.92	3.459
230.29	4.614
230.65	4.165
231.02	2.492
231.38	1.055
231.75	-0.211
232.12	-0.425
232.48	-2.075
232.85	-2.287
233.21	-2.352
233.58	-5.656
233.94	-7.269
234.31	-8.926
234.68	-8.292
235.04	-7.117
235.41	-5.953
235.77	-4.467
236.14	-4.122
236.50	-2.261
236.87	-2.773
237.23	-1.805
237.60	-0.301
237.96	-0.554
238.33	-1.037
238.69	-1.328
239.06	-1.200
239.42	-0.393
239.79	-1.490
240.15	-1.240
240.52	-1.169
240.88	-1.148
241.25	-1.375
241.61	-1.301
241.98	-1.076
242.34	-1.041
242.71	-0.622
243.07	-0.284
243.44	-0.887
243.80	-0.602
244.17	-0.318
244.53	-0.601
244.90	-0.442
245.26	-0.457
245.63	-0.427
245.99	-0.553
246.36	-0.521
246.72	-0.426
247.09	-0.661
247.45	-0.281
247.81	0.079
248.18	-0.238
248.54	-0.090
248.91	-0.358
249.27	0.273
249.64	0.874
250.00	1.395
250.36	1.186
250.73	0.453
251.09	0.065
251.46	-0.144
251.82	-0.664
252.19	-0.599
252.55	-0.769
252.91	-0.572
253.28	-1.238
253.64	-2.213
254.01	-2.478
254.37	-1.866
254.73	-1.222
255.10	-0.570
255.46	0.091
255.83	0.309
256.19	0.431
256.55	0.506
256.92	0.831
257.28	0.836
257.65	0.942
258.01	1.031
258.37	0.966
258.74	1.051
259.10	0.925
259.46	0.711
259.83	0.770
260.19	0.816
260.55	0.923
260.92	0.701
261.28	0.683
261.64	0.784
262.01	0.726
262.37	0.763
262.73	0.851
263.10	1.144
263.46	1.128
263.82	0.839
264.19	0.936
264.55	0.674
264.91	0.536
265.28	0.632
265.64	0.515
266.00	0.594
266.37	0.794
266.73	0.433
267.09	0.163
267.46	-0.028
267.82	-0.083
268.18	-0.146
268.54	-0.132
268.91	-0.090
269.27	-0.152
269.63	0.011
270.00	0.010
270.36	-0.107
270.72	0.009
271.08	-0.047
271.45	0.067
271.81	0.079
272.17	0.032
272.53	0.139
272.90	0.268
273.26	0.404
273.62	0.192
273.98	-0.075
274.35	-0.192
274.71	-0.103
275.07	0.100
275.43	0.090
275.80	0.295
276.16	0.025
276.52	-0.003
276.88	-0.142
277.25	-0.333
277.61	-0.378
277.97	-0.361
278.33	-0.305
278.69	-0.520
279.06	-0.486
279.42	-0.432
279.78	-0.467
280.14	-0.157
280.50	-0.216
280.87	-0.263
281.23	-0.335
281.59	-0.287
281.95	-0.296
282.31	-0.225
282.68	-0.254
283.04	-0.373
283.40	-0.475
283.76	-0.441
284.12	-0.301
284.48	-0.209
284.85	-0.124
285.21	0.015
285.57	0.090
285.93	0.122
286.29	-0.059
286.65	0.165
287.02	0.569
287.38	0.549
287.74	0.419
288.10	0.258
288.46	0.192
288.82	0.219
289.18	0.241
289.54	0.432
289.91	0.604
290.27	0.831
290.63	0.860
290.99	0.734
291.35	0.967
291.71	1.105
292.07	1.123
292.43	1.031
292.79	1.059
293.16	0.969
293.52	0.865
293.88	0.907
294.24	0.858
294.60	0.714
294.96	0.490
295.32	0.484
295.68	0.492
296.04	0.530
296.40	0.621
296.76	0.665
297.12	0.613
297.49	0.517
297.85	0.398
298.21	0.311
298.57	0.186
298.93	0.265
299.29	0.095
299.65	0.079
300.01	-0.065
300.37	-0.074
300.73	-0.057
301.09	0.055
301.45	0.039
301.81	0.101
302.17	0.172
302.53	0.232
302.89	0.146
303.25	0.292
303.61	0.239
303.97	0.129
304.33	0.153
304.69	0.189
305.05	0.234
305.41	0.222
305.77	0.184
306.13	0.078
306.49	0.140
306.85	0.321
307.21	0.292
307.57	0.392
307.93	0.531
308.29	0.632
308.65	0.541
309.01	0.530
309.37	0.500
309.73	0.518
310.09	0.753
310.45	0.817
310.81	0.750
311.17	0.707
311.53	0.618
311.89	0.645
312.25	0.607
312.61	0.604
312.96	0.619
313.32	0.726
313.68	0.646
314.04	0.476
314.40	0.467
314.76	0.356
315.12	0.265
315.48	0.291
315.84	0.226
316.20	0.153
316.56	0.154
316.92	-0.001
317.27	-0.103
317.63	-0.014
317.99	-0.026
318.35	-0.046
318.71	0.063
319.07	0.230
319.43	0.297
319.79	0.416
320.15	0.419
320.50	0.462
320.86	0.559
321.22	0.611
321.58	0.530
321.94	0.521
322.30	0.516
322.66	0.463
323.01	0.365
323.37	0.277
323.73	0.249
324.09	0.182
324.45	0.214
324.81	0.105
325.17	0.148
325.52	0.221
325.88	0.248
326.24	0.242
326.60	0.254
326.96	0.260
327.31	0.240
327.67	0.213
328.03	0.262
328.39	0.251
328.75	0.380
329.11	0.394
329.46	0.393
329.82	0.401
330.18	0.400
330.54	0.392
330.90	0.379
331.25	0.370
331.61	0.383
331.97	0.359
332.33	0.407
332.68	0.417
333.04	0.403
333.40	0.322
333.76	0.290
334.11	0.335
334.47	0.395
334.83	0.425
335.19	0.447
335.54	0.406
335.90	0.391
336.26	0.329
336.62	0.282
336.97	0.221
337.33	0.252
337.69	0.310
338.05	0.254
338.40	0.239
338.76	0.233
339.12	0.329
339.48	0.379
339.83	0.423
340.19	0.402
340.55	0.493
340.90	0.509
341.26	0.550
341.62	0.575
341.97	0.643
342.33	0.702
342.69	0.742
343.04	0.724
343.40	0.641
343.76	0.642
344.12	0.690
344.47	0.736
344.83	0.859
345.19	0.927
345.54	0.919
345.90	0.945
346.26	1.014
346.61	1.026
346.97	1.080
347.32	1.181
347.68	1.223
348.04	1.222
348.39	1.106
348.75	1.119
349.11	1.132
349.46	1.179
349.82	1.206
350.18	1.220
350.53	1.329
350.89	1.353
351.24	1.396
351.60	1.450
351.96	1.529
352.31	1.610
352.67	1.686
353.02	1.761
353.38	1.793
353.74	1.881
354.09	1.909
354.45	1.996
354.80	2.057
355.16	2.121
355.52	2.219
355.87	2.224
356.23	2.388
356.58	2.433
356.94	2.461
357.29	2.565
357.65	2.561
358.00	2.623
358.36	2.627
358.72	2.675
359.07	2.745
359.43	2.755
359.78	2.888
360.14	2.887
360.49	2.916
360.85	2.994
361.20	3.038
361.56	3.103
361.91	3.150
362.27	3.214
362.62	3.296
362.98	3.380
363.33	3.410
363.69	3.408
364.04	3.480
364.40	3.551
364.75	3.608
365.11	3.648
365.46	3.699
365.82	3.752
366.17	3.809
366.53	3.870
366.88	3.892
367.24	3.980
367.59	4.061
367.95	4.102
368.30	4.164
368.66	4.237
369.01	4.277
369.37	4.341
369.72	4.419
370.08	4.492
370.43	4.502
370.78	4.520
371.14	4.526
371.49	4.556
371.85	4.575
372.20	4.584
372.56	4.556
372.91	4.591
373.26	4.638
373.62	4.630
373.97	4.622
374.33	4.660
374.68	4.699
375.03	4.753
375.39	4.759
375.74	4.772
376.10	4.826
376.45	4.886
376.80	4.897
377.16	4.876
377.51	4.917
377.87	4.918
378.22	4.867
378.57	4.877
378.93	4.933
379.28	5.013
379.63	5.044
379.99	5.059
380.34	5.091
380.70	5.104
381.05	5.161
381.40	5.139
381.76	5.190
382.11	5.303
382.46	5.374
382.82	5.385
383.17	5.367
383.52	5.428
383.88	5.441
384.23	5.427
384.58	5.451
384.94	5.428
385.29	5.493
385.64	5.527
385.99	5.548
386.35	5.550
386.70	5.580
387.05	5.588
387.41	5.570
387.76	5.593
388.11	5.582
388.47	5.589
388.82	5.644
389.17	5.643
389.52	5.651
389.88	5.654
390.23	5.658
390.58	5.659
390.93	5.703
391.29	5.744
391.64	5.730
391.99	5.808
392.34	5.862
392.70	5.865
393.05	5.859
393.40	5.865
393.75	5.856
394.11	5.874
394.46	5.867
394.81	5.843
395.16	5.789
395.52	5.801
395.87	5.742
396.22	5.722
396.57	5.673
396.92	5.598
397.28	5.556
397.63	5.530
397.98	5.487
398.33	5.493
398.68	5.475
399.04	5.509
399.39	5.457
399.74	5.466
400.09	5.418
400.44	5.433
400.80	5.465
401.15	5.450
401.50	5.443
401.85	5.480
402.20	5.429
402.55	5.439
402.90	5.403
403.26	5.390
403.61	5.346
403.96	5.343
404.31	5.318
404.66	5.323
405.01	5.310
405.36	5.300
405.72	5.255
406.07	5.237
406.42	5.175
406.77	5.191
407.12	5.202
407.47	5.201
407.82	5.211
408.17	5.217
408.53	5.201
408.88	5.188
409.23	5.157
409.58	5.121
409.93	5.152
410.28	5.176
410.63	5.107
410.98	5.082
411.33	5.084
411.68	5.066
412.03	5.049
412.38	5.021
412.73	5.034
413.09	5.063
413.44	5.064
413.79	5.080
414.14	5.074
414.49	5.096
414.84	5.119
415.19	5.138
415.54	5.163
415.89	5.173
416.24	5.203
416.59	5.208
416.94	5.201
417.29	5.212
417.64	5.192
417.99	5.215
418.34	5.234
418.69	5.242
419.04	5.220
419.39	5.205
419.74	5.199
420.09	5.202
420.44	5.199
420.79	5.196
421.14	5.196
421.49	5.204
421.84	5.184
422.19	5.184
422.54	5.176
422.89	5.178
423.24	5.169
423.59	5.167
423.94	5.144
424.29	5.132
424.64	5.136
424.99	5.120
425.34	5.091
425.68	5.090
426.03	5.049
426.38	5.020
426.73	4.986
427.08	4.964
427.43	4.958
427.78	4.958
428.13	4.932
428.48	4.915
428.83	4.890
429.18	4.887
429.53	4.866
429.87	4.867
430.22	4.848
430.57	4.886
430.92	4.879
431.27	4.876
431.62	4.838
431.97	4.853
432.32	4.842
432.67	4.834
433.01	4.808
433.36	4.787
433.71	4.782
434.06	4.773
434.41	4.736
434.76	4.750
435.11	4.733
435.45	4.740
435.80	4.722
436.15	4.718
436.50	4.751
436.85	4.765
437.20	4.781
437.54	4.767
437.89	4.792
438.24	4.819
438.59	4.820
438.94	4.818
439.29	4.824
439.63	4.848
439.98	4.876
440.33	4.886
440.68	4.921
441.03	4.948
441.37	4.993
441.72	5.019
442.07	5.022
442.42	5.041
442.76	5.068
443.11	5.104
443.46	5.136
443.81	5.156
444.16	5.178
444.50	5.183
444.85	5.187
445.20	5.200
445.55	5.210
445.89	5.235
446.24	5.262
446.59	5.272
446.94	5.299
447.28	5.316
447.63	5.332
447.98	5.351
448.32	5.379
448.67	5.406
449.02	5.414
449.37	5.423
449.71	5.456
450.06	5.455
450.41	5.493
450.75	5.494
451.10	5.498
451.45	5.488
451.79	5.492
452.14	5.500
452.49	5.519
452.84	5.538
453.18	5.559
453.53	5.534
453.88	5.538
454.22	5.545
454.57	5.575
454.92	5.581
455.26	5.612
455.61	5.649
455.95	5.679
456.30	5.690
456.65	5.709
456.99	5.730
457.34	5.748
457.69	5.785
458.03	5.788
458.38	5.792
458.73	5.805
459.07	5.796
459.42	5.780
459.76	5.756
460.11	5.739
460.46	5.713
460.80	5.682
461.15	5.681
461.49	5.650
461.84	5.646
462.19	5.621
462.53	5.619
462.88	5.627
463.22	5.606
463.57	5.619
463.91	5.626
464.26	5.633
464.61	5.637
464.95	5.623
465.30	5.609
465.64	5.614
465.99	5.628
466.33	5.609
466.68	5.601
467.02	5.592
467.37	5.574
467.71	5.551
468.06	5.550
468.41	5.547
468.75	5.540
469.10	5.550
469.44	5.524
469.79	5.498
470.13	5.462
470.48	5.446
470.82	5.449
471.17	5.457
471.51	5.453
471.86	5.443
472.20	5.445
472.55	5.434
472.89	5.427
473.23	5.424
473.58	5.433
473.92	5.459
474.27	5.458
474.61	5.441
474.96	5.432
475.30	5.441
475.65	5.434
475.99	5.432
476.34	5.439
476.68	5.427
477.02	5.443
477.37	5.465
477.71	5.496
478.06	5.533
478.40	5.632
478.75	5.727
479.09	5.840
479.43	5.959
479.78	6.106
480.12	6.261
480.47	6.422
480.81	6.565
481.15	6.704
481.50	6.850
481.84	7.018
482.19	7.172
482.53	7.302
482.87	7.384
483.22	7.394
483.56	7.323
483.90	7.201
484.25	7.059
484.59	6.903
484.94	6.765
485.28	6.635
485.62	6.484
485.97	6.328
486.31	6.200
486.65	6.111
487.00	6.084
487.34	6.117
487.68	6.183
488.03	6.248
488.37	6.332
488.71	6.383
489.06	6.405
489.40	6.436
489.74	6.450
490.09	6.459
490.43	6.457
490.77	6.452
491.11	6.440
491.46	6.433
491.80	6.437
492.14	6.422
492.49	6.435
492.83	6.438
493.17	6.425
493.51	6.435
493.86	6.449
494.20	6.479
494.54	6.516
494.88	6.576
495.23	6.641
495.57	6.697
495.91	6.781
496.25	6.842
496.60	6.918
496.94	6.972
497.28	7.037
497.62	7.099
497.97	7.167
498.31	7.261
498.65	7.313
498.99	7.359
499.33	7.461
499.68	7.536
500.02	7.617
500.36	7.690
500.70	7.785
501.04	7.862
501.39	7.944
501.73	8.040
502.07	8.134
502.41	8.249
502.75	8.384
503.09	8.480
503.44	8.578
503.78	8.667
504.12	8.779
504.46	8.884
504.80	9.012
505.14	9.151
505.49	9.280
505.83	9.389
506.17	9.497
506.51	9.609
506.85	9.721
507.19	9.841
507.53	9.956
507.87	10.066
508.22	10.182
508.56	10.295
508.90	10.374
509.24	10.466
509.58	10.585
509.92	10.718
510.26	10.815
510.60	10.925
510.94	11.029
511.28	11.144
511.63	11.261
511.97	11.394
512.31	11.517
512.65	11.658
512.99	11.812
513.33	11.965
513.67	12.104
514.01	12.278
514.35	12.454
514.69	12.632
515.03	12.790
515.37	12.964
515.71	13.103
516.05	13.246
516.39	13.385
516.73	13.522
517.07	13.638
517.41	13.723
517.75	13.824
518.09	13.898
518.43	13.978
518.77	14.067
519.11	14.133
519.45	14.206
519.79	14.303
520.13	14.395
520.47	14.497
520.81	14.609
521.15	14.769
521.49	14.892
521.83	15.034
522.17	15.161
522.51	15.298
522.85	15.466
523.19	15.660
523.53	15.874
523.87	16.124
524.21	16.357
524.55	16.568
524.89	16.772
525.23	16.975
525.57	17.157
525.91	17.329
526.25	17.483
526.58	17.612
526.92	17.717
527.26	17.781
527.60	17.802
527.94	17.810
528.28	17.817
528.62	17.784
528.96	17.764
529.30	17.737
529.64	17.702
529.97	17.666
530.31	17.629
530.65	17.616
530.99	17.609
531.33	17.635
531.67	17.666
532.01	17.702
532.35	17.741
532.68	17.743
533.02	17.745
533.36	17.749
533.70	17.752
534.04	17.755
534.38	17.736
534.71	17.730
535.05	17.715
535.39	17.686
535.73	17.673
536.07	17.687
536.41	17.697
536.74	17.726
537.08	17.753
537.42	17.825
537.76	17.882
538.10	17.955
538.43	18.016
538.77	18.086
539.11	18.149
539.45	18.207
539.79	18.253
540.12	18.305
540.46	18.318
540.80	18.324
541.14	18.301
541.47	18.270
541.81	18.240
542.15	18.218
542.49	18.164
542.82	18.128
543.16	18.072
543.50	18.017
543.84	17.970
544.17	17.950
544.51	17.940
544.85	17.901
545.18	17.900
545.52	17.896
545.86	17.876
546.20	17.874
546.53	17.849
546.87	17.837
547.21	17.812
547.54	17.782
547.88	17.782
548.22	17.737
548.55	17.767
548.89	17.764
549.23	17.749
549.56	17.758
549.90	17.790
550.24	17.791
550.57	17.799
550.91	17.798
551.25	17.814
551.58	17.796
551.92	17.824
552.26	17.806
552.59	17.794
552.93	17.778
553.27	17.773
553.60	17.718
553.94	17.697
554.27	17.675
554.61	17.684
554.95	17.658
555.28	17.640
555.62	17.620
555.95	17.594
556.29	17.584
556.63	17.553
556.96	17.511
557.30	17.493
557.63	17.478
557.97	17.438
558.31	17.389
558.64	17.345
558.98	17.303
559.31	17.287
559.65	17.242
559.98	17.198
560.32	17.173
560.65	17.128
560.99	17.070
561.33	17.025
561.66	16.994
562.00	16.958
562.33	16.933
562.67	16.884
563.00	16.823
563.34	16.781
563.67	16.741
564.01	16.690
564.34	16.651
564.68	16.625
565.01	16.574
565.35	16.498
565.68	16.435
566.02	16.368
566.35	16.305
566.69	16.220
567.02	16.146
567.36	16.050
567.69	15.989
568.03	15.916
568.36	15.836
568.69	15.767
569.03	15.720
569.36	15.655
569.70	15.593
570.03	15.553
570.37	15.496
570.70	15.480
571.04	15.450
571.37	15.377
571.70	15.335
572.04	15.273
572.37	15.223
572.71	15.148
573.04	15.097
573.37	15.051
573.71	14.998
574.04	14.952
574.38	14.876
574.71	14.818
575.04	14.780
575.38	14.706
575.71	14.655
576.05	14.598
576.38	14.579
576.71	14.502
577.05	14.449
577.38	14.375
577.71	14.322
578.05	14.273
578.38	14.202
578.71	14.132
579.05	14.073
579.38	14.018
579.71	13.953
580.05	13.850
580.38	13.820
580.71	13.745
581.05	13.711
581.38	13.666
581.71	13.605
582.05	13.582
582.38	13.550
582.71	13.488
583.04	13.475
583.38	13.451
583.71	13.438
584.04	13.416
584.38	13.418
584.71	13.385
585.04	13.368
585.37	13.336
585.71	13.312
586.04	13.282
586.37	13.308
586.70	13.280
587.04	13.287
587.37	13.280
587.70	13.256
588.03	13.208
588.37	13.205
588.70	13.197
589.03	13.169
589.36	13.155
589.69	13.122
590.03	13.075
590.36	13.021
590.69	12.940
591.02	12.903
591.35	12.871
591.69	12.870
592.02	12.819
592.35	12.794
592.68	12.790
593.01	12.725
593.35	12.712
593.68	12.701
594.01	12.694
594.34	12.696
594.67	12.677
595.00	12.641
595.34	12.608
595.67	12.587
596.00	12.570
596.33	12.527
596.66	12.532
596.99	12.482
597.32	12.431
597.65	12.412
597.99	12.361
598.32	12.303
598.65	12.265
598.98	12.189
599.31	12.138
599.64	12.084
599.97	12.060
600.30	12.026
600.63	12.015
600.96	12.022
601.30	12.006
601.63	12.016
601.96	12.013
602.29	12.011
602.62	11.995
602.95	11.998
603.28	11.988
603.61	11.968
603.94	11.916
604.27	11.893
604.60	11.858
604.93	11.837
605.26	11.779
605.59	11.745
605.92	11.707
606.25	11.684
606.58	11.649
606.91	11.569
607.24	11.522
607.57	11.514
607.90	11.460
608.23	11.373
608.56	11.322
608.89	11.298
609.22	11.273
609.55	11.215
609.88	11.165
610.21	11.098
610.54	11.078
610.87	11.027
611.20	10.965
611.53	10.932
611.86	10.912
612.19	10.848
612.52	10.764
612.85	10.707
613.18	10.660
613.51	10.607
613.84	10.562
614.17	10.504
614.49	10.486
614.82	10.400
615.15	10.363
615.48	10.337
615.81	10.292
616.14	10.272
616.47	10.202
616.80	10.168
617.13	10.139
617.46	10.068
617.78	10.049
618.11	10.014
618.44	10.029
618.77	9.968
619.10	9.919
619.43	9.885
619.76	9.818
620.09	9.832
620.41	9.817
620.74	9.817
621.07	9.839
621.40	9.823
621.73	9.795
622.06	9.795
622.38	9.826
622.71	9.827
623.04	9.861
623.37	9.899
623.70	9.891
624.02	9.905
624.35	9.911
624.68	9.905
625.01	9.940
625.34	9.995
625.66	9.986
625.99	9.993
626.32	10.006
626.65	9.999
626.98	10.008
627.30	9.995
627.63	9.982
627.96	9.937
628.29	9.918
628.61	9.873
628.94	9.807
629.27	9.788
629.60	9.746
629.92	9.686
630.25	9.642
630.58	9.577
630.91	9.554
631.23	9.485
631.56	9.457
631.89	9.424
632.21	9.374
632.54	9.297
632.87	9.230
633.19	9.194
633.52	9.174
633.85	9.095
634.18	9.047
634.50	8.949
634.83	8.923
635.16	8.846
635.48	8.735
635.81	8.650
636.14	8.565
636.46	8.501
636.79	8.408
637.11	8.272
637.44	8.149
637.77	8.058
638.09	7.982
638.42	7.860
638.75	7.780
639.07	7.742
639.40	7.644
639.73	7.581
640.05	7.455
640.38	7.360
640.70	7.290
641.03	7.256
641.36	7.173
641.68	7.110
642.01	7.052
642.33	7.000
642.66	6.913
642.98	6.846
643.31	6.789
643.64	6.768
643.96	6.738
644.29	6.724
644.61	6.668
644.94	6.670
645.26	6.657
645.59	6.652
645.91	6.647
646.24	6.621
646.56	6.607
646.89	6.608
647.22	6.607
647.54	6.573
647.87	6.565
648.19	6.587
648.52	6.534
648.84	6.472
649.17	6.400
649.49	6.344
649.82	6.336
650.14	6.336
650.47	6.307
650.79	6.274
651.11	6.258
651.44	6.268
651.76	6.228
652.09	6.263
652.41	6.315
652.74	6.328
653.06	6.388
653.39	6.395
653.71	6.410
654.04	6.383
654.36	6.398
654.68	6.413
655.01	6.411
655.33	6.429
655.66	6.372
655.98	6.358
656.30	6.366
656.63	6.314
656.95	6.310
657.28	6.272
657.60	6.248
657.92	6.202
658.25	6.160
658.57	6.113
658.90	6.063
659.22	6.044
659.54	5.988
659.87	5.932
660.19	5.821
660.51	5.735
660.84	5.696
661.16	5.664
661.48	5.628
661.81	5.621
662.13	5.540
662.45	5.511
662.78	5.492
663.10	5.500
663.42	5.519
663.75	5.591
664.07	5.621
664.39	5.620
664.72	5.606
665.04	5.638
665.36	5.610
665.69	5.661
666.01	5.703
666.33	5.736
666.65	5.775
666.98	5.850
667.30	5.913
667.62	5.988
667.94	6.029
668.27	6.153
668.59	6.239
668.91	6.374
669.23	6.500
669.56	6.584
669.88	6.772
670.20	6.871
670.52	6.977
670.85	7.117
671.17	7.242
671.49	7.415
671.81	7.570
672.13	7.657
672.46	7.828
672.78	8.003
673.10	8.168
673.42	8.244
673.74	8.439
674.07	8.570
674.39	8.712
674.71	8.874
675.03	9.067
675.35	9.246
675.67	9.461
676.00	9.570
676.32	9.683
676.64	9.849
676.96	10.032
677.28	10.167
677.60	10.332
677.92	10.520
678.25	10.661
678.57	10.797
678.89	10.904
679.21	11.062
679.53	11.206
679.85	11.390
680.17	11.578
680.49	11.751
680.81	11.991
681.13	12.202
681.46	12.379
681.78	12.688
682.10	12.901
682.42	13.183
682.74	13.419
683.06	13.723
683.38	14.012
683.70	14.237
684.02	14.548
684.34	14.735
684.66	14.990
684.98	15.253
685.30	15.389
685.62	15.689
685.94	15.839
686.26	15.956
686.58	16.093
686.90	16.199
687.22	16.403
687.54	16.528
687.86	16.646
688.18	16.788
688.50	16.913
688.82	17.073
689.14	17.127
689.46	17.335
689.78	17.571
690.10	17.757
690.42	17.969
690.74	18.124
691.06	18.232
691.38	18.478
691.70	18.629
692.02	18.790
692.34	18.979
692.66	19.118
692.98	19.338
693.30	19.524
693.62	19.630
693.94	19.734
694.26	19.762
694.57	19.938
694.89	20.050
695.21	20.129
695.53	20.273
695.85	20.327
696.17	20.464
696.49	20.461
696.81	20.599
697.13	20.784
697.44	20.910
697.76	21.133
698.08	21.362
698.40	21.529
698.72	21.753
699.04	21.928
699.36	22.230
699.67	22.484
699.99	22.785
700.31	22.960
700.63	23.177
700.95	23.479
701.27	23.676
701.58	23.749
701.90	23.882
702.22	24.054
702.54	24.292
702.86	24.455
703.17	24.663
703.49	24.866
703.81	25.108
704.13	25.316
704.45	25.452
704.76	25.693
705.08	25.907
705.40	26.191
705.72	26.402
706.03	26.565
706.35	26.670
706.67	26.838
706.99	27.049
707.30	27.211
707.62	27.345
707.94	27.549
708.26	27.644
708.57	27.811
708.89	27.888
709.21	28.032
709.53	28.178
709.84	28.419
710.16	28.540
710.48	28.694
710.79	28.918
711.11	29.035
711.43	29.153
711.74	29.406
712.06	29.537
712.38	29.727
712.69	29.904
713.01	30.109
713.33	30.258
713.64	30.629
713.96	30.824
714.28	31.025
714.59	31.344
714.91	31.669
715.23	31.931
715.54	32.124
715.86	32.418
716.17	32.742
716.49	33.038
716.81	33.292
717.12	33.382
717.44	33.721
717.76	33.953
718.07	34.112
718.39	34.283
718.70	34.417
719.02	34.632
719.33	34.783
719.65	34.802
719.97	34.774
720.28	34.942
720.60	35.053
720.91	35.077
721.23	35.228
721.54	35.374
721.86	35.590
722.17	35.748
722.49	36.003
722.81	35.999
723.12	36.281
723.44	36.593
723.75	36.745
724.07	37.006
724.38	37.201
724.70	37.303
725.01	37.507
725.33	37.580
725.64	37.722
725.96	37.815
726.27	37.919
726.59	38.005
726.90	38.071
727.22	38.044
727.53	38.057
727.84	38.047
728.16	38.031
728.47	38.090
728.79	38.040
729.10	38.048
729.42	38.029
729.73	38.135
730.05	38.216
730.36	38.200
730.67	38.410
730.99	38.400
731.30	38.487
731.62	38.690
731.93	38.777
732.24	38.874
732.56	38.949
732.87	39.192
733.19	39.377
733.50	39.434
733.81	39.543
734.13	39.540
734.44	39.601
734.76	39.565
735.07	39.561
735.38	39.450
735.70	39.575
736.01	39.657
736.32	39.599
736.64	39.765
736.95	39.700
737.26	39.809
737.58	39.873
737.89	39.916
738.20	40.044
738.52	40.035
738.83	40.181
739.14	40.078
739.45	40.066
739.77	40.136
740.08	40.040
740.39	40.069
740.71	40.053
741.02	39.989
741.33	39.985
741.64	39.866
741.96	39.909
742.27	39.886
742.58	40.025
742.90	39.911
743.21	39.965
743.52	40.113
743.83	40.222
744.14	40.143
744.46	40.311
744.77	40.419
745.08	40.538
745.39	40.439
745.71	40.348
746.02	40.427
746.33	40.568
746.64	40.385
746.95	40.262
747.27	40.179
747.58	40.177
747.89	40.100
748.20	40.048
748.51	40.249
748.82	40.191
749.14	40.293
749.45	40.334
749.76	40.397
750.07	40.540
750.38	40.651
750.69	40.606
751.01	40.739
751.32	40.479
751.63	40.738
751.94	40.372
752.25	40.427
752.56	40.353
752.87	40.240
753.18	40.169
753.49	40.030
753.81	39.980
754.12	40.002
754.43	39.988
754.74	40.096
755.05	39.887
755.36	39.989
755.67	40.185
755.98	40.452
756.29	40.387
756.60	40.456
756.91	40.672
757.22	40.726
757.53	41.002
757.84	41.118
758.15	41.381
758.46	41.672
758.77	41.889
759.09	41.898
759.40	41.821
759.71	41.934
760.02	41.973
760.33	41.870
760.64	41.873
760.95	41.726
761.26	41.606
761.57	41.536
761.88	41.456
762.18	41.367
762.49	41.265
762.80	41.261
763.11	41.169
763.42	40.980
763.73	40.880
764.04	40.879
764.35	40.889
764.66	40.806
764.97	40.665
765.28	40.395
765.59	40.230
765.90	40.016
766.21	39.700
766.52	39.499
766.83	39.418
767.14	39.324
767.44	38.888
767.75	38.422
768.06	38.373
768.37	38.034
768.68	37.877
768.99	37.551
769.30	37.573
769.61	37.299
769.91	37.364
770.22	37.056
770.53	36.908
770.84	36.823
771.15	36.859
771.46	36.492
771.77	36.502
772.07	36.454
772.38	36.442
772.69	36.350
773.00	36.589
773.31	36.295
773.61	36.280
773.92	36.343
774.23	36.207
774.54	36.206
774.85	36.163
775.15	36.064
775.46	35.926
775.77	36.059
776.08	35.854
776.39	35.560
776.69	35.531
777.00	35.942
777.31	35.913
777.62	35.835
777.92	35.627
778.23	35.826
778.54	35.887
778.85	35.980
779.15	35.894
779.46	35.990
779.77	36.227
780.07	36.371
780.38	36.296
780.69	36.228
781.00	36.292
781.30	36.546
781.61	36.456
781.92	36.830
782.22	37.092
782.53	36.952
782.84	36.956
783.14	36.980
783.45	36.881
783.76	36.937
784.06	37.094
784.37	37.114
784.68	37.176
784.98	37.294
785.29	37.145
785.60	37.094
785.90	37.550
786.21	37.504
786.51	37.270
786.82	37.473
787.13	37.415
787.43	37.594
787.74	37.742
788.04	37.862
788.35	37.788
788.66	37.667
788.96	37.546
789.27	37.373
789.57	37.433
789.88	37.848
790.19	37.690
790.49	37.560
790.80	37.312
791.10	37.331
791.41	37.096
791.71	37.128
792.02	37.155
792.32	36.911
792.63	36.828
792.93	36.997
793.24	36.877
793.54	37.032
793.85	37.012
794.15	37.113
794.46	37.174
794.76	37.282
795.07	37.503
795.37	37.508
795.68	37.457
795.98	37.562
796.29	37.921
796.59	37.857
796.90	37.689
797.20	37.590
797.51	37.266
797.81	36.972
798.12	36.908
798.42	36.860
798.72	37.143
799.03	37.491
799.33	37.556
799.64	37.042
799.94	37.080
800.25	37.038
800.55	37.470
800.85	37.693
801.16	37.799
801.46	37.827
801.77	37.583
802.07	37.568
802.37	37.584
802.68	37.213
802.98	37.263
803.28	37.300
803.59	37.748
803.89	37.462
804.20	37.591
804.50	37.551
804.80	37.554
805.11	37.628
805.41	37.321
805.71	37.552
806.02	37.692
806.32	37.653
806.62	37.768
806.93	37.781
807.23	38.202
807.53	38.298
807.83	38.566
808.14	38.655
808.44	38.739
808.74	39.029
809.05	39.012
809.35	38.829
809.65	39.136
809.95	39.161
810.26	38.849
810.56	38.612
810.86	38.954
811.16	39.376
811.47	39.949
811.77	40.316
812.07	40.174
812.37	40.034
812.68	40.672
812.98	40.815
813.28	41.123
813.58	41.858
813.88	41.758
814.19	41.748
814.49	41.789
814.79	41.589
815.09	41.714
815.39	41.865
815.70	42.015
816.00	42.070
816.30	42.175
816.60	41.834
816.90	41.577
817.20	41.984
817.50	41.958
817.81	41.562
818.11	41.402
818.41	41.352
818.71	41.345
819.01	41.455
819.31	41.705
819.61	41.822
819.92	42.062
820.22	42.329
820.52	42.389
820.82	42.578
821.12	42.874
821.42	43.159
821.72	43.337
822.02	43.637
822.32	43.940
822.62	44.133
822.92	44.283
823.22	44.492
823.52	44.643
823.83	44.806
824.13	44.754
824.43	44.700
824.73	44.698
825.03	44.616
825.33	44.516
825.63	44.230
825.93	43.943
826.23	43.896
826.53	43.710
826.83	43.413
827.13	43.557
827.43	43.725
827.73	43.891
828.03	43.963
828.33	44.329
828.63	44.389
828.93	44.391
829.23	44.630
829.53	44.591
829.83	44.412
830.13	44.224
830.42	43.704
830.72	43.237
831.02	43.016
831.32	42.758
831.62	42.601
831.92	42.448
832.22	42.561
832.52	42.236
832.82	42.325
833.12	42.376
833.42	42.719
833.72	42.790
834.01	43.141
834.31	43.217
834.61	43.140
834.91	43.332
835.21	43.472
835.51	43.634
835.81	43.926
836.11	43.808
836.40	43.616
836.70	43.421
837.00	43.498
837.30	43.151
837.60	42.764
837.90	43.264
838.19	42.312
838.49	41.908
838.79	41.611
839.09	41.422
839.39	41.819
839.68	41.919
839.98	40.846
840.28	40.694
840.58	41.107
840.88	41.067
841.17	39.202
841.47	39.473
841.77	39.835
842.07	39.894
842.36	40.055
842.66	38.821
842.96	38.955
843.26	39.931
843.55	39.460
843.85	38.845
844.15	39.555
844.45	41.105
844.74	41.158
845.04	40.688
845.34	39.863
845.63	38.921
845.93	39.131
846.23	39.742
846.53	39.543
846.82	39.315
847.12	38.178
847.42	37.410
847.71	37.530
848.01	36.857
848.31	36.299
848.60	35.691
848.90	35.946
849.19	36.310
849.49	35.214
849.79	35.492
850.08	35.343
850.38	35.098
850.68	34.841
850.97	35.930
851.27	35.952
851.56	35.892
851.86	35.445
852.16	36.907
852.45	35.406
852.75	35.733
853.04	35.858
853.34	36.015
853.64	37.527
853.93	37.694
854.23	37.003
854.52	37.497
854.82	37.939
855.11	39.483
855.41	39.118
855.70	40.330
856.00	39.934
856.30	38.886
856.59	39.303
856.89	39.192
857.18	39.684
857.48	38.789
857.77	38.073
858.07	38.459
858.36	37.387
858.66	36.160
858.95	35.938
859.25	36.948
859.54	36.292
859.84	35.497
860.13	33.964
860.42	33.076
860.72	32.749
861.01	33.946
861.31	34.917
861.60	35.510
861.90	36.289
862.19	36.593
862.49	34.342
862.78	35.360
863.07	35.287
863.37	37.536
863.66	37.595
863.96	39.655
864.25	40.060
864.54	40.077
864.84	42.062
865.13	40.744
865.43	40.819
865.72	50.626
866.01	51.872
866.31	58.426
866.60	27.306
866.89	40.211
>>>>>End Spectral Data<<<<<
