OOIBase32 Version 2.0.0.6 Data File
++++++++++++++++++++++++++++++++++++
Date: 01-23-2012, 23:15:46
User: Valued Ocean Optics Customer
Spectrometer Serial Number: USB2E2917
Spectrometer Channel: Master
Integration Time (msec): 5
Spectra Averaged: 10
Boxcar Smoothing: 5
Correct for Electrical Dark: Enabled
Time Normalized: Disabled
Dual-beam Reference: Disabled
Reference Channel: Master
Temperature: Not acquired
Spectrometer Type: S2000
ADC Type: USB2000
Number of Pixels in File: 2048
Graph Title: 
>>>>>Begin Spectral Data<<<<<
180.30	0.000
180.67	0.000
181.03	9.730
181.40	405.979
181.77	-6322.248
182.14	79.922
182.51	-615.200
182.88	53.001
183.25	33.390
183.62	12.466
183.99	271.603
184.36	-65.882
184.73	341.233
185.10	-19.808
185.46	437.249
185.83	116.656
186.20	1700.500
186.57	24.527
186.94	-5.355
187.31	26.196
187.68	-20.803
188.05	46.965
188.42	121.387
188.78	222.786
189.15	646.193
189.52	-138.517
189.89	-58.677
190.26	-35.395
190.63	-14.000
191.00	0.570
191.37	7.179
191.73	20.221
192.10	16.602
192.47	15.711
192.84	18.100
193.21	23.196
193.58	13.979
193.94	3.248
194.31	-9.683
194.68	-16.337
195.05	-19.879
195.42	-20.120
195.79	-42.241
196.15	-48.446
196.52	-59.835
196.89	-75.780
197.26	-90.641
197.63	-70.959
198.00	-33.157
198.36	-5.952
198.73	-5.221
199.10	-8.599
199.47	-6.952
199.84	-3.613
200.20	-1.773
200.57	17.524
200.94	20.009
201.31	27.539
201.68	17.272
202.04	3.706
202.41	-21.739
202.78	-39.513
203.15	-39.635
203.51	-39.629
203.88	-41.844
204.25	-36.951
204.62	-67.986
204.98	-92.962
205.35	-86.337
205.72	-88.098
206.09	-85.586
206.46	-125.911
206.82	-83.601
207.19	-88.367
207.56	-146.056
207.92	-106.214
208.29	-125.598
208.66	-58.173
209.03	-39.234
209.39	-21.561
209.76	-32.578
210.13	-80.015
210.50	-46.384
210.86	-51.491
211.23	-64.619
211.60	-29.555
211.96	-47.186
212.33	-38.622
212.70	-51.945
213.07	-63.310
213.43	-111.257
213.80	-89.219
214.17	-39.016
214.53	-25.231
214.90	-24.903
215.27	-16.496
215.63	-31.906
216.00	-32.632
216.37	-30.364
216.74	-52.054
217.10	-36.617
217.47	-25.788
217.84	-13.956
218.20	-19.634
218.57	-20.589
218.94	-14.418
219.30	-18.477
219.67	-19.982
220.04	-8.358
220.40	-9.071
220.77	-1.416
221.13	4.652
221.50	5.241
221.87	-1.899
222.23	-5.197
222.60	-14.520
222.97	-16.429
223.33	-9.185
223.70	-2.982
224.07	-8.130
224.43	-8.684
224.80	-7.931
225.16	-11.868
225.53	-11.125
225.90	-10.860
226.26	-7.957
226.63	-5.411
226.99	-4.039
227.36	-3.364
227.73	-2.450
228.09	-2.128
228.46	-0.899
228.82	-0.863
229.19	-0.590
229.56	-1.155
229.92	0.486
230.29	1.300
230.65	1.489
231.02	-2.110
231.38	-6.084
231.75	-7.415
232.12	-7.622
232.48	-10.115
232.85	-10.434
233.21	-10.175
233.58	-11.803
233.94	-12.053
234.31	-13.089
234.68	-11.350
235.04	-8.260
235.41	-5.839
235.77	-5.072
236.14	-4.505
236.50	-2.791
236.87	-1.924
237.23	-1.489
237.60	-0.463
237.96	-0.666
238.33	-0.335
238.69	-1.422
239.06	-1.271
239.42	-1.127
239.79	-1.770
240.15	-1.516
240.52	-0.739
240.88	-0.132
241.25	-0.696
241.61	-0.807
241.98	-0.729
242.34	-0.919
242.71	-0.616
243.07	-0.566
243.44	-0.680
243.80	-0.435
244.17	-0.595
244.53	-1.233
244.90	-1.271
245.26	-0.942
245.63	-0.777
245.99	-0.916
246.36	-0.980
246.72	-0.879
247.09	-1.182
247.45	-1.085
247.81	-1.025
248.18	-1.028
248.54	-0.774
248.91	-1.049
249.27	-0.720
249.64	-0.557
250.00	-0.356
250.36	-0.271
250.73	-0.610
251.09	-0.307
251.46	-0.682
251.82	-0.788
252.19	-0.543
252.55	-0.542
252.91	-0.462
253.28	-0.742
253.64	-1.232
254.01	-1.012
254.37	-0.510
254.73	0.522
255.10	0.930
255.46	1.460
255.83	1.432
256.19	1.299
256.55	1.143
256.92	1.138
257.28	0.910
257.65	1.073
258.01	0.951
258.37	0.673
258.74	0.250
259.10	-0.063
259.46	-0.334
259.83	-0.222
260.19	-0.292
260.55	-0.346
260.92	-0.615
261.28	-0.637
261.64	-0.878
262.01	-0.996
262.37	-0.822
262.73	-0.621
263.10	-0.432
263.46	-0.182
263.82	-0.578
264.19	-0.657
264.55	-1.034
264.91	-1.143
265.28	-1.097
265.64	-0.965
266.00	-0.854
266.37	-0.900
266.73	-0.852
267.09	-0.569
267.46	-0.500
267.82	-0.500
268.18	-0.326
268.54	0.113
268.91	0.256
269.27	0.183
269.63	0.342
270.00	0.319
270.36	0.237
270.72	0.276
271.08	-0.009
271.45	-0.198
271.81	-0.101
272.17	-0.257
272.53	-0.207
272.90	-0.027
273.26	0.097
273.62	-0.052
273.98	-0.171
274.35	-0.180
274.71	-0.239
275.07	0.009
275.43	0.054
275.80	0.035
276.16	0.119
276.52	-0.042
276.88	-0.253
277.25	-0.512
277.61	-0.676
277.97	-0.658
278.33	-0.557
278.69	-0.749
279.06	-0.695
279.42	-0.642
279.78	-0.509
280.14	-0.401
280.50	-0.192
280.87	-0.170
281.23	-0.059
281.59	0.174
281.95	0.335
282.31	0.378
282.68	0.309
283.04	0.042
283.40	0.028
283.76	-0.011
284.12	0.010
284.48	-0.019
284.85	0.018
285.21	0.047
285.57	-0.139
285.93	-0.077
286.29	-0.239
286.65	-0.052
287.02	0.203
287.38	0.091
287.74	-0.050
288.10	-0.132
288.46	-0.252
288.82	-0.170
289.18	-0.034
289.54	0.034
289.91	-0.154
290.27	-0.058
290.63	-0.064
290.99	-0.135
291.35	-0.017
291.71	0.168
292.07	0.105
292.43	0.081
292.79	0.047
293.16	-0.117
293.52	0.027
293.88	0.173
294.24	0.245
294.60	0.202
294.96	0.231
295.32	0.364
295.68	0.428
296.04	0.405
296.40	0.377
296.76	0.331
297.12	0.206
297.49	0.035
297.85	-0.141
298.21	-0.154
298.57	-0.317
298.93	-0.442
299.29	-0.675
299.65	-0.700
300.01	-0.555
300.37	-0.415
300.73	-0.297
301.09	-0.131
301.45	-0.102
301.81	-0.042
302.17	-0.108
302.53	-0.165
302.89	-0.169
303.25	-0.110
303.61	-0.307
303.97	-0.480
304.33	-0.620
304.69	-0.620
305.05	-0.701
305.41	-0.681
305.77	-0.610
306.13	-0.564
306.49	-0.463
306.85	-0.358
307.21	-0.311
307.57	-0.182
307.93	-0.193
308.29	-0.026
308.65	-0.064
309.01	0.022
309.37	0.133
309.73	0.055
310.09	0.120
310.45	0.282
310.81	0.247
311.17	0.231
311.53	0.195
311.89	0.345
312.25	0.244
312.61	0.251
312.96	0.283
313.32	0.188
313.68	0.116
314.04	0.082
314.40	0.092
314.76	0.024
315.12	-0.064
315.48	-0.073
315.84	-0.173
316.20	-0.137
316.56	-0.256
316.92	-0.368
317.27	-0.396
317.63	-0.250
317.99	-0.266
318.35	-0.407
318.71	-0.301
319.07	-0.196
319.43	-0.185
319.79	-0.186
320.15	-0.242
320.50	-0.176
320.86	-0.118
321.22	-0.096
321.58	-0.191
321.94	-0.312
322.30	-0.391
322.66	-0.410
323.01	-0.425
323.37	-0.422
323.73	-0.319
324.09	-0.325
324.45	-0.197
324.81	-0.256
325.17	-0.227
325.52	-0.144
325.88	-0.131
326.24	-0.001
326.60	0.022
326.96	0.062
327.31	-0.004
327.67	-0.146
328.03	-0.154
328.39	-0.264
328.75	-0.208
329.11	-0.161
329.46	-0.143
329.82	-0.081
330.18	-0.136
330.54	-0.274
330.90	-0.337
331.25	-0.316
331.61	-0.158
331.97	-0.042
332.33	-0.014
332.68	-0.061
333.04	-0.083
333.40	-0.177
333.76	-0.241
334.11	-0.256
334.47	-0.147
334.83	-0.153
335.19	-0.159
335.54	-0.259
335.90	-0.344
336.26	-0.368
336.62	-0.373
336.97	-0.546
337.33	-0.490
337.69	-0.408
338.05	-0.445
338.40	-0.535
338.76	-0.506
339.12	-0.411
339.48	-0.392
339.83	-0.325
340.19	-0.280
340.55	-0.190
340.90	-0.097
341.26	-0.136
341.62	-0.170
341.97	-0.145
342.33	-0.122
342.69	-0.143
343.04	-0.204
343.40	-0.258
343.76	-0.362
344.12	-0.366
344.47	-0.346
344.83	-0.300
345.19	-0.261
345.54	-0.196
345.90	-0.170
346.26	-0.051
346.61	0.016
346.97	0.041
347.32	0.130
347.68	0.162
348.04	0.106
348.39	-0.009
348.75	-0.014
349.11	-0.057
349.46	-0.114
349.82	-0.078
350.18	-0.161
350.53	-0.137
350.89	-0.141
351.24	-0.200
351.60	-0.208
351.96	-0.133
352.31	-0.031
352.67	0.055
353.02	0.101
353.38	0.147
353.74	0.143
354.09	0.167
354.45	0.180
354.80	0.265
355.16	0.364
355.52	0.428
355.87	0.415
356.23	0.445
356.58	0.397
356.94	0.508
357.29	0.598
357.65	0.699
358.00	0.737
358.36	0.727
358.72	0.741
359.07	0.811
359.43	0.895
359.78	1.011
360.14	1.059
360.49	1.097
360.85	1.080
361.20	1.035
361.56	1.014
361.91	1.078
362.27	1.137
362.62	1.176
362.98	1.200
363.33	1.222
363.69	1.200
364.04	1.249
364.40	1.272
364.75	1.322
365.11	1.384
365.46	1.392
365.82	1.445
366.17	1.486
366.53	1.524
366.88	1.516
367.24	1.559
367.59	1.610
367.95	1.640
368.30	1.695
368.66	1.754
369.01	1.771
369.37	1.845
369.72	1.895
370.08	1.980
370.43	1.991
370.78	2.055
371.14	2.023
371.49	2.066
371.85	2.104
372.20	2.163
372.56	2.216
372.91	2.266
373.26	2.261
373.62	2.251
373.97	2.281
374.33	2.321
374.68	2.331
375.03	2.408
375.39	2.401
375.74	2.421
376.10	2.460
376.45	2.472
376.80	2.528
377.16	2.583
377.51	2.633
377.87	2.659
378.22	2.693
378.57	2.706
378.93	2.750
379.28	2.838
379.63	2.852
379.99	2.888
380.34	2.906
380.70	2.922
381.05	2.989
381.40	2.987
381.76	3.018
382.11	3.084
382.46	3.171
382.82	3.234
383.17	3.261
383.52	3.317
383.88	3.329
384.23	3.353
384.58	3.365
384.94	3.360
385.29	3.421
385.64	3.417
385.99	3.448
386.35	3.453
386.70	3.450
387.05	3.438
387.41	3.445
387.76	3.458
388.11	3.485
388.47	3.510
388.82	3.572
389.17	3.587
389.52	3.625
389.88	3.607
390.23	3.615
390.58	3.669
390.93	3.710
391.29	3.738
391.64	3.807
391.99	3.871
392.34	3.926
392.70	3.928
393.05	3.917
393.40	3.925
393.75	3.953
394.11	3.947
394.46	3.904
394.81	3.919
395.16	3.889
395.52	3.852
395.87	3.847
396.22	3.848
396.57	3.847
396.92	3.825
397.28	3.819
397.63	3.813
397.98	3.832
398.33	3.832
398.68	3.811
399.04	3.859
399.39	3.834
399.74	3.789
400.09	3.765
400.44	3.761
400.80	3.809
401.15	3.812
401.50	3.809
401.85	3.790
402.20	3.792
402.55	3.814
402.90	3.766
403.26	3.781
403.61	3.773
403.96	3.768
404.31	3.762
404.66	3.764
405.01	3.750
405.36	3.765
405.72	3.793
406.07	3.779
406.42	3.753
406.77	3.768
407.12	3.761
407.47	3.764
407.82	3.761
408.17	3.736
408.53	3.730
408.88	3.737
409.23	3.712
409.58	3.676
409.93	3.684
410.28	3.704
410.63	3.703
410.98	3.706
411.33	3.684
411.68	3.689
412.03	3.730
412.38	3.690
412.73	3.696
413.09	3.706
413.44	3.731
413.79	3.728
414.14	3.721
414.49	3.766
414.84	3.796
415.19	3.820
415.54	3.848
415.89	3.848
416.24	3.897
416.59	3.903
416.94	3.930
417.29	3.942
417.64	3.947
417.99	3.961
418.34	3.959
418.69	3.947
419.04	3.954
419.39	3.948
419.74	3.937
420.09	3.938
420.44	3.942
420.79	3.936
421.14	3.933
421.49	3.962
421.84	3.962
422.19	3.969
422.54	3.977
422.89	3.978
423.24	3.973
423.59	3.979
423.94	3.950
424.29	3.961
424.64	3.936
424.99	3.925
425.34	3.889
425.68	3.869
426.03	3.831
426.38	3.813
426.73	3.800
427.08	3.790
427.43	3.794
427.78	3.841
428.13	3.817
428.48	3.839
428.83	3.838
429.18	3.840
429.53	3.850
429.87	3.848
430.22	3.843
430.57	3.842
430.92	3.819
431.27	3.827
431.62	3.799
431.97	3.793
432.32	3.780
432.67	3.775
433.01	3.756
433.36	3.741
433.71	3.731
434.06	3.722
434.41	3.719
434.76	3.729
435.11	3.712
435.45	3.702
435.80	3.711
436.15	3.723
436.50	3.731
436.85	3.759
437.20	3.756
437.54	3.758
437.89	3.760
438.24	3.761
438.59	3.777
438.94	3.785
439.29	3.773
439.63	3.778
439.98	3.775
440.33	3.765
440.68	3.765
441.03	3.796
441.37	3.829
441.72	3.865
442.07	3.879
442.42	3.898
442.76	3.928
443.11	3.967
443.46	3.982
443.81	4.006
444.16	4.041
444.50	4.061
444.85	4.058
445.20	4.061
445.55	4.069
445.89	4.090
446.24	4.095
446.59	4.077
446.94	4.085
447.28	4.084
447.63	4.075
447.98	4.074
448.32	4.065
448.67	4.077
449.02	4.074
449.37	4.054
449.71	4.057
450.06	4.058
450.41	4.083
450.75	4.098
451.10	4.105
451.45	4.098
451.79	4.096
452.14	4.114
452.49	4.128
452.84	4.136
453.18	4.157
453.53	4.144
453.88	4.141
454.22	4.153
454.57	4.165
454.92	4.178
455.26	4.213
455.61	4.249
455.95	4.271
456.30	4.277
456.65	4.309
456.99	4.328
457.34	4.365
457.69	4.391
458.03	4.397
458.38	4.402
458.73	4.398
459.07	4.396
459.42	4.378
459.76	4.333
460.11	4.323
460.46	4.295
460.80	4.277
461.15	4.248
461.49	4.222
461.84	4.212
462.19	4.197
462.53	4.210
462.88	4.221
463.22	4.218
463.57	4.241
463.91	4.244
464.26	4.267
464.61	4.269
464.95	4.262
465.30	4.250
465.64	4.256
465.99	4.269
466.33	4.271
466.68	4.257
467.02	4.249
467.37	4.246
467.71	4.226
468.06	4.200
468.41	4.179
468.75	4.185
469.10	4.196
469.44	4.170
469.79	4.141
470.13	4.099
470.48	4.090
470.82	4.095
471.17	4.101
471.51	4.103
471.86	4.099
472.20	4.115
472.55	4.122
472.89	4.123
473.23	4.119
473.58	4.116
473.92	4.127
474.27	4.112
474.61	4.101
474.96	4.096
475.30	4.104
475.65	4.093
475.99	4.079
476.34	4.073
476.68	4.057
477.02	4.074
477.37	4.088
477.71	4.113
478.06	4.144
478.40	4.212
478.75	4.292
479.09	4.374
479.43	4.486
479.78	4.610
480.12	4.733
480.47	4.866
480.81	4.988
481.15	5.103
481.50	5.228
481.84	5.368
482.19	5.494
482.53	5.602
482.87	5.678
483.22	5.690
483.56	5.637
483.90	5.551
484.25	5.436
484.59	5.311
484.94	5.203
485.28	5.098
485.62	4.975
485.97	4.849
486.31	4.744
486.65	4.663
487.00	4.624
487.34	4.636
487.68	4.669
488.03	4.716
488.37	4.766
488.71	4.795
489.06	4.802
489.40	4.815
489.74	4.809
490.09	4.807
490.43	4.807
490.77	4.804
491.11	4.794
491.46	4.782
491.80	4.763
492.14	4.748
492.49	4.752
492.83	4.749
493.17	4.732
493.51	4.749
493.86	4.761
494.20	4.772
494.54	4.804
494.88	4.842
495.23	4.888
495.57	4.951
495.91	5.018
496.25	5.066
496.60	5.119
496.94	5.156
497.28	5.201
497.62	5.245
497.97	5.294
498.31	5.353
498.65	5.408
498.99	5.463
499.33	5.536
499.68	5.603
500.02	5.663
500.36	5.731
500.70	5.811
501.04	5.877
501.39	5.935
501.73	6.006
502.07	6.096
502.41	6.186
502.75	6.276
503.09	6.351
503.44	6.432
503.78	6.522
504.12	6.607
504.46	6.716
504.80	6.805
505.14	6.927
505.49	7.031
505.83	7.120
506.17	7.212
506.51	7.318
506.85	7.434
507.19	7.536
507.53	7.636
507.87	7.762
508.22	7.862
508.56	7.971
508.90	8.054
509.24	8.160
509.58	8.252
509.92	8.361
510.26	8.455
510.60	8.546
510.94	8.660
511.28	8.757
511.63	8.838
511.97	8.969
512.31	9.107
512.65	9.246
512.99	9.372
513.33	9.555
513.67	9.713
514.01	9.900
514.35	10.061
514.69	10.201
515.03	10.378
515.37	10.541
515.71	10.661
516.05	10.785
516.39	10.900
516.73	11.020
517.07	11.108
517.41	11.205
517.75	11.277
518.09	11.372
518.43	11.467
518.77	11.531
519.11	11.618
519.45	11.708
519.79	11.810
520.13	11.917
520.47	12.042
520.81	12.161
521.15	12.289
521.49	12.433
521.83	12.554
522.17	12.684
522.51	12.852
522.85	13.005
523.19	13.185
523.53	13.373
523.87	13.587
524.21	13.795
524.55	13.997
524.89	14.195
525.23	14.374
525.57	14.540
525.91	14.698
526.25	14.830
526.58	14.975
526.92	15.077
527.26	15.153
527.60	15.197
527.94	15.227
528.28	15.240
528.62	15.229
528.96	15.226
529.30	15.214
529.64	15.201
529.97	15.179
530.31	15.137
530.65	15.137
530.99	15.143
531.33	15.171
531.67	15.192
532.01	15.223
532.35	15.252
532.68	15.272
533.02	15.282
533.36	15.287
533.70	15.289
534.04	15.288
534.38	15.274
534.71	15.272
535.05	15.255
535.39	15.253
535.73	15.265
536.07	15.284
536.41	15.291
536.74	15.325
537.08	15.367
537.42	15.427
537.76	15.491
538.10	15.540
538.43	15.602
538.77	15.678
539.11	15.727
539.45	15.767
539.79	15.811
540.12	15.850
540.46	15.881
540.80	15.882
541.14	15.878
541.47	15.846
541.81	15.836
542.15	15.807
542.49	15.765
542.82	15.740
543.16	15.712
543.50	15.677
543.84	15.630
544.17	15.586
544.51	15.582
544.85	15.548
545.18	15.566
545.52	15.570
545.86	15.562
546.20	15.567
546.53	15.573
546.87	15.570
547.21	15.542
547.54	15.555
547.88	15.567
548.22	15.545
548.55	15.559
548.89	15.535
549.23	15.533
549.56	15.546
549.90	15.566
550.24	15.544
550.57	15.538
550.91	15.541
551.25	15.535
551.58	15.534
551.92	15.546
552.26	15.546
552.59	15.557
552.93	15.554
553.27	15.537
553.60	15.517
553.94	15.490
554.27	15.472
554.61	15.475
554.95	15.462
555.28	15.438
555.62	15.416
555.95	15.427
556.29	15.395
556.63	15.342
556.96	15.327
557.30	15.293
557.63	15.294
557.97	15.275
558.31	15.212
558.64	15.156
558.98	15.111
559.31	15.095
559.65	15.024
559.98	14.973
560.32	14.932
560.65	14.854
560.99	14.781
561.33	14.718
561.66	14.658
562.00	14.627
562.33	14.598
562.67	14.558
563.00	14.465
563.34	14.408
563.67	14.371
564.01	14.329
564.34	14.294
564.68	14.263
565.01	14.201
565.35	14.134
565.68	14.078
566.02	13.993
566.35	13.913
566.69	13.857
567.02	13.812
567.36	13.728
567.69	13.641
568.03	13.583
568.36	13.475
568.69	13.423
569.03	13.355
569.36	13.280
569.70	13.226
570.03	13.184
570.37	13.138
570.70	13.074
571.04	13.032
571.37	12.979
571.70	12.905
572.04	12.869
572.37	12.794
572.71	12.723
573.04	12.679
573.37	12.621
573.71	12.561
574.04	12.496
574.38	12.420
574.71	12.349
575.04	12.307
575.38	12.232
575.71	12.164
576.05	12.124
576.38	12.109
576.71	12.031
577.05	11.963
577.38	11.897
577.71	11.827
578.05	11.767
578.38	11.706
578.71	11.639
579.05	11.598
579.38	11.552
579.71	11.483
580.05	11.409
580.38	11.384
580.71	11.342
581.05	11.289
581.38	11.217
581.71	11.206
582.05	11.163
582.38	11.140
582.71	11.094
583.04	11.077
583.38	11.041
583.71	11.023
584.04	10.978
584.38	10.940
584.71	10.933
585.04	10.947
585.37	10.903
585.71	10.908
586.04	10.860
586.37	10.859
586.70	10.833
587.04	10.817
587.37	10.782
587.70	10.755
588.03	10.755
588.37	10.763
588.70	10.729
589.03	10.691
589.36	10.646
589.69	10.620
590.03	10.591
590.36	10.529
590.69	10.489
591.02	10.442
591.35	10.421
591.69	10.401
592.02	10.327
592.35	10.323
592.68	10.316
593.01	10.271
593.35	10.260
593.68	10.234
594.01	10.250
594.34	10.216
594.67	10.203
595.00	10.195
595.34	10.138
595.67	10.118
596.00	10.063
596.33	10.014
596.66	9.992
596.99	9.946
597.32	9.914
597.65	9.852
597.99	9.854
598.32	9.804
598.65	9.729
598.98	9.687
599.31	9.644
599.64	9.633
599.97	9.639
600.30	9.597
600.63	9.576
600.96	9.557
601.30	9.544
601.63	9.526
601.96	9.545
602.29	9.555
602.62	9.555
602.95	9.543
603.28	9.499
603.61	9.445
603.94	9.425
604.27	9.401
604.60	9.369
604.93	9.336
605.26	9.281
605.59	9.210
605.92	9.161
606.25	9.116
606.58	9.095
606.91	9.042
607.24	9.028
607.57	9.017
607.90	9.001
608.23	8.941
608.56	8.906
608.89	8.843
609.22	8.797
609.55	8.735
609.88	8.669
610.21	8.612
610.54	8.590
610.87	8.518
611.20	8.440
611.53	8.364
611.86	8.321
612.19	8.261
612.52	8.218
612.85	8.184
613.18	8.149
613.51	8.099
613.84	8.007
614.17	7.946
614.49	7.936
614.82	7.870
615.15	7.831
615.48	7.801
615.81	7.741
616.14	7.703
616.47	7.672
616.80	7.608
617.13	7.590
617.46	7.582
617.78	7.549
618.11	7.513
618.44	7.524
618.77	7.482
619.10	7.471
619.43	7.469
619.76	7.439
620.09	7.440
620.41	7.445
620.74	7.446
621.07	7.449
621.40	7.450
621.73	7.428
622.06	7.435
622.38	7.458
622.71	7.445
623.04	7.437
623.37	7.483
623.70	7.460
624.02	7.486
624.35	7.515
624.68	7.522
625.01	7.556
625.34	7.584
625.66	7.582
625.99	7.584
626.32	7.576
626.65	7.598
626.98	7.567
627.30	7.563
627.63	7.557
627.96	7.502
628.29	7.480
628.61	7.443
628.94	7.406
629.27	7.362
629.60	7.284
629.92	7.294
630.25	7.261
630.58	7.229
630.91	7.200
631.23	7.140
631.56	7.128
631.89	7.054
632.21	6.998
632.54	6.954
632.87	6.895
633.19	6.871
633.52	6.771
633.85	6.717
634.18	6.656
634.50	6.569
634.83	6.538
635.16	6.440
635.48	6.366
635.81	6.297
636.14	6.181
636.46	6.145
636.79	6.069
637.11	6.009
637.44	5.869
637.77	5.786
638.09	5.723
638.42	5.590
638.75	5.507
639.07	5.473
639.40	5.380
639.73	5.323
640.05	5.220
640.38	5.177
640.70	5.123
641.03	5.101
641.36	5.040
641.68	4.984
642.01	4.939
642.33	4.929
642.66	4.860
642.98	4.822
643.31	4.776
643.64	4.747
643.96	4.714
644.29	4.661
644.61	4.646
644.94	4.649
645.26	4.631
645.59	4.657
645.91	4.643
646.24	4.648
646.56	4.642
646.89	4.649
647.22	4.633
647.54	4.613
647.87	4.608
648.19	4.529
648.52	4.501
648.84	4.486
649.17	4.425
649.49	4.390
649.82	4.344
650.14	4.339
650.47	4.317
650.79	4.309
651.11	4.309
651.44	4.311
651.76	4.347
652.09	4.397
652.41	4.444
652.74	4.470
653.06	4.495
653.39	4.539
653.71	4.547
654.04	4.535
654.36	4.543
654.68	4.563
655.01	4.583
655.33	4.615
655.66	4.569
655.98	4.549
656.30	4.525
656.63	4.513
656.95	4.500
657.28	4.479
657.60	4.472
657.92	4.449
658.25	4.411
658.57	4.361
658.90	4.321
659.22	4.303
659.54	4.262
659.87	4.264
660.19	4.232
660.51	4.201
660.84	4.163
661.16	4.172
661.48	4.161
661.81	4.118
662.13	4.112
662.45	4.092
662.78	4.085
663.10	4.109
663.42	4.130
663.75	4.175
664.07	4.180
664.39	4.210
664.72	4.197
665.04	4.236
665.36	4.338
665.69	4.374
666.01	4.492
666.33	4.584
666.65	4.626
666.98	4.695
667.30	4.737
667.62	4.879
667.94	4.999
668.27	5.124
668.59	5.218
668.91	5.328
669.23	5.523
669.56	5.615
669.88	5.733
670.20	5.871
670.52	6.016
670.85	6.110
671.17	6.212
671.49	6.333
671.81	6.513
672.13	6.715
672.46	6.859
672.78	6.990
673.10	7.203
673.42	7.381
673.74	7.595
674.07	7.773
674.39	8.081
674.71	8.233
675.03	8.452
675.35	8.651
675.67	8.817
676.00	8.982
676.32	9.062
676.64	9.205
676.96	9.384
677.28	9.501
677.60	9.639
677.92	9.761
678.25	9.966
678.57	10.124
678.89	10.265
679.21	10.367
679.53	10.527
679.85	10.801
680.17	10.985
680.49	11.149
680.81	11.384
681.13	11.578
681.46	11.799
681.78	12.058
682.10	12.299
682.42	12.547
682.74	12.894
683.06	13.150
683.38	13.392
683.70	13.669
684.02	13.939
684.34	14.201
684.66	14.497
684.98	14.714
685.30	14.845
685.62	15.013
685.94	15.178
686.26	15.294
686.58	15.453
686.90	15.605
687.22	15.721
687.54	15.784
687.86	15.874
688.18	15.951
688.50	16.122
688.82	16.239
689.14	16.417
689.46	16.595
689.78	16.764
690.10	16.986
690.42	17.105
690.74	17.269
691.06	17.556
691.38	17.707
691.70	17.921
692.02	18.030
692.34	18.284
692.66	18.448
692.98	18.603
693.30	18.782
693.62	18.874
693.94	18.978
694.26	19.027
694.57	19.032
694.89	19.187
695.21	19.227
695.53	19.361
695.85	19.408
696.17	19.501
696.49	19.582
696.81	19.656
697.13	19.740
697.44	19.906
697.76	20.094
698.08	20.323
698.40	20.511
698.72	20.775
699.04	20.975
699.36	21.294
699.67	21.574
699.99	21.859
700.31	22.221
700.63	22.600
700.95	22.927
701.27	23.297
701.58	23.610
701.90	23.832
702.22	24.087
702.54	24.302
702.86	24.458
703.17	24.589
703.49	24.813
703.81	24.963
704.13	25.117
704.45	25.263
704.76	25.403
705.08	25.520
705.40	25.683
705.72	25.780
706.03	25.913
706.35	26.151
706.67	26.397
706.99	26.552
707.30	26.744
707.62	26.879
707.94	27.085
708.26	27.162
708.57	27.328
708.89	27.505
709.21	27.754
709.53	27.960
709.84	28.113
710.16	28.307
710.48	28.491
710.79	28.690
711.11	28.888
711.43	28.968
711.74	29.217
712.06	29.434
712.38	29.694
712.69	29.854
713.01	30.141
713.33	30.401
713.64	30.668
713.96	30.926
714.28	31.195
714.59	31.576
714.91	32.008
715.23	32.350
715.54	32.655
715.86	32.973
716.17	33.336
716.49	33.673
716.81	33.914
717.12	34.186
717.44	34.632
717.76	34.831
718.07	35.036
718.39	35.217
718.70	35.518
719.02	35.826
719.33	35.957
719.65	36.148
719.97	36.283
720.28	36.575
720.60	36.872
720.91	36.919
721.23	37.307
721.54	37.479
721.86	37.706
722.17	37.827
722.49	38.132
722.81	38.438
723.12	38.729
723.44	38.949
723.75	39.076
724.07	39.178
724.38	39.372
724.70	39.559
725.01	39.740
725.33	39.912
725.64	40.027
725.96	40.004
726.27	40.057
726.59	40.135
726.90	40.273
727.22	40.328
727.53	40.487
727.84	40.638
728.16	40.631
728.47	40.785
728.79	40.934
729.10	41.061
729.42	41.178
729.73	41.305
730.05	41.417
730.36	41.494
730.67	41.794
730.99	41.760
731.30	41.865
731.62	41.973
731.93	42.013
732.24	42.085
732.56	42.260
732.87	42.435
733.19	42.701
733.50	42.890
733.81	43.106
734.13	43.228
734.44	43.538
734.76	43.670
735.07	43.885
735.38	44.135
735.70	44.386
736.01	44.582
736.32	44.760
736.64	44.795
736.95	44.871
737.26	44.883
737.58	44.868
737.89	44.820
738.20	44.949
738.52	45.059
738.83	45.178
739.14	45.253
739.45	45.269
739.77	45.190
740.08	45.436
740.39	45.532
740.71	45.712
741.02	45.962
741.33	45.954
741.64	46.085
741.96	46.175
742.27	46.169
742.58	46.347
742.90	46.560
743.21	46.853
743.52	46.763
743.83	46.764
744.14	46.874
744.46	46.879
744.77	47.139
745.08	47.097
745.39	47.161
745.71	47.205
746.02	46.991
746.33	46.936
746.64	46.830
746.95	46.973
747.27	47.159
747.58	47.209
747.89	47.171
748.20	47.107
748.51	47.174
748.82	47.032
749.14	47.008
749.45	46.970
749.76	46.899
750.07	46.970
750.38	46.781
750.69	46.537
751.01	46.365
751.32	46.260
751.63	46.348
751.94	46.231
752.25	46.286
752.56	46.173
752.87	46.208
753.18	46.222
753.49	46.119
753.81	46.225
754.12	46.223
754.43	46.138
754.74	46.024
755.05	46.007
755.36	46.007
755.67	46.074
755.98	46.404
756.29	46.675
756.60	46.781
756.91	46.824
757.22	46.862
757.53	47.214
757.84	47.546
758.15	47.847
758.46	47.986
758.77	47.980
759.09	47.934
759.40	47.741
759.71	47.418
760.02	47.290
760.33	47.275
760.64	47.137
760.95	46.947
761.26	46.648
761.57	46.437
761.88	46.211
762.18	46.207
762.49	46.142
762.80	46.174
763.11	46.190
763.42	46.006
763.73	45.842
764.04	45.770
764.35	45.637
764.66	45.702
764.97	45.553
765.28	45.614
765.59	45.473
765.90	45.229
766.21	44.808
766.52	44.810
766.83	44.826
767.14	44.805
767.44	44.610
767.75	44.261
768.06	44.055
768.37	43.777
768.68	43.602
768.99	43.328
769.30	43.246
769.61	43.039
769.91	42.692
770.22	42.427
770.53	42.197
770.84	42.092
771.15	42.293
771.46	42.185
771.77	42.405
772.07	42.193
772.38	42.292
772.69	42.014
773.00	42.216
773.31	42.171
773.61	42.093
773.92	41.960
774.23	41.978
774.54	41.802
774.85	41.836
775.15	41.647
775.46	41.644
775.77	41.542
776.08	41.676
776.39	41.695
776.69	41.738
777.00	42.068
777.31	42.336
777.62	42.394
777.92	42.191
778.23	41.962
778.54	41.833
778.85	41.929
779.15	41.861
779.46	42.027
779.77	42.042
780.07	42.098
780.38	42.092
780.69	41.798
781.00	41.693
781.30	41.775
781.61	41.719
781.92	41.976
782.22	41.921
782.53	41.868
782.84	41.914
783.14	41.934
783.45	41.939
783.76	42.224
784.06	42.419
784.37	42.468
784.68	42.663
784.98	42.874
785.29	42.792
785.60	42.832
785.90	42.941
786.21	42.790
786.51	42.969
786.82	43.217
787.13	43.038
787.43	43.158
787.74	43.271
788.04	43.280
788.35	43.294
788.66	43.462
788.96	43.452
789.27	43.672
789.57	43.854
789.88	43.735
790.19	43.456
790.49	43.351
790.80	43.267
791.10	43.069
791.41	43.354
791.71	43.339
792.02	43.214
792.32	42.890
792.63	42.591
792.93	42.730
793.24	42.570
793.54	42.487
793.85	42.258
794.15	42.147
794.46	42.529
794.76	42.531
795.07	42.656
795.37	42.838
795.68	43.005
795.98	43.130
796.29	43.078
796.59	43.210
796.90	43.256
797.20	43.585
797.51	43.675
797.81	43.261
798.12	43.050
798.42	42.984
798.72	43.033
799.03	43.127
799.33	42.907
799.64	43.007
799.94	43.131
800.25	42.997
800.55	42.939
800.85	43.260
801.16	43.497
801.46	43.476
801.77	42.942
802.07	42.845
802.37	43.049
802.68	43.296
802.98	43.038
803.28	42.987
803.59	43.264
803.89	43.157
804.20	43.141
804.50	43.053
804.80	43.072
805.11	43.401
805.41	43.158
805.71	42.991
806.02	43.041
806.32	42.942
806.62	42.680
806.93	42.795
807.23	43.037
807.53	42.911
807.83	43.075
808.14	43.176
808.44	43.317
808.74	43.523
809.05	43.618
809.35	43.273
809.65	43.506
809.95	43.676
810.26	43.643
810.56	43.297
810.86	43.490
811.16	43.836
811.47	44.015
811.77	44.089
812.07	44.285
812.37	44.442
812.68	44.941
812.98	45.015
813.28	45.297
813.58	45.486
813.88	45.525
814.19	45.845
814.49	45.780
814.79	45.892
815.09	46.246
815.39	46.433
815.70	46.496
816.00	46.545
816.30	46.638
816.60	46.751
816.90	46.699
817.20	47.331
817.50	47.028
817.81	46.604
818.11	46.375
818.41	46.196
818.71	46.194
819.01	46.170
819.31	46.291
819.61	46.437
819.92	46.582
820.22	46.872
820.52	46.860
820.82	47.177
821.12	47.496
821.42	47.742
821.72	47.945
822.02	48.227
822.32	48.595
822.62	48.874
822.92	49.059
823.22	49.250
823.52	49.334
823.83	49.515
824.13	49.425
824.43	49.375
824.73	49.482
825.03	49.503
825.33	49.377
825.63	49.075
825.93	48.920
826.23	48.726
826.53	48.560
826.83	48.457
827.13	48.567
827.43	48.809
827.73	49.016
828.03	48.973
828.33	49.117
828.63	49.227
828.93	49.380
829.23	49.357
829.53	49.458
829.83	49.354
830.13	49.426
830.42	49.074
830.72	48.480
831.02	48.420
831.32	48.126
831.62	48.224
831.92	48.071
832.22	47.998
832.52	47.827
832.82	47.982
833.12	48.183
833.42	48.124
833.72	48.112
834.01	48.394
834.31	48.249
834.61	48.710
834.91	48.992
835.21	49.114
835.51	49.229
835.81	49.127
836.11	48.794
836.40	48.882
836.70	48.714
837.00	48.904
837.30	48.484
837.60	48.032
837.90	47.194
838.19	46.303
838.49	46.302
838.79	46.436
839.09	46.854
839.39	47.306
839.68	47.251
839.98	46.974
840.28	46.425
840.58	46.506
840.88	47.082
841.17	46.858
841.47	47.017
841.77	47.379
842.07	46.816
842.36	46.268
842.66	45.986
842.96	45.543
843.26	44.590
843.55	45.212
843.85	45.353
844.15	44.611
844.45	45.035
844.74	45.057
845.04	43.600
845.34	44.179
845.63	44.363
845.93	44.550
846.23	44.595
846.53	46.003
846.82	44.242
847.12	43.577
847.42	43.972
847.71	43.002
848.01	42.309
848.31	41.824
848.60	41.534
848.90	40.670
849.19	40.227
849.49	39.625
849.79	39.934
850.08	41.843
850.38	40.909
850.68	39.839
850.97	40.052
851.27	40.542
851.56	41.112
851.86	39.196
852.16	40.632
852.45	39.940
852.75	39.412
853.04	39.355
853.34	38.775
853.64	38.992
853.93	39.029
854.23	38.032
854.52	38.194
854.82	38.117
855.11	37.764
855.41	37.881
855.70	39.611
856.00	39.479
856.30	39.122
856.59	39.244
856.89	40.912
857.18	41.603
857.48	43.748
857.77	42.379
858.07	42.541
858.36	42.933
858.66	41.345
858.95	40.606
859.25	40.562
859.54	39.249
859.84	39.931
860.13	39.227
860.42	39.142
860.72	39.669
861.01	40.656
861.31	42.305
861.60	44.074
861.90	46.057
862.19	45.419
862.49	44.507
862.78	45.089
863.07	42.898
863.37	43.253
863.66	42.998
863.96	43.306
864.25	44.211
864.54	42.680
864.84	43.020
865.13	41.283
865.43	42.853
865.72	57.204
866.01	41.959
866.31	50.136
866.60	32.493
866.89	54.225
>>>>>End Spectral Data<<<<<
