OOIBase32 Version 2.0.0.6 Data File
++++++++++++++++++++++++++++++++++++
Date: 01-23-2012, 23:16:19
User: Valued Ocean Optics Customer
Spectrometer Serial Number: USB2E2917
Spectrometer Channel: Master
Integration Time (msec): 5
Spectra Averaged: 10
Boxcar Smoothing: 5
Correct for Electrical Dark: Enabled
Time Normalized: Disabled
Dual-beam Reference: Disabled
Reference Channel: Master
Temperature: Not acquired
Spectrometer Type: S2000
ADC Type: USB2000
Number of Pixels in File: 2048
Graph Title: 
>>>>>Begin Spectral Data<<<<<
180.30	0.000
180.67	0.000
181.03	-51.176
181.40	574.568
181.77	-4642.966
182.14	93.490
182.51	-650.763
182.88	-16.942
183.25	16.561
183.62	78.068
183.99	380.256
184.36	10.120
184.73	272.628
185.10	116.715
185.46	-71.917
185.83	-365.767
186.20	-1595.822
186.57	70.671
186.94	144.441
187.31	12.148
187.68	12.313
188.05	35.078
188.42	11.514
188.78	-7.027
189.15	-68.342
189.52	50.340
189.89	30.128
190.26	29.697
190.63	42.374
191.00	53.587
191.37	42.874
191.73	46.825
192.10	38.597
192.47	41.091
192.84	38.560
193.21	34.951
193.58	24.618
193.94	16.050
194.31	12.978
194.68	11.015
195.05	-0.797
195.42	14.065
195.79	4.957
196.15	6.523
196.52	-9.604
196.89	-16.718
197.26	-48.945
197.63	-21.677
198.00	-2.319
198.36	6.057
198.73	-15.300
199.10	-22.033
199.47	-18.543
199.84	-29.406
200.20	-29.590
200.57	-2.341
200.94	-7.899
201.31	21.837
201.68	26.383
202.04	21.450
202.41	18.642
202.78	13.410
203.15	6.991
203.51	-8.941
203.88	-1.156
204.25	5.180
204.62	-37.570
204.98	-35.316
205.35	-53.336
205.72	-71.192
206.09	-54.070
206.46	-113.303
206.82	-87.791
207.19	-66.197
207.56	-89.592
207.92	-73.614
208.29	-96.058
208.66	-48.741
209.03	-49.696
209.39	-22.771
209.76	-15.608
210.13	-48.389
210.50	-17.000
210.86	-6.663
211.23	-14.964
211.60	-5.894
211.96	-8.181
212.33	1.070
212.70	-7.572
213.07	0.324
213.43	-27.477
213.80	-33.099
214.17	-12.439
214.53	-2.833
214.90	0.480
215.27	8.633
215.63	4.485
216.00	6.924
216.37	14.861
216.74	17.317
217.10	20.140
217.47	14.699
217.84	21.870
218.20	14.470
218.57	3.243
218.94	-3.035
219.30	-12.970
219.67	-13.372
220.04	-11.941
220.40	-17.802
220.77	-23.114
221.13	-22.895
221.50	-14.886
221.87	-19.683
222.23	-20.061
222.60	-23.763
222.97	-18.657
223.33	-8.385
223.70	-5.849
224.07	-5.369
224.43	-3.012
224.80	1.533
225.16	0.297
225.53	-1.938
225.90	-5.142
226.26	-3.519
226.63	-0.323
226.99	0.130
227.36	0.075
227.73	1.370
228.09	0.152
228.46	0.986
228.82	0.626
229.19	1.409
229.56	1.493
229.92	4.524
230.29	5.291
230.65	4.038
231.02	2.946
231.38	0.036
231.75	-2.766
232.12	-3.203
232.48	-5.187
232.85	-5.217
233.21	-6.336
233.58	-7.310
233.94	-8.652
234.31	-9.265
234.68	-8.975
235.04	-7.158
235.41	-5.600
235.77	-2.793
236.14	-1.223
236.50	0.776
236.87	0.128
237.23	0.791
237.60	0.822
237.96	0.834
238.33	0.238
238.69	0.426
239.06	-0.213
239.42	0.515
239.79	-0.513
240.15	-1.221
240.52	-1.625
240.88	-1.130
241.25	-1.641
241.61	-1.010
241.98	-0.921
242.34	-0.953
242.71	-0.762
243.07	-0.380
243.44	-0.768
243.80	-0.479
244.17	-0.284
244.53	-0.724
244.90	-0.805
245.26	-0.570
245.63	-0.782
245.99	-1.009
246.36	-0.927
246.72	-0.899
247.09	-1.368
247.45	-1.322
247.81	-0.983
248.18	-1.151
248.54	-0.851
248.91	-0.944
249.27	-0.942
249.64	-0.932
250.00	-0.807
250.36	-1.161
250.73	-1.641
251.09	-1.471
251.46	-1.638
251.82	-2.507
252.19	-2.569
252.55	-2.843
252.91	-2.752
253.28	-2.876
253.64	-2.768
254.01	-2.361
254.37	-1.549
254.73	-0.773
255.10	-0.151
255.46	0.311
255.83	0.720
256.19	0.968
256.55	0.983
256.92	1.120
257.28	1.106
257.65	1.025
258.01	0.968
258.37	0.891
258.74	0.653
259.10	0.382
259.46	0.192
259.83	-0.028
260.19	-0.350
260.55	-0.304
260.92	-0.426
261.28	-0.525
261.64	-0.388
262.01	-0.593
262.37	-0.690
262.73	-0.595
263.10	-0.228
263.46	-0.043
263.82	0.014
264.19	0.229
264.55	-0.348
264.91	-0.887
265.28	-1.163
265.64	-1.310
266.00	-1.105
266.37	-1.062
266.73	-1.305
267.09	-1.388
267.46	-1.468
267.82	-1.579
268.18	-1.489
268.54	-1.093
268.91	-0.940
269.27	-0.766
269.63	-0.609
270.00	-0.496
270.36	-0.566
270.72	-0.379
271.08	-0.531
271.45	-0.593
271.81	-0.494
272.17	-0.388
272.53	-0.223
272.90	0.145
273.26	0.438
273.62	0.320
273.98	0.097
274.35	0.105
274.71	0.074
275.07	0.274
275.43	0.243
275.80	0.354
276.16	0.295
276.52	0.159
276.88	0.024
277.25	-0.440
277.61	-0.580
277.97	-0.737
278.33	-0.623
278.69	-0.670
279.06	-0.700
279.42	-0.646
279.78	-0.604
280.14	-0.571
280.50	-0.519
280.87	-0.591
281.23	-0.427
281.59	-0.359
281.95	-0.278
282.31	-0.247
282.68	-0.336
283.04	-0.323
283.40	-0.217
283.76	-0.284
284.12	-0.310
284.48	-0.212
284.85	-0.158
285.21	-0.096
285.57	-0.133
285.93	0.020
286.29	-0.143
286.65	0.078
287.02	0.292
287.38	0.232
287.74	0.255
288.10	0.194
288.46	0.016
288.82	0.012
289.18	-0.162
289.54	-0.024
289.91	-0.111
290.27	-0.071
290.63	0.027
290.99	-0.242
291.35	-0.324
291.71	-0.318
292.07	-0.329
292.43	-0.356
292.79	-0.273
293.16	-0.244
293.52	-0.181
293.88	-0.014
294.24	-0.017
294.60	-0.264
294.96	-0.308
295.32	-0.124
295.68	-0.038
296.04	0.003
296.40	0.172
296.76	0.111
297.12	0.065
297.49	-0.079
297.85	-0.362
298.21	-0.340
298.57	-0.327
298.93	-0.225
299.29	-0.431
299.65	-0.510
300.01	-0.501
300.37	-0.499
300.73	-0.332
301.09	-0.238
301.45	-0.089
301.81	0.137
302.17	0.226
302.53	0.205
302.89	0.092
303.25	0.219
303.61	0.153
303.97	0.126
304.33	-0.009
304.69	-0.074
305.05	0.029
305.41	-0.117
305.77	-0.200
306.13	-0.336
306.49	-0.402
306.85	-0.306
307.21	-0.247
307.57	-0.210
307.93	-0.239
308.29	-0.101
308.65	-0.060
309.01	-0.132
309.37	-0.018
309.73	0.042
310.09	0.180
310.45	0.354
310.81	0.366
311.17	0.257
311.53	0.223
311.89	0.337
312.25	0.291
312.61	0.212
312.96	0.268
313.32	0.236
313.68	0.204
314.04	0.170
314.40	0.103
314.76	0.074
315.12	0.109
315.48	0.152
315.84	0.161
316.20	0.080
316.56	0.012
316.92	-0.056
317.27	-0.129
317.63	-0.170
317.99	-0.249
318.35	-0.219
318.71	-0.278
319.07	-0.285
319.43	-0.336
319.79	-0.342
320.15	-0.311
320.50	-0.287
320.86	-0.221
321.22	-0.233
321.58	-0.234
321.94	-0.216
322.30	-0.347
322.66	-0.356
323.01	-0.421
323.37	-0.348
323.73	-0.408
324.09	-0.505
324.45	-0.440
324.81	-0.529
325.17	-0.441
325.52	-0.506
325.88	-0.609
326.24	-0.543
326.60	-0.505
326.96	-0.440
327.31	-0.493
327.67	-0.550
328.03	-0.488
328.39	-0.544
328.75	-0.440
329.11	-0.441
329.46	-0.378
329.82	-0.305
330.18	-0.311
330.54	-0.297
330.90	-0.297
331.25	-0.271
331.61	-0.159
331.97	-0.150
332.33	-0.131
332.68	-0.138
333.04	-0.104
333.40	-0.140
333.76	-0.199
334.11	-0.152
334.47	-0.220
334.83	-0.245
335.19	-0.354
335.54	-0.415
335.90	-0.448
336.26	-0.444
336.62	-0.523
336.97	-0.677
337.33	-0.708
337.69	-0.628
338.05	-0.651
338.40	-0.659
338.76	-0.620
339.12	-0.497
339.48	-0.499
339.83	-0.453
340.19	-0.451
340.55	-0.385
340.90	-0.319
341.26	-0.255
341.62	-0.276
341.97	-0.283
342.33	-0.148
342.69	-0.189
343.04	-0.246
343.40	-0.348
343.76	-0.423
344.12	-0.392
344.47	-0.312
344.83	-0.246
345.19	-0.239
345.54	-0.158
345.90	-0.141
346.26	-0.223
346.61	-0.197
346.97	-0.183
347.32	-0.077
347.68	-0.044
348.04	-0.102
348.39	-0.236
348.75	-0.274
349.11	-0.304
349.46	-0.390
349.82	-0.390
350.18	-0.394
350.53	-0.343
350.89	-0.284
351.24	-0.353
351.60	-0.350
351.96	-0.291
352.31	-0.273
352.67	-0.174
353.02	-0.139
353.38	-0.085
353.74	-0.024
354.09	0.001
354.45	0.033
354.80	0.034
355.16	0.077
355.52	0.142
355.87	0.094
356.23	0.163
356.58	0.104
356.94	0.110
357.29	0.143
357.65	0.122
358.00	0.136
358.36	0.081
358.72	0.081
359.07	0.131
359.43	0.155
359.78	0.232
360.14	0.263
360.49	0.264
360.85	0.311
361.20	0.333
361.56	0.358
361.91	0.395
362.27	0.433
362.62	0.451
362.98	0.489
363.33	0.499
363.69	0.525
364.04	0.545
364.40	0.570
364.75	0.547
365.11	0.531
365.46	0.504
365.82	0.528
366.17	0.515
366.53	0.579
366.88	0.641
367.24	0.691
367.59	0.637
367.95	0.663
368.30	0.693
368.66	0.753
369.01	0.794
369.37	0.890
369.72	0.906
370.08	0.973
370.43	0.997
370.78	0.973
371.14	0.931
371.49	1.017
371.85	1.014
372.20	1.044
372.56	1.054
372.91	1.051
373.26	1.051
373.62	1.040
373.97	1.115
374.33	1.143
374.68	1.153
375.03	1.212
375.39	1.167
375.74	1.185
376.10	1.165
376.45	1.207
376.80	1.275
377.16	1.259
377.51	1.323
377.87	1.326
378.22	1.281
378.57	1.295
378.93	1.364
379.28	1.443
379.63	1.481
379.99	1.555
380.34	1.562
380.70	1.575
381.05	1.654
381.40	1.651
381.76	1.675
382.11	1.729
382.46	1.825
382.82	1.830
383.17	1.852
383.52	1.855
383.88	1.886
384.23	1.895
384.58	1.897
384.94	1.879
385.29	1.910
385.64	1.950
385.99	2.002
386.35	1.992
386.70	1.998
387.05	1.999
387.41	2.008
387.76	2.009
388.11	2.073
388.47	2.084
388.82	2.132
389.17	2.153
389.52	2.163
389.88	2.172
390.23	2.206
390.58	2.253
390.93	2.304
391.29	2.358
391.64	2.396
391.99	2.404
392.34	2.450
392.70	2.481
393.05	2.500
393.40	2.523
393.75	2.532
394.11	2.530
394.46	2.514
394.81	2.522
395.16	2.505
395.52	2.508
395.87	2.528
396.22	2.593
396.57	2.598
396.92	2.618
397.28	2.589
397.63	2.593
397.98	2.629
398.33	2.645
398.68	2.675
399.04	2.719
399.39	2.725
399.74	2.706
400.09	2.662
400.44	2.678
400.80	2.692
401.15	2.712
401.50	2.746
401.85	2.743
402.20	2.758
402.55	2.767
402.90	2.788
403.26	2.820
403.61	2.828
403.96	2.854
404.31	2.854
404.66	2.872
405.01	2.885
405.36	2.911
405.72	2.940
406.07	2.941
406.42	2.963
406.77	2.960
407.12	2.972
407.47	3.024
407.82	3.028
408.17	3.033
408.53	3.063
408.88	3.066
409.23	3.051
409.58	3.008
409.93	3.013
410.28	3.010
410.63	3.019
410.98	3.017
411.33	3.015
411.68	3.053
412.03	3.090
412.38	3.064
412.73	3.121
413.09	3.156
413.44	3.214
413.79	3.260
414.14	3.286
414.49	3.314
414.84	3.354
415.19	3.365
415.54	3.398
415.89	3.397
416.24	3.452
416.59	3.456
416.94	3.475
417.29	3.493
417.64	3.498
417.99	3.520
418.34	3.543
418.69	3.552
419.04	3.573
419.39	3.578
419.74	3.615
420.09	3.626
420.44	3.644
420.79	3.655
421.14	3.662
421.49	3.695
421.84	3.703
422.19	3.704
422.54	3.710
422.89	3.726
423.24	3.732
423.59	3.715
423.94	3.705
424.29	3.698
424.64	3.693
424.99	3.690
425.34	3.659
425.68	3.639
426.03	3.614
426.38	3.615
426.73	3.573
427.08	3.557
427.43	3.575
427.78	3.567
428.13	3.533
428.48	3.537
428.83	3.532
429.18	3.541
429.53	3.543
429.87	3.543
430.22	3.516
430.57	3.555
430.92	3.552
431.27	3.552
431.62	3.549
431.97	3.581
432.32	3.572
432.67	3.581
433.01	3.561
433.36	3.540
433.71	3.542
434.06	3.538
434.41	3.516
434.76	3.528
435.11	3.525
435.45	3.517
435.80	3.522
436.15	3.540
436.50	3.551
436.85	3.585
437.20	3.607
437.54	3.621
437.89	3.652
438.24	3.665
438.59	3.659
438.94	3.672
439.29	3.686
439.63	3.697
439.98	3.702
440.33	3.697
440.68	3.708
441.03	3.723
441.37	3.746
441.72	3.765
442.07	3.785
442.42	3.809
442.76	3.834
443.11	3.862
443.46	3.901
443.81	3.928
444.16	3.965
444.50	3.978
444.85	3.998
445.20	4.029
445.55	4.046
445.89	4.069
446.24	4.092
446.59	4.091
446.94	4.116
447.28	4.113
447.63	4.122
447.98	4.129
448.32	4.144
448.67	4.161
449.02	4.156
449.37	4.151
449.71	4.170
450.06	4.175
450.41	4.194
450.75	4.198
451.10	4.212
451.45	4.211
451.79	4.213
452.14	4.221
452.49	4.231
452.84	4.244
453.18	4.264
453.53	4.258
453.88	4.274
454.22	4.296
454.57	4.319
454.92	4.331
455.26	4.366
455.61	4.410
455.95	4.440
456.30	4.453
456.65	4.482
456.99	4.510
457.34	4.523
457.69	4.544
458.03	4.554
458.38	4.570
458.73	4.576
459.07	4.574
459.42	4.553
459.76	4.537
460.11	4.520
460.46	4.494
460.80	4.470
461.15	4.469
461.49	4.424
461.84	4.415
462.19	4.393
462.53	4.385
462.88	4.374
463.22	4.375
463.57	4.375
463.91	4.388
464.26	4.391
464.61	4.395
464.95	4.376
465.30	4.386
465.64	4.396
465.99	4.404
466.33	4.406
466.68	4.402
467.02	4.388
467.37	4.379
467.71	4.364
468.06	4.366
468.41	4.347
468.75	4.353
469.10	4.360
469.44	4.326
469.79	4.303
470.13	4.267
470.48	4.261
470.82	4.264
471.17	4.271
471.51	4.263
471.86	4.240
472.20	4.235
472.55	4.218
472.89	4.223
473.23	4.213
473.58	4.219
473.92	4.240
474.27	4.222
474.61	4.212
474.96	4.199
475.30	4.211
475.65	4.199
475.99	4.211
476.34	4.227
476.68	4.216
477.02	4.230
477.37	4.230
477.71	4.268
478.06	4.317
478.40	4.377
478.75	4.438
479.09	4.511
479.43	4.628
479.78	4.754
480.12	4.883
480.47	5.023
480.81	5.162
481.15	5.277
481.50	5.391
481.84	5.528
482.19	5.669
482.53	5.791
482.87	5.886
483.22	5.916
483.56	5.872
483.90	5.782
484.25	5.666
484.59	5.543
484.94	5.450
485.28	5.359
485.62	5.257
485.97	5.129
486.31	5.036
486.65	4.959
487.00	4.934
487.34	4.949
487.68	5.003
488.03	5.066
488.37	5.136
488.71	5.175
489.06	5.191
489.40	5.193
489.74	5.208
490.09	5.215
490.43	5.216
490.77	5.206
491.11	5.213
491.46	5.217
491.80	5.214
492.14	5.190
492.49	5.200
492.83	5.204
493.17	5.206
493.51	5.220
493.86	5.226
494.20	5.254
494.54	5.292
494.88	5.329
495.23	5.378
495.57	5.439
495.91	5.517
496.25	5.572
496.60	5.623
496.94	5.678
497.28	5.741
497.62	5.801
497.97	5.870
498.31	5.928
498.65	5.988
498.99	6.032
499.33	6.104
499.68	6.183
500.02	6.265
500.36	6.344
500.70	6.432
501.04	6.491
501.39	6.563
501.73	6.644
502.07	6.734
502.41	6.819
502.75	6.934
503.09	7.015
503.44	7.096
503.78	7.177
504.12	7.266
504.46	7.379
504.80	7.502
505.14	7.630
505.49	7.723
505.83	7.845
506.17	7.971
506.51	8.090
506.85	8.212
507.19	8.340
507.53	8.471
507.87	8.614
508.22	8.714
508.56	8.822
508.90	8.927
509.24	9.068
509.58	9.169
509.92	9.290
510.26	9.385
510.60	9.510
510.94	9.607
511.28	9.698
511.63	9.804
511.97	9.929
512.31	10.063
512.65	10.196
512.99	10.323
513.33	10.499
513.67	10.647
514.01	10.822
514.35	10.989
514.69	11.159
515.03	11.323
515.37	11.494
515.71	11.651
516.05	11.786
516.39	11.926
516.73	12.061
517.07	12.178
517.41	12.281
517.75	12.389
518.09	12.504
518.43	12.592
518.77	12.681
519.11	12.776
519.45	12.866
519.79	12.998
520.13	13.109
520.47	13.225
520.81	13.327
521.15	13.485
521.49	13.619
521.83	13.746
522.17	13.895
522.51	14.085
522.85	14.252
523.19	14.448
523.53	14.646
523.87	14.868
524.21	15.102
524.55	15.350
524.89	15.559
525.23	15.781
525.57	15.974
525.91	16.160
526.25	16.317
526.58	16.472
526.92	16.601
527.26	16.690
527.60	16.759
527.94	16.823
528.28	16.855
528.62	16.880
528.96	16.878
529.30	16.870
529.64	16.867
529.97	16.868
530.31	16.844
530.65	16.840
530.99	16.874
531.33	16.912
531.67	16.932
532.01	16.949
532.35	16.979
532.68	17.006
533.02	17.034
533.36	17.042
533.70	17.043
534.04	17.053
534.38	17.061
534.71	17.059
535.05	17.070
535.39	17.083
535.73	17.125
536.07	17.145
536.41	17.151
536.74	17.165
537.08	17.208
537.42	17.274
537.76	17.345
538.10	17.406
538.43	17.486
538.77	17.551
539.11	17.615
539.45	17.679
539.79	17.741
540.12	17.798
540.46	17.855
540.80	17.887
541.14	17.881
541.47	17.863
541.81	17.861
542.15	17.828
542.49	17.803
542.82	17.752
543.16	17.683
543.50	17.641
543.84	17.615
544.17	17.565
544.51	17.549
544.85	17.532
545.18	17.548
545.52	17.542
545.86	17.534
546.20	17.534
546.53	17.539
546.87	17.536
547.21	17.503
547.54	17.464
547.88	17.462
548.22	17.407
548.55	17.388
548.89	17.361
549.23	17.333
549.56	17.340
549.90	17.332
550.24	17.345
550.57	17.347
550.91	17.341
551.25	17.373
551.58	17.367
551.92	17.392
552.26	17.388
552.59	17.395
552.93	17.428
553.27	17.405
553.60	17.380
553.94	17.337
554.27	17.341
554.61	17.331
554.95	17.275
555.28	17.259
555.62	17.215
555.95	17.219
556.29	17.195
556.63	17.134
556.96	17.103
557.30	17.065
557.63	17.035
557.97	16.997
558.31	16.959
558.64	16.937
558.98	16.884
559.31	16.875
559.65	16.821
559.98	16.771
560.32	16.720
560.65	16.664
560.99	16.606
561.33	16.577
561.66	16.523
562.00	16.477
562.33	16.411
562.67	16.364
563.00	16.329
563.34	16.279
563.67	16.241
564.01	16.197
564.34	16.143
564.68	16.111
565.01	16.051
565.35	16.012
565.68	15.969
566.02	15.917
566.35	15.845
566.69	15.737
567.02	15.673
567.36	15.567
567.69	15.484
568.03	15.428
568.36	15.357
568.69	15.288
569.03	15.206
569.36	15.132
569.70	15.062
570.03	15.027
570.37	14.988
570.70	14.944
571.04	14.905
571.37	14.857
571.70	14.813
572.04	14.742
572.37	14.680
572.71	14.614
573.04	14.556
573.37	14.519
573.71	14.450
574.04	14.380
574.38	14.273
574.71	14.208
575.04	14.138
575.38	14.043
575.71	13.985
576.05	13.906
576.38	13.851
576.71	13.768
577.05	13.715
577.38	13.616
577.71	13.556
578.05	13.507
578.38	13.439
578.71	13.365
579.05	13.309
579.38	13.245
579.71	13.192
580.05	13.114
580.38	13.054
580.71	12.974
581.05	12.953
581.38	12.885
581.71	12.848
582.05	12.820
582.38	12.788
582.71	12.745
583.04	12.715
583.38	12.672
583.71	12.640
584.04	12.623
584.38	12.586
584.71	12.557
585.04	12.538
585.37	12.502
585.71	12.449
586.04	12.424
586.37	12.422
586.70	12.407
587.04	12.406
587.37	12.401
587.70	12.361
588.03	12.358
588.37	12.354
588.70	12.352
589.03	12.341
589.36	12.334
589.69	12.303
590.03	12.280
590.36	12.234
590.69	12.168
591.02	12.108
591.35	12.088
591.69	12.047
592.02	12.001
592.35	11.942
592.68	11.899
593.01	11.852
593.35	11.835
593.68	11.827
594.01	11.820
594.34	11.803
594.67	11.789
595.00	11.765
595.34	11.713
595.67	11.668
596.00	11.673
596.33	11.634
596.66	11.591
596.99	11.551
597.32	11.468
597.65	11.426
597.99	11.380
598.32	11.316
598.65	11.247
598.98	11.200
599.31	11.173
599.64	11.127
599.97	11.063
600.30	11.053
600.63	11.055
600.96	11.061
601.30	11.058
601.63	11.081
601.96	11.101
602.29	11.095
602.62	11.112
602.95	11.119
603.28	11.108
603.61	11.125
603.94	11.102
604.27	11.086
604.60	11.022
604.93	10.974
605.26	10.912
605.59	10.867
605.92	10.838
606.25	10.751
606.58	10.678
606.91	10.596
607.24	10.538
607.57	10.488
607.90	10.417
608.23	10.385
608.56	10.322
608.89	10.268
609.22	10.198
609.55	10.140
609.88	10.101
610.21	10.047
610.54	9.989
610.87	9.923
611.20	9.859
611.53	9.779
611.86	9.720
612.19	9.653
612.52	9.588
612.85	9.548
613.18	9.496
613.51	9.426
613.84	9.344
614.17	9.301
614.49	9.282
614.82	9.220
615.15	9.176
615.48	9.163
615.81	9.102
616.14	9.054
616.47	8.980
616.80	8.893
617.13	8.859
617.46	8.837
617.78	8.795
618.11	8.750
618.44	8.728
618.77	8.684
619.10	8.626
619.43	8.615
619.76	8.583
620.09	8.582
620.41	8.612
620.74	8.612
621.07	8.600
621.40	8.596
621.73	8.581
622.06	8.586
622.38	8.601
622.71	8.610
623.04	8.658
623.37	8.690
623.70	8.712
624.02	8.729
624.35	8.743
624.68	8.778
625.01	8.798
625.34	8.840
625.66	8.831
625.99	8.849
626.32	8.843
626.65	8.805
626.98	8.788
627.30	8.757
627.63	8.728
627.96	8.701
628.29	8.629
628.61	8.604
628.94	8.514
629.27	8.479
629.60	8.422
629.92	8.402
630.25	8.361
630.58	8.319
630.91	8.298
631.23	8.265
631.56	8.257
631.89	8.251
632.21	8.217
632.54	8.215
632.87	8.176
633.19	8.145
633.52	8.081
633.85	8.035
634.18	8.008
634.50	7.930
634.83	7.869
635.16	7.753
635.48	7.667
635.81	7.573
636.14	7.479
636.46	7.384
636.79	7.313
637.11	7.243
637.44	7.145
637.77	7.029
638.09	6.934
638.42	6.834
638.75	6.779
639.07	6.695
639.40	6.612
639.73	6.531
640.05	6.458
640.38	6.387
640.70	6.295
641.03	6.238
641.36	6.175
641.68	6.100
642.01	6.022
642.33	5.946
642.66	5.921
642.98	5.836
643.31	5.783
643.64	5.724
643.96	5.682
644.29	5.627
644.61	5.581
644.94	5.540
645.26	5.519
645.59	5.520
645.91	5.494
646.24	5.466
646.56	5.473
646.89	5.432
647.22	5.393
647.54	5.329
647.87	5.299
648.19	5.276
648.52	5.237
648.84	5.238
649.17	5.173
649.49	5.150
649.82	5.091
650.14	5.057
650.47	5.052
650.79	5.082
651.11	5.057
651.44	5.065
651.76	5.037
652.09	5.031
652.41	5.038
652.74	5.065
653.06	5.057
653.39	5.069
653.71	5.079
654.04	5.052
654.36	5.054
654.68	5.059
655.01	5.071
655.33	5.083
655.66	5.094
655.98	5.082
656.30	5.051
656.63	5.062
656.95	5.064
657.28	5.047
657.60	5.062
657.92	5.028
658.25	4.991
658.57	4.974
658.90	4.920
659.22	4.866
659.54	4.799
659.87	4.779
660.19	4.686
660.51	4.604
660.84	4.511
661.16	4.419
661.48	4.341
661.81	4.288
662.13	4.219
662.45	4.199
662.78	4.187
663.10	4.165
663.42	4.123
663.75	4.133
664.07	4.098
664.39	4.097
664.72	4.113
665.04	4.182
665.36	4.232
665.69	4.255
666.01	4.314
666.33	4.365
666.65	4.392
666.98	4.462
667.30	4.550
667.62	4.634
667.94	4.717
668.27	4.804
668.59	4.872
668.91	4.937
669.23	5.013
669.56	5.059
669.88	5.187
670.20	5.274
670.52	5.368
670.85	5.402
671.17	5.519
671.49	5.621
671.81	5.754
672.13	5.854
672.46	5.998
672.78	6.157
673.10	6.318
673.42	6.389
673.74	6.546
674.07	6.711
674.39	6.978
674.71	7.094
675.03	7.295
675.35	7.470
675.67	7.603
676.00	7.736
676.32	7.832
676.64	7.975
676.96	8.157
677.28	8.358
677.60	8.525
677.92	8.635
678.25	8.791
678.57	8.944
678.89	9.059
679.21	9.248
679.53	9.417
679.85	9.614
680.17	9.792
680.49	10.000
680.81	10.192
681.13	10.374
681.46	10.572
681.78	10.865
682.10	11.104
682.42	11.363
682.74	11.629
683.06	11.888
683.38	12.164
683.70	12.492
684.02	12.683
684.34	12.952
684.66	13.202
684.98	13.476
685.30	13.653
685.62	13.890
685.94	14.095
686.26	14.238
686.58	14.406
686.90	14.577
687.22	14.718
687.54	14.902
687.86	14.971
688.18	15.103
688.50	15.221
688.82	15.417
689.14	15.594
689.46	15.828
689.78	16.032
690.10	16.266
690.42	16.507
690.74	16.751
691.06	16.919
691.38	17.203
691.70	17.467
692.02	17.739
692.34	17.968
692.66	18.103
692.98	18.266
693.30	18.523
693.62	18.745
693.94	18.863
694.26	18.950
694.57	19.119
694.89	19.222
695.21	19.341
695.53	19.470
695.85	19.635
696.17	19.817
696.49	19.972
696.81	20.095
697.13	20.241
697.44	20.447
697.76	20.654
698.08	20.956
698.40	21.232
698.72	21.481
699.04	21.751
699.36	22.021
699.67	22.278
699.99	22.543
700.31	22.875
700.63	23.127
700.95	23.431
701.27	23.628
701.58	23.834
701.90	24.067
702.22	24.317
702.54	24.468
702.86	24.623
703.17	24.795
703.49	24.988
703.81	25.216
704.13	25.343
704.45	25.499
704.76	25.797
705.08	25.978
705.40	26.050
705.72	26.112
706.03	26.339
706.35	26.499
706.67	26.618
706.99	26.769
707.30	26.851
707.62	27.028
707.94	27.120
708.26	27.155
708.57	27.239
708.89	27.413
709.21	27.627
709.53	27.693
709.84	27.799
710.16	28.000
710.48	28.188
710.79	28.325
711.11	28.513
711.43	28.611
711.74	28.800
712.06	29.018
712.38	29.243
712.69	29.362
713.01	29.585
713.33	29.820
713.64	30.049
713.96	30.180
714.28	30.446
714.59	30.764
714.91	31.136
715.23	31.539
715.54	31.685
715.86	31.947
716.17	32.227
716.49	32.568
716.81	32.858
717.12	33.106
717.44	33.372
717.76	33.631
718.07	33.750
718.39	33.819
718.70	33.814
719.02	34.053
719.33	34.230
719.65	34.355
719.97	34.309
720.28	34.436
720.60	34.586
720.91	34.737
721.23	34.824
721.54	35.012
721.86	35.238
722.17	35.470
722.49	35.675
722.81	35.695
723.12	35.897
723.44	36.130
723.75	36.282
724.07	36.371
724.38	36.529
724.70	36.680
725.01	36.757
725.33	36.899
725.64	36.997
725.96	37.138
726.27	37.191
726.59	37.258
726.90	37.455
727.22	37.288
727.53	37.415
727.84	37.493
728.16	37.458
728.47	37.518
728.79	37.539
729.10	37.577
729.42	37.537
729.73	37.640
730.05	37.802
730.36	37.721
730.67	38.004
730.99	38.013
731.30	38.016
731.62	38.199
731.93	38.271
732.24	38.389
732.56	38.576
732.87	38.763
733.19	38.889
733.50	38.917
733.81	39.072
734.13	39.105
734.44	39.201
734.76	39.286
735.07	39.369
735.38	39.454
735.70	39.533
736.01	39.537
736.32	39.647
736.64	39.835
736.95	39.829
737.26	39.829
737.58	39.948
737.89	40.004
738.20	40.130
738.52	40.139
738.83	40.195
739.14	40.228
739.45	40.347
739.77	40.207
740.08	40.055
740.39	40.103
740.71	40.155
741.02	40.065
741.33	40.132
741.64	40.078
741.96	40.183
742.27	40.098
742.58	40.118
742.90	40.033
743.21	40.098
743.52	40.295
743.83	40.298
744.14	40.492
744.46	40.781
744.77	40.801
745.08	40.824
745.39	40.701
745.71	40.931
746.02	40.966
746.33	40.916
746.64	40.870
746.95	40.864
747.27	41.006
747.58	40.927
747.89	40.804
748.20	40.649
748.51	40.859
748.82	40.779
749.14	40.870
749.45	40.795
749.76	40.874
750.07	40.982
750.38	41.056
750.69	41.015
751.01	40.901
751.32	40.903
751.63	41.096
751.94	40.924
752.25	40.980
752.56	40.816
752.87	40.698
753.18	40.537
753.49	40.611
753.81	40.497
754.12	40.252
754.43	40.310
754.74	40.197
755.05	40.227
755.36	40.371
755.67	40.490
755.98	40.657
756.29	41.009
756.60	41.427
756.91	41.390
757.22	41.598
757.53	41.987
757.84	42.218
758.15	42.620
758.46	42.809
758.77	42.799
759.09	42.918
759.40	42.879
759.71	42.769
760.02	42.620
760.33	42.573
760.64	42.493
760.95	42.494
761.26	42.301
761.57	42.084
761.88	41.846
762.18	41.830
762.49	41.749
762.80	41.768
763.11	41.819
763.42	41.785
763.73	41.727
764.04	41.654
764.35	41.541
764.66	41.492
764.97	41.426
765.28	41.640
765.59	41.519
765.90	41.286
766.21	40.902
766.52	40.630
766.83	40.415
767.14	40.199
767.44	39.988
767.75	39.771
768.06	39.838
768.37	39.597
768.68	39.276
768.99	39.204
769.30	39.048
769.61	39.003
769.91	38.795
770.22	38.544
770.53	38.594
770.84	38.497
771.15	38.535
771.46	38.242
771.77	38.237
772.07	37.997
772.38	37.994
772.69	38.033
773.00	38.162
773.31	38.272
773.61	38.251
773.92	38.279
774.23	38.394
774.54	38.269
774.85	37.955
775.15	38.021
775.46	38.014
775.77	37.743
776.08	37.698
776.39	37.492
776.69	37.510
777.00	37.577
777.31	37.517
777.62	37.394
777.92	37.266
778.23	37.645
778.54	37.621
778.85	37.538
779.15	37.684
779.46	37.689
779.77	37.752
780.07	37.743
780.38	37.970
780.69	38.106
781.00	38.387
781.30	38.358
781.61	37.905
781.92	37.678
782.22	38.029
782.53	37.657
782.84	38.038
783.14	38.058
783.45	38.186
783.76	38.125
784.06	37.881
784.37	37.684
784.68	37.941
784.98	38.188
785.29	38.399
785.60	38.291
785.90	38.598
786.21	38.329
786.51	38.327
786.82	38.324
787.13	38.495
787.43	38.762
787.74	39.007
788.04	39.069
788.35	39.405
788.66	39.422
788.96	39.673
789.27	39.832
789.57	39.992
789.88	40.176
790.19	40.031
790.49	39.911
790.80	39.931
791.10	39.649
791.41	39.671
791.71	39.318
792.02	39.448
792.32	39.185
792.63	39.000
792.93	39.105
793.24	39.055
793.54	39.251
793.85	39.255
794.15	39.034
794.46	39.198
794.76	38.957
795.07	39.279
795.37	39.134
795.68	39.131
795.98	39.309
796.29	39.472
796.59	39.571
796.90	39.682
797.20	39.477
797.51	39.631
797.81	39.322
798.12	39.546
798.42	39.548
798.72	40.082
799.03	40.116
799.33	40.048
799.64	40.065
799.94	40.078
800.25	39.537
800.55	39.960
800.85	40.263
801.16	40.566
801.46	40.579
801.77	40.349
802.07	39.945
802.37	40.074
802.68	40.023
802.98	39.892
803.28	39.777
803.59	40.413
803.89	40.330
804.20	40.359
804.50	40.426
804.80	40.218
805.11	40.431
805.41	40.290
805.71	40.089
806.02	40.048
806.32	40.177
806.62	40.470
806.93	40.080
807.23	40.133
807.53	40.098
807.83	40.656
808.14	41.125
808.44	41.209
808.74	41.109
809.05	41.271
809.35	41.506
809.65	41.784
809.95	41.731
810.26	42.207
810.56	42.002
810.86	41.722
811.16	41.137
811.47	41.322
811.77	41.661
812.07	42.047
812.37	42.215
812.68	42.199
812.98	42.048
813.28	42.188
813.58	42.226
813.88	42.097
814.19	42.707
814.49	42.840
814.79	42.573
815.09	42.623
815.39	42.765
815.70	42.695
816.00	42.969
816.30	42.838
816.60	42.706
816.90	42.186
817.20	42.602
817.50	42.192
817.81	41.509
818.11	41.185
818.41	40.853
818.71	40.792
819.01	40.933
819.31	41.260
819.61	41.511
819.92	41.852
820.22	42.300
820.52	42.540
820.82	42.837
821.12	43.365
821.42	43.809
821.72	44.313
822.02	44.841
822.32	45.366
822.62	45.784
822.92	46.129
823.22	46.401
823.52	46.734
823.83	46.949
824.13	47.142
824.43	47.153
824.73	47.277
825.03	47.255
825.33	47.175
825.63	46.937
825.93	46.649
826.23	46.479
826.53	46.586
826.83	46.520
827.13	46.788
827.43	46.989
827.73	47.371
828.03	47.752
828.33	48.052
828.63	48.149
828.93	48.244
829.23	48.093
829.53	48.130
829.83	47.390
830.13	46.754
830.42	45.894
830.72	45.486
831.02	45.081
831.32	44.820
831.62	44.629
831.92	44.675
832.22	44.629
832.52	44.588
832.82	44.702
833.12	44.957
833.42	45.404
833.72	45.661
834.01	45.798
834.31	46.201
834.61	46.307
834.91	46.738
835.21	46.909
835.51	47.302
835.81	47.765
836.11	47.995
836.40	48.570
836.70	48.123
837.00	48.460
837.30	48.388
837.60	47.632
837.90	46.897
838.19	45.729
838.49	45.269
838.79	44.694
839.09	44.879
839.39	44.674
839.68	44.388
839.98	43.795
840.28	43.252
840.58	43.741
840.88	44.032
841.17	44.405
841.47	45.489
841.77	45.483
842.07	45.717
842.36	45.213
842.66	45.288
842.96	45.165
843.26	45.678
843.55	45.449
843.85	45.708
844.15	46.309
844.45	45.072
844.74	44.573
845.04	44.114
845.34	43.973
845.63	42.713
845.93	43.963
846.23	43.677
846.53	43.960
846.82	43.081
847.12	42.017
847.42	40.442
847.71	41.031
848.01	41.087
848.31	41.256
848.60	40.890
848.90	41.329
849.19	39.720
849.49	39.810
849.79	41.147
850.08	42.407
850.38	41.609
850.68	43.379
850.97	44.978
851.27	44.411
851.56	45.265
851.86	44.842
852.16	46.238
852.45	44.816
852.75	43.774
853.04	42.645
853.34	43.645
853.64	44.818
853.93	42.314
854.23	40.953
854.52	39.885
854.82	39.975
855.11	40.151
855.41	40.761
855.70	42.833
856.00	44.286
856.30	44.811
856.59	44.462
856.89	44.663
857.18	45.948
857.48	46.366
857.77	46.070
858.07	46.119
858.36	45.067
858.66	45.170
858.95	44.840
859.25	44.923
859.54	45.247
859.84	45.567
860.13	44.976
860.42	45.490
860.72	44.950
861.01	46.031
861.31	46.116
861.60	47.786
861.90	47.772
862.19	48.280
862.49	47.036
862.78	45.139
863.07	45.453
863.37	45.655
863.66	45.311
863.96	47.789
864.25	48.004
864.54	47.238
864.84	47.841
865.13	48.178
865.43	48.326
865.72	47.788
866.01	45.566
866.31	52.166
866.60	55.669
866.89	51.810
>>>>>End Spectral Data<<<<<
