OOIBase32 Version 2.0.0.6 Data File
++++++++++++++++++++++++++++++++++++
Date: 01-23-2012, 23:16:37
User: Valued Ocean Optics Customer
Spectrometer Serial Number: USB2E2917
Spectrometer Channel: Master
Integration Time (msec): 5
Spectra Averaged: 10
Boxcar Smoothing: 5
Correct for Electrical Dark: Enabled
Time Normalized: Disabled
Dual-beam Reference: Disabled
Reference Channel: Master
Temperature: Not acquired
Spectrometer Type: S2000
ADC Type: USB2000
Number of Pixels in File: 2048
Graph Title: 
>>>>>Begin Spectral Data<<<<<
180.30	0.000
180.67	0.000
181.03	-142.784
181.40	273.696
181.77	12889.450
182.14	43.123
182.51	-887.353
182.88	180.178
183.25	76.334
183.62	52.211
183.99	64.023
184.36	-27.750
184.73	259.912
185.10	12.748
185.46	59.852
185.83	-87.972
186.20	-1539.839
186.57	75.083
186.94	-53.197
187.31	44.468
187.68	16.782
188.05	103.356
188.42	65.727
188.78	72.156
189.15	94.803
189.52	-4.497
189.89	9.443
190.26	20.393
190.63	37.445
191.00	27.423
191.37	25.835
191.73	40.726
192.10	36.759
192.47	35.784
192.84	29.262
193.21	35.304
193.58	27.292
193.94	13.041
194.31	9.993
194.68	-0.010
195.05	-9.468
195.42	-9.201
195.79	-33.686
196.15	-34.860
196.52	-66.799
196.89	-68.824
197.26	-69.449
197.63	-20.993
198.00	15.370
198.36	9.015
198.73	-5.102
199.10	7.077
199.47	13.563
199.84	30.897
200.20	17.937
200.57	17.753
200.94	12.320
201.31	20.600
201.68	-2.327
202.04	-0.012
202.41	-2.908
202.78	-6.995
203.15	-23.205
203.51	-40.398
203.88	-57.771
204.25	-54.081
204.62	-64.591
204.98	-70.348
205.35	-77.906
205.72	-76.251
206.09	-77.791
206.46	-137.042
206.82	-117.280
207.19	-110.656
207.56	-165.950
207.92	-131.013
208.29	-145.499
208.66	-84.099
209.03	-83.630
209.39	-52.422
209.76	-40.687
210.13	-107.598
210.50	-62.154
210.86	-41.189
211.23	-44.045
211.60	-17.779
211.96	-13.153
212.33	-9.418
212.70	-21.272
213.07	-24.885
213.43	-86.132
213.80	-100.459
214.17	-53.455
214.53	-47.082
214.90	-39.634
215.27	-23.217
215.63	-26.139
216.00	-27.447
216.37	-18.814
216.74	-18.289
217.10	-11.026
217.47	0.477
217.84	6.266
218.20	7.367
218.57	10.037
218.94	9.534
219.30	4.147
219.67	-0.429
220.04	-0.659
220.40	-9.722
220.77	-15.886
221.13	-11.337
221.50	-10.941
221.87	-13.695
222.23	-20.259
222.60	-29.599
222.97	-29.385
223.33	-27.616
223.70	-23.925
224.07	-23.724
224.43	-19.306
224.80	-14.849
225.16	-17.160
225.53	-14.784
225.90	-14.947
226.26	-10.455
226.63	-6.222
226.99	-4.970
227.36	-3.445
227.73	-0.001
228.09	0.765
228.46	2.711
228.82	3.215
229.19	3.163
229.56	2.701
229.92	5.170
230.29	5.499
230.65	4.093
231.02	2.339
231.38	-0.392
231.75	-3.841
232.12	-4.558
232.48	-7.831
232.85	-8.759
233.21	-8.637
233.58	-10.771
233.94	-11.063
234.31	-13.657
234.68	-14.618
235.04	-14.482
235.41	-11.868
235.77	-10.270
236.14	-10.228
236.50	-7.563
236.87	-6.901
237.23	-4.865
237.60	-3.960
237.96	-4.125
238.33	-3.234
238.69	-2.411
239.06	-1.433
239.42	-1.117
239.79	-1.622
240.15	-1.336
240.52	-1.320
240.88	-1.049
241.25	-1.336
241.61	-0.717
241.98	-0.700
242.34	-0.691
242.71	-0.499
243.07	-0.625
243.44	-0.900
243.80	-0.430
244.17	-0.347
244.53	-0.930
244.90	-1.034
245.26	-0.923
245.63	-1.114
245.99	-1.144
246.36	-1.325
246.72	-0.977
247.09	-1.241
247.45	-1.112
247.81	-1.393
248.18	-1.560
248.54	-1.073
248.91	-1.175
249.27	-0.953
249.64	-0.470
250.00	-0.269
250.36	-0.155
250.73	-0.904
251.09	-0.486
251.46	-0.657
251.82	-0.758
252.19	-0.765
252.55	-1.070
252.91	-0.693
253.28	-0.997
253.64	-1.888
254.01	-2.190
254.37	-1.710
254.73	-1.172
255.10	-1.047
255.46	-0.533
255.83	-0.271
256.19	-0.217
256.55	-0.390
256.92	-0.398
257.28	-0.539
257.65	-0.220
258.01	-0.028
258.37	-0.091
258.74	-0.235
259.10	-0.359
259.46	-0.607
259.83	-0.773
260.19	-0.760
260.55	-0.617
260.92	-0.699
261.28	-0.517
261.64	-0.561
262.01	-0.598
262.37	-0.485
262.73	-0.301
263.10	-0.092
263.46	0.016
263.82	0.118
264.19	-0.144
264.55	-0.624
264.91	-0.647
265.28	-0.840
265.64	-1.124
266.00	-1.375
266.37	-1.536
266.73	-1.790
267.09	-1.820
267.46	-1.856
267.82	-2.094
268.18	-1.772
268.54	-1.214
268.91	-1.151
269.27	-1.181
269.63	-0.761
270.00	-0.727
270.36	-0.726
270.72	-0.454
271.08	-0.503
271.45	-0.666
271.81	-0.546
272.17	-0.612
272.53	-0.811
272.90	-0.986
273.26	-0.794
273.62	-1.105
273.98	-1.162
274.35	-1.147
274.71	-1.397
275.07	-1.464
275.43	-1.314
275.80	-1.268
276.16	-1.495
276.52	-1.604
276.88	-1.556
277.25	-1.792
277.61	-1.907
277.97	-1.952
278.33	-1.713
278.69	-1.757
279.06	-1.771
279.42	-1.730
279.78	-1.497
280.14	-1.173
280.50	-0.998
280.87	-0.794
281.23	-0.645
281.59	-0.373
281.95	-0.178
282.31	-0.223
282.68	-0.359
283.04	-0.415
283.40	-0.360
283.76	-0.490
284.12	-0.340
284.48	-0.273
284.85	-0.253
285.21	-0.214
285.57	-0.426
285.93	-0.537
286.29	-0.687
286.65	-0.476
287.02	-0.149
287.38	-0.195
287.74	-0.186
288.10	-0.442
288.46	-0.575
288.82	-0.655
289.18	-0.659
289.54	-0.489
289.91	-0.355
290.27	-0.324
290.63	-0.231
290.99	-0.340
291.35	-0.215
291.71	-0.123
292.07	-0.250
292.43	-0.305
292.79	-0.314
293.16	-0.397
293.52	-0.358
293.88	-0.292
294.24	-0.249
294.60	-0.181
294.96	-0.167
295.32	-0.067
295.68	-0.160
296.04	-0.036
296.40	0.190
296.76	0.188
297.12	0.177
297.49	0.030
297.85	-0.171
298.21	-0.267
298.57	-0.587
298.93	-0.589
299.29	-0.842
299.65	-0.706
300.01	-0.723
300.37	-0.761
300.73	-0.514
301.09	-0.490
301.45	-0.388
301.81	-0.174
302.17	-0.084
302.53	0.008
302.89	-0.183
303.25	-0.046
303.61	-0.121
303.97	-0.200
304.33	-0.259
304.69	-0.473
305.05	-0.481
305.41	-0.463
305.77	-0.469
306.13	-0.418
306.49	-0.378
306.85	-0.295
307.21	-0.350
307.57	-0.296
307.93	-0.142
308.29	-0.012
308.65	0.067
309.01	0.082
309.37	0.042
309.73	-0.029
310.09	0.053
310.45	0.079
310.81	0.070
311.17	-0.000
311.53	-0.075
311.89	-0.114
312.25	-0.229
312.61	-0.327
312.96	-0.317
313.32	-0.297
313.68	-0.318
314.04	-0.536
314.40	-0.498
314.76	-0.480
315.12	-0.413
315.48	-0.324
315.84	-0.334
316.20	-0.419
316.56	-0.423
316.92	-0.457
317.27	-0.498
317.63	-0.465
317.99	-0.380
318.35	-0.538
318.71	-0.552
319.07	-0.513
319.43	-0.494
319.79	-0.436
320.15	-0.357
320.50	-0.283
320.86	-0.248
321.22	-0.241
321.58	-0.342
321.94	-0.419
322.30	-0.384
322.66	-0.375
323.01	-0.441
323.37	-0.470
323.73	-0.476
324.09	-0.523
324.45	-0.502
324.81	-0.574
325.17	-0.512
325.52	-0.434
325.88	-0.443
326.24	-0.339
326.60	-0.391
326.96	-0.320
327.31	-0.405
327.67	-0.578
328.03	-0.652
328.39	-0.803
328.75	-0.748
329.11	-0.731
329.46	-0.753
329.82	-0.735
330.18	-0.783
330.54	-0.754
330.90	-0.840
331.25	-0.825
331.61	-0.633
331.97	-0.502
332.33	-0.421
332.68	-0.363
333.04	-0.442
333.40	-0.484
333.76	-0.478
334.11	-0.500
334.47	-0.475
334.83	-0.493
335.19	-0.483
335.54	-0.505
335.90	-0.530
336.26	-0.502
336.62	-0.567
336.97	-0.595
337.33	-0.605
337.69	-0.630
338.05	-0.645
338.40	-0.638
338.76	-0.591
339.12	-0.530
339.48	-0.630
339.83	-0.634
340.19	-0.635
340.55	-0.618
340.90	-0.653
341.26	-0.677
341.62	-0.682
341.97	-0.668
342.33	-0.636
342.69	-0.552
343.04	-0.542
343.40	-0.558
343.76	-0.689
344.12	-0.719
344.47	-0.669
344.83	-0.581
345.19	-0.433
345.54	-0.331
345.90	-0.279
346.26	-0.194
346.61	-0.218
346.97	-0.291
347.32	-0.266
347.68	-0.171
348.04	-0.154
348.39	-0.218
348.75	-0.224
349.11	-0.268
349.46	-0.314
349.82	-0.362
350.18	-0.550
350.53	-0.542
350.89	-0.555
351.24	-0.572
351.60	-0.560
351.96	-0.535
352.31	-0.523
352.67	-0.515
353.02	-0.600
353.38	-0.605
353.74	-0.583
354.09	-0.540
354.45	-0.550
354.80	-0.526
355.16	-0.430
355.52	-0.378
355.87	-0.417
356.23	-0.362
356.58	-0.350
356.94	-0.303
357.29	-0.217
357.65	-0.174
358.00	-0.147
358.36	-0.157
358.72	-0.159
359.07	-0.152
359.43	-0.157
359.78	-0.110
360.14	-0.138
360.49	-0.161
360.85	-0.127
361.20	-0.143
361.56	-0.151
361.91	-0.123
362.27	-0.091
362.62	-0.003
362.98	0.021
363.33	0.002
363.69	0.008
364.04	0.048
364.40	0.089
364.75	0.080
365.11	0.080
365.46	0.047
365.82	0.093
366.17	0.106
366.53	0.094
366.88	0.056
367.24	0.103
367.59	0.095
367.95	0.109
368.30	0.095
368.66	0.122
369.01	0.096
369.37	0.183
369.72	0.208
370.08	0.246
370.43	0.258
370.78	0.301
371.14	0.285
371.49	0.327
371.85	0.335
372.20	0.378
372.56	0.445
372.91	0.525
373.26	0.548
373.62	0.515
373.97	0.516
374.33	0.519
374.68	0.522
375.03	0.583
375.39	0.575
375.74	0.606
376.10	0.624
376.45	0.653
376.80	0.687
377.16	0.670
377.51	0.745
377.87	0.791
378.22	0.822
378.57	0.862
378.93	0.905
379.28	0.976
379.63	1.021
379.99	1.109
380.34	1.147
380.70	1.191
381.05	1.260
381.40	1.291
381.76	1.367
382.11	1.422
382.46	1.522
382.82	1.575
383.17	1.598
383.52	1.600
383.88	1.590
384.23	1.596
384.58	1.581
384.94	1.603
385.29	1.644
385.64	1.657
385.99	1.735
386.35	1.763
386.70	1.774
387.05	1.804
387.41	1.874
387.76	1.928
388.11	1.941
388.47	2.009
388.82	2.080
389.17	2.115
389.52	2.149
389.88	2.182
390.23	2.221
390.58	2.309
390.93	2.385
391.29	2.436
391.64	2.512
391.99	2.615
392.34	2.659
392.70	2.636
393.05	2.666
393.40	2.692
393.75	2.712
394.11	2.733
394.46	2.715
394.81	2.730
395.16	2.737
395.52	2.736
395.87	2.740
396.22	2.787
396.57	2.807
396.92	2.818
397.28	2.822
397.63	2.820
397.98	2.827
398.33	2.850
398.68	2.880
399.04	2.907
399.39	2.912
399.74	2.915
400.09	2.917
400.44	2.977
400.80	3.003
401.15	2.998
401.50	3.042
401.85	3.065
402.20	3.066
402.55	3.072
402.90	3.056
403.26	3.062
403.61	3.068
403.96	3.068
404.31	3.052
404.66	3.048
405.01	3.072
405.36	3.053
405.72	3.045
406.07	3.051
406.42	3.039
406.77	3.063
407.12	3.078
407.47	3.096
407.82	3.092
408.17	3.107
408.53	3.096
408.88	3.105
409.23	3.110
409.58	3.070
409.93	3.092
410.28	3.109
410.63	3.102
410.98	3.097
411.33	3.089
411.68	3.107
412.03	3.157
412.38	3.140
412.73	3.168
413.09	3.177
413.44	3.221
413.79	3.217
414.14	3.216
414.49	3.251
414.84	3.286
415.19	3.308
415.54	3.308
415.89	3.288
416.24	3.350
416.59	3.356
416.94	3.385
417.29	3.401
417.64	3.395
417.99	3.419
418.34	3.441
418.69	3.442
419.04	3.449
419.39	3.462
419.74	3.482
420.09	3.474
420.44	3.480
420.79	3.476
421.14	3.484
421.49	3.491
421.84	3.496
422.19	3.486
422.54	3.491
422.89	3.485
423.24	3.485
423.59	3.478
423.94	3.463
424.29	3.455
424.64	3.448
424.99	3.434
425.34	3.444
425.68	3.416
426.03	3.393
426.38	3.379
426.73	3.365
427.08	3.326
427.43	3.312
427.78	3.326
428.13	3.305
428.48	3.298
428.83	3.291
429.18	3.287
429.53	3.294
429.87	3.284
430.22	3.263
430.57	3.280
430.92	3.306
431.27	3.290
431.62	3.267
431.97	3.273
432.32	3.257
432.67	3.229
433.01	3.212
433.36	3.189
433.71	3.195
434.06	3.187
434.41	3.159
434.76	3.149
435.11	3.153
435.45	3.166
435.80	3.163
436.15	3.185
436.50	3.212
436.85	3.233
437.20	3.247
437.54	3.243
437.89	3.256
438.24	3.278
438.59	3.274
438.94	3.271
439.29	3.272
439.63	3.288
439.98	3.272
440.33	3.264
440.68	3.271
441.03	3.281
441.37	3.295
441.72	3.314
442.07	3.318
442.42	3.343
442.76	3.376
443.11	3.394
443.46	3.419
443.81	3.459
444.16	3.494
444.50	3.503
444.85	3.520
445.20	3.533
445.55	3.546
445.89	3.551
446.24	3.560
446.59	3.544
446.94	3.551
447.28	3.533
447.63	3.522
447.98	3.526
448.32	3.534
448.67	3.543
449.02	3.549
449.37	3.552
449.71	3.575
450.06	3.587
450.41	3.630
450.75	3.634
451.10	3.664
451.45	3.661
451.79	3.648
452.14	3.650
452.49	3.645
452.84	3.648
453.18	3.654
453.53	3.658
453.88	3.675
454.22	3.668
454.57	3.690
454.92	3.698
455.26	3.735
455.61	3.791
455.95	3.814
456.30	3.846
456.65	3.871
456.99	3.890
457.34	3.911
457.69	3.914
458.03	3.927
458.38	3.930
458.73	3.923
459.07	3.928
459.42	3.894
459.76	3.878
460.11	3.846
460.46	3.806
460.80	3.777
461.15	3.742
461.49	3.716
461.84	3.693
462.19	3.676
462.53	3.670
462.88	3.640
463.22	3.632
463.57	3.609
463.91	3.605
464.26	3.619
464.61	3.615
464.95	3.604
465.30	3.596
465.64	3.603
465.99	3.609
466.33	3.607
466.68	3.586
467.02	3.575
467.37	3.584
467.71	3.579
468.06	3.576
468.41	3.569
468.75	3.574
469.10	3.570
469.44	3.541
469.79	3.522
470.13	3.477
470.48	3.485
470.82	3.488
471.17	3.482
471.51	3.474
471.86	3.463
472.20	3.457
472.55	3.459
472.89	3.465
473.23	3.466
473.58	3.468
473.92	3.491
474.27	3.497
474.61	3.482
474.96	3.478
475.30	3.486
475.65	3.490
475.99	3.494
476.34	3.498
476.68	3.496
477.02	3.511
477.37	3.533
477.71	3.562
478.06	3.585
478.40	3.662
478.75	3.730
479.09	3.823
479.43	3.927
479.78	4.046
480.12	4.157
480.47	4.279
480.81	4.398
481.15	4.507
481.50	4.632
481.84	4.762
482.19	4.882
482.53	4.995
482.87	5.063
483.22	5.077
483.56	5.043
483.90	4.970
484.25	4.873
484.59	4.766
484.94	4.666
485.28	4.576
485.62	4.466
485.97	4.350
486.31	4.261
486.65	4.193
487.00	4.171
487.34	4.183
487.68	4.211
488.03	4.262
488.37	4.317
488.71	4.359
489.06	4.361
489.40	4.373
489.74	4.378
490.09	4.376
490.43	4.376
490.77	4.369
491.11	4.349
491.46	4.352
491.80	4.340
492.14	4.321
492.49	4.314
492.83	4.318
493.17	4.314
493.51	4.322
493.86	4.324
494.20	4.359
494.54	4.386
494.88	4.443
495.23	4.489
495.57	4.545
495.91	4.611
496.25	4.678
496.60	4.737
496.94	4.790
497.28	4.845
497.62	4.904
497.97	4.951
498.31	5.020
498.65	5.070
498.99	5.123
499.33	5.200
499.68	5.266
500.02	5.330
500.36	5.395
500.70	5.497
501.04	5.574
501.39	5.654
501.73	5.738
502.07	5.843
502.41	5.930
502.75	6.056
503.09	6.148
503.44	6.261
503.78	6.356
504.12	6.466
504.46	6.587
504.80	6.720
505.14	6.865
505.49	6.989
505.83	7.106
506.17	7.260
506.51	7.379
506.85	7.517
507.19	7.638
507.53	7.776
507.87	7.910
508.22	8.020
508.56	8.150
508.90	8.267
509.24	8.395
509.58	8.517
509.92	8.649
510.26	8.778
510.60	8.906
510.94	9.031
511.28	9.147
511.63	9.292
511.97	9.444
512.31	9.597
512.65	9.747
512.99	9.924
513.33	10.136
513.67	10.319
514.01	10.539
514.35	10.743
514.69	10.951
515.03	11.166
515.37	11.372
515.71	11.562
516.05	11.744
516.39	11.908
516.73	12.072
517.07	12.212
517.41	12.335
517.75	12.458
518.09	12.592
518.43	12.733
518.77	12.842
519.11	12.955
519.45	13.073
519.79	13.207
520.13	13.366
520.47	13.526
520.81	13.685
521.15	13.899
521.49	14.076
521.83	14.256
522.17	14.426
522.51	14.666
522.85	14.876
523.19	15.123
523.53	15.385
523.87	15.661
524.21	15.932
524.55	16.188
524.89	16.434
525.23	16.677
525.57	16.899
525.91	17.103
526.25	17.266
526.58	17.438
526.92	17.587
527.26	17.684
527.60	17.745
527.94	17.798
528.28	17.835
528.62	17.852
528.96	17.855
529.30	17.847
529.64	17.854
529.97	17.860
530.31	17.846
530.65	17.833
530.99	17.873
531.33	17.920
531.67	17.950
532.01	17.996
532.35	18.026
532.68	18.072
533.02	18.092
533.36	18.093
533.70	18.093
534.04	18.116
534.38	18.120
534.71	18.107
535.05	18.113
535.39	18.143
535.73	18.151
536.07	18.158
536.41	18.171
536.74	18.224
537.08	18.285
537.42	18.382
537.76	18.435
538.10	18.523
538.43	18.604
538.77	18.690
539.11	18.753
539.45	18.816
539.79	18.870
540.12	18.920
540.46	18.944
540.80	18.954
541.14	18.916
541.47	18.883
541.81	18.847
542.15	18.821
542.49	18.763
542.82	18.702
543.16	18.644
543.50	18.606
543.84	18.533
544.17	18.490
544.51	18.465
544.85	18.458
545.18	18.464
545.52	18.462
545.86	18.425
546.20	18.422
546.53	18.413
546.87	18.404
547.21	18.385
547.54	18.385
547.88	18.385
548.22	18.360
548.55	18.348
548.89	18.358
549.23	18.325
549.56	18.317
549.90	18.316
550.24	18.318
550.57	18.331
550.91	18.343
551.25	18.338
551.58	18.350
551.92	18.331
552.26	18.292
552.59	18.265
552.93	18.270
553.27	18.257
553.60	18.240
553.94	18.201
554.27	18.164
554.61	18.114
554.95	18.070
555.28	18.004
555.62	17.983
555.95	18.001
556.29	17.963
556.63	17.924
556.96	17.891
557.30	17.841
557.63	17.794
557.97	17.731
558.31	17.679
558.64	17.599
558.98	17.559
559.31	17.533
559.65	17.440
559.98	17.387
560.32	17.336
560.65	17.265
560.99	17.176
561.33	17.123
561.66	17.062
562.00	17.019
562.33	16.990
562.67	16.908
563.00	16.811
563.34	16.755
563.67	16.680
564.01	16.610
564.34	16.545
564.68	16.486
565.01	16.411
565.35	16.350
565.68	16.246
566.02	16.145
566.35	16.068
566.69	15.955
567.02	15.878
567.36	15.776
567.69	15.684
568.03	15.600
568.36	15.501
568.69	15.403
569.03	15.299
569.36	15.228
569.70	15.155
570.03	15.097
570.37	15.027
570.70	14.939
571.04	14.860
571.37	14.752
571.70	14.668
572.04	14.576
572.37	14.486
572.71	14.384
573.04	14.301
573.37	14.236
573.71	14.138
574.04	14.079
574.38	13.994
574.71	13.918
575.04	13.848
575.38	13.746
575.71	13.663
576.05	13.598
576.38	13.554
576.71	13.437
577.05	13.324
577.38	13.222
577.71	13.103
578.05	13.012
578.38	12.919
578.71	12.839
579.05	12.758
579.38	12.703
579.71	12.623
580.05	12.525
580.38	12.466
580.71	12.402
581.05	12.317
581.38	12.290
581.71	12.216
582.05	12.168
582.38	12.132
582.71	12.087
583.04	12.066
583.38	12.012
583.71	11.978
584.04	11.964
584.38	11.945
584.71	11.956
585.04	11.909
585.37	11.886
585.71	11.854
586.04	11.810
586.37	11.833
586.70	11.793
587.04	11.763
587.37	11.749
587.70	11.725
588.03	11.671
588.37	11.624
588.70	11.600
589.03	11.553
589.36	11.539
589.69	11.488
590.03	11.434
590.36	11.370
590.69	11.346
591.02	11.294
591.35	11.246
591.69	11.215
592.02	11.190
592.35	11.136
592.68	11.116
593.01	11.063
593.35	11.062
593.68	11.050
594.01	11.042
594.34	11.006
594.67	10.977
595.00	10.964
595.34	10.944
595.67	10.884
596.00	10.890
596.33	10.864
596.66	10.828
596.99	10.758
597.32	10.675
597.65	10.628
597.99	10.568
598.32	10.502
598.65	10.440
598.98	10.394
599.31	10.374
599.64	10.318
599.97	10.287
600.30	10.266
600.63	10.262
600.96	10.249
601.30	10.238
601.63	10.264
601.96	10.283
602.29	10.249
602.62	10.223
602.95	10.210
603.28	10.167
603.61	10.126
603.94	10.084
604.27	10.050
604.60	9.989
604.93	9.931
605.26	9.876
605.59	9.809
605.92	9.791
606.25	9.744
606.58	9.695
606.91	9.646
607.24	9.625
607.57	9.589
607.90	9.545
608.23	9.510
608.56	9.466
608.89	9.398
609.22	9.341
609.55	9.273
609.88	9.209
610.21	9.134
610.54	9.049
610.87	8.979
611.20	8.899
611.53	8.815
611.86	8.744
612.19	8.674
612.52	8.573
612.85	8.526
613.18	8.464
613.51	8.386
613.84	8.322
614.17	8.266
614.49	8.193
614.82	8.140
615.15	8.094
615.48	8.061
615.81	8.011
616.14	8.034
616.47	7.982
616.80	7.926
617.13	7.879
617.46	7.835
617.78	7.837
618.11	7.790
618.44	7.754
618.77	7.692
619.10	7.626
619.43	7.604
619.76	7.506
620.09	7.484
620.41	7.418
620.74	7.416
621.07	7.442
621.40	7.403
621.73	7.415
622.06	7.428
622.38	7.432
622.71	7.497
623.04	7.511
623.37	7.558
623.70	7.549
624.02	7.619
624.35	7.675
624.68	7.669
625.01	7.723
625.34	7.741
625.66	7.737
625.99	7.769
626.32	7.757
626.65	7.738
626.98	7.727
627.30	7.727
627.63	7.703
627.96	7.633
628.29	7.576
628.61	7.514
628.94	7.476
629.27	7.440
629.60	7.371
629.92	7.326
630.25	7.274
630.58	7.219
630.91	7.193
631.23	7.134
631.56	7.114
631.89	7.065
632.21	7.049
632.54	6.980
632.87	6.922
633.19	6.877
633.52	6.788
633.85	6.736
634.18	6.683
634.50	6.568
634.83	6.489
635.16	6.388
635.48	6.310
635.81	6.203
636.14	6.089
636.46	6.002
636.79	5.915
637.11	5.784
637.44	5.648
637.77	5.554
638.09	5.486
638.42	5.375
638.75	5.302
639.07	5.220
639.40	5.137
639.73	5.072
640.05	4.985
640.38	4.897
640.70	4.850
641.03	4.814
641.36	4.729
641.68	4.633
642.01	4.548
642.33	4.481
642.66	4.414
642.98	4.319
643.31	4.254
643.64	4.202
643.96	4.166
644.29	4.143
644.61	4.105
644.94	4.074
645.26	4.064
645.59	4.051
645.91	4.032
646.24	3.998
646.56	4.021
646.89	4.006
647.22	3.979
647.54	3.972
647.87	3.975
648.19	3.945
648.52	3.928
648.84	3.931
649.17	3.935
649.49	3.903
649.82	3.919
650.14	3.858
650.47	3.868
650.79	3.884
651.11	3.851
651.44	3.860
651.76	3.862
652.09	3.912
652.41	3.919
652.74	3.933
653.06	3.969
653.39	3.989
653.71	4.039
654.04	4.043
654.36	4.083
654.68	4.114
655.01	4.106
655.33	4.130
655.66	4.098
655.98	4.112
656.30	4.099
656.63	4.109
656.95	4.103
657.28	4.098
657.60	4.083
657.92	4.016
658.25	4.003
658.57	4.014
658.90	3.980
659.22	3.990
659.54	3.977
659.87	3.958
660.19	3.898
660.51	3.843
660.84	3.794
661.16	3.756
661.48	3.795
661.81	3.770
662.13	3.725
662.45	3.722
662.78	3.690
663.10	3.751
663.42	3.822
663.75	3.832
664.07	3.894
664.39	3.949
664.72	4.030
665.04	4.058
665.36	4.114
665.69	4.196
666.01	4.294
666.33	4.397
666.65	4.370
666.98	4.473
667.30	4.631
667.62	4.744
667.94	4.869
668.27	4.982
668.59	5.104
668.91	5.249
669.23	5.405
669.56	5.538
669.88	5.686
670.20	5.868
670.52	6.017
670.85	6.206
671.17	6.402
671.49	6.561
671.81	6.753
672.13	6.997
672.46	7.210
672.78	7.358
673.10	7.568
673.42	7.783
673.74	8.046
674.07	8.252
674.39	8.425
674.71	8.631
675.03	8.909
675.35	9.141
675.67	9.303
676.00	9.506
676.32	9.680
676.64	9.840
676.96	10.043
677.28	10.200
677.60	10.362
677.92	10.586
678.25	10.810
678.57	10.998
678.89	11.185
679.21	11.418
679.53	11.666
679.85	11.980
680.17	12.276
680.49	12.504
680.81	12.812
681.13	13.091
681.46	13.399
681.78	13.677
682.10	13.949
682.42	14.292
682.74	14.597
683.06	14.829
683.38	15.095
683.70	15.402
684.02	15.704
684.34	16.053
684.66	16.382
684.98	16.574
685.30	16.824
685.62	17.040
685.94	17.253
686.26	17.430
686.58	17.671
686.90	17.837
687.22	18.014
687.54	18.188
687.86	18.246
688.18	18.361
688.50	18.579
688.82	18.738
689.14	18.930
689.46	19.144
689.78	19.380
690.10	19.705
690.42	19.934
690.74	20.264
691.06	20.589
691.38	20.888
691.70	21.178
692.02	21.458
692.34	21.728
692.66	22.023
692.98	22.228
693.30	22.466
693.62	22.555
693.94	22.733
694.26	22.793
694.57	22.925
694.89	23.076
695.21	23.226
695.53	23.354
695.85	23.443
696.17	23.561
696.49	23.676
696.81	23.816
697.13	24.010
697.44	24.265
697.76	24.460
698.08	24.750
698.40	25.080
698.72	25.397
699.04	25.736
699.36	26.193
699.67	26.661
699.99	27.129
700.31	27.631
700.63	28.126
700.95	28.606
701.27	29.158
701.58	29.493
701.90	29.798
702.22	30.171
702.54	30.457
702.86	30.771
703.17	30.938
703.49	31.290
703.81	31.650
704.13	31.886
704.45	32.151
704.76	32.387
705.08	32.717
705.40	33.033
705.72	33.261
706.03	33.545
706.35	33.726
706.67	34.018
706.99	34.202
707.30	34.410
707.62	34.680
707.94	34.877
708.26	35.099
708.57	35.308
708.89	35.549
709.21	35.879
709.53	36.176
709.84	36.515
710.16	36.789
710.48	37.149
710.79	37.377
711.11	37.604
711.43	37.855
711.74	38.154
712.06	38.414
712.38	38.766
712.69	39.018
713.01	39.339
713.33	39.653
713.64	40.043
713.96	40.293
714.28	40.624
714.59	41.137
714.91	41.596
715.23	41.980
715.54	42.368
715.86	42.733
716.17	43.085
716.49	43.510
716.81	43.918
717.12	44.325
717.44	44.730
717.76	45.211
718.07	45.401
718.39	45.661
718.70	45.989
719.02	46.321
719.33	46.581
719.65	46.863
719.97	47.137
720.28	47.389
720.60	47.527
720.91	47.914
721.23	48.086
721.54	48.506
721.86	48.865
722.17	49.214
722.49	49.497
722.81	49.708
723.12	50.038
723.44	50.235
723.75	50.554
724.07	50.913
724.38	50.997
724.70	51.241
725.01	51.401
725.33	51.450
725.64	51.590
725.96	51.857
726.27	51.942
726.59	52.090
726.90	52.227
727.22	52.032
727.53	52.180
727.84	52.329
728.16	52.379
728.47	52.432
728.79	52.679
729.10	52.714
729.42	52.696
729.73	52.941
730.05	53.126
730.36	53.259
730.67	53.708
730.99	53.857
731.30	54.104
731.62	54.332
731.93	54.512
732.24	54.682
732.56	54.913
732.87	55.225
733.19	55.418
733.50	55.558
733.81	55.753
734.13	55.896
734.44	56.098
734.76	56.208
735.07	56.343
735.38	56.618
735.70	57.004
736.01	57.169
736.32	57.269
736.64	57.424
736.95	57.579
737.26	57.664
737.58	57.877
737.89	57.926
738.20	58.067
738.52	58.244
738.83	58.365
739.14	58.290
739.45	58.445
739.77	58.489
740.08	58.648
740.39	58.872
740.71	59.217
741.02	59.277
741.33	59.382
741.64	59.540
741.96	59.729
742.27	59.590
742.58	59.906
742.90	60.123
743.21	60.379
743.52	60.469
743.83	60.515
744.14	60.388
744.46	60.584
744.77	60.785
745.08	60.816
745.39	60.891
745.71	61.151
746.02	60.917
746.33	61.019
746.64	60.810
746.95	60.727
747.27	60.611
747.58	60.638
747.89	60.405
748.20	60.208
748.51	60.256
748.82	60.026
749.14	59.897
749.45	59.802
749.76	59.518
750.07	59.542
750.38	59.426
750.69	59.287
751.01	59.215
751.32	59.137
751.63	59.345
751.94	59.081
752.25	59.089
752.56	59.034
752.87	58.932
753.18	58.900
753.49	58.890
753.81	59.096
754.12	59.154
754.43	59.153
754.74	59.197
755.05	59.045
755.36	59.215
755.67	59.195
755.98	59.292
756.29	59.404
756.60	59.520
756.91	59.394
757.22	59.276
757.53	59.326
757.84	59.193
758.15	59.193
758.46	59.140
758.77	58.893
759.09	58.743
759.40	58.495
759.71	58.372
760.02	58.125
760.33	58.126
760.64	57.990
760.95	57.926
761.26	57.828
761.57	57.656
761.88	57.419
762.18	57.262
762.49	57.146
762.80	57.181
763.11	57.011
763.42	57.017
763.73	56.971
764.04	56.983
764.35	56.927
764.66	56.983
764.97	57.003
765.28	56.995
765.59	57.092
765.90	57.045
766.21	56.829
766.52	56.968
766.83	56.838
767.14	56.741
767.44	56.336
767.75	56.121
768.06	56.168
768.37	55.902
768.68	55.993
768.99	55.880
769.30	56.098
769.61	55.973
769.91	55.732
770.22	55.656
770.53	55.374
770.84	55.571
771.15	55.596
771.46	55.184
771.77	55.306
772.07	55.144
772.38	55.188
772.69	54.862
773.00	55.132
773.31	55.217
773.61	55.022
773.92	55.177
774.23	54.965
774.54	54.800
774.85	54.804
775.15	54.505
775.46	54.309
775.77	54.124
776.08	54.158
776.39	53.800
776.69	53.704
777.00	54.003
777.31	54.002
777.62	54.165
777.92	53.986
778.23	53.875
778.54	54.138
778.85	54.402
779.15	54.416
779.46	54.546
779.77	54.820
780.07	55.092
780.38	55.115
780.69	55.112
781.00	55.066
781.30	54.936
781.61	54.616
781.92	54.298
782.22	54.120
782.53	53.932
782.84	53.947
783.14	53.809
783.45	53.579
783.76	53.467
784.06	53.793
784.37	53.680
784.68	53.944
784.98	54.279
785.29	54.644
785.60	54.988
785.90	55.263
786.21	54.976
786.51	55.020
786.82	54.865
787.13	54.870
787.43	54.893
787.74	55.274
788.04	55.452
788.35	55.692
788.66	55.628
788.96	55.574
789.27	55.711
789.57	55.901
789.88	56.056
790.19	56.179
790.49	56.146
790.80	55.914
791.10	55.548
791.41	55.345
791.71	55.221
792.02	54.842
792.32	54.659
792.63	54.450
792.93	54.556
793.24	54.468
793.54	54.547
793.85	54.681
794.15	54.158
794.46	54.158
794.76	54.022
795.07	53.910
795.37	54.155
795.68	54.196
795.98	54.337
796.29	54.299
796.59	53.794
796.90	53.721
797.20	53.433
797.51	53.638
797.81	53.631
798.12	53.928
798.42	53.991
798.72	54.038
799.03	54.155
799.33	54.098
799.64	54.036
799.94	54.873
800.25	54.570
800.55	54.611
800.85	54.794
801.16	54.793
801.46	54.357
801.77	54.473
802.07	54.535
802.37	54.346
802.68	54.168
802.98	54.375
803.28	54.070
803.59	54.667
803.89	54.939
804.20	54.980
804.50	54.815
804.80	55.225
805.11	55.278
805.41	54.774
805.71	54.675
806.02	54.565
806.32	54.176
806.62	54.075
806.93	54.079
807.23	54.033
807.53	53.842
807.83	54.077
808.14	54.042
808.44	53.596
808.74	53.989
809.05	54.008
809.35	53.876
809.65	54.394
809.95	54.526
810.26	54.273
810.56	54.042
810.86	54.464
811.16	54.994
811.47	55.287
811.77	55.571
812.07	55.989
812.37	56.056
812.68	56.675
812.98	56.701
813.28	56.618
813.58	57.213
813.88	57.473
814.19	57.739
814.49	57.496
814.79	57.505
815.09	57.905
815.39	57.582
815.70	57.795
816.00	57.884
816.30	57.453
816.60	57.594
816.90	57.123
817.20	57.145
817.50	56.980
817.81	56.496
818.11	56.051
818.41	55.520
818.71	55.385
819.01	55.419
819.31	55.424
819.61	55.631
819.92	55.801
820.22	56.024
820.52	56.134
820.82	56.282
821.12	56.572
821.42	56.848
821.72	57.173
822.02	57.616
822.32	58.017
822.62	58.387
822.92	58.629
823.22	58.958
823.52	59.221
823.83	59.449
824.13	59.610
824.43	59.612
824.73	59.775
825.03	59.888
825.33	59.838
825.63	59.627
825.93	59.493
826.23	59.440
826.53	59.204
826.83	59.125
827.13	59.235
827.43	59.376
827.73	59.882
828.03	60.072
828.33	60.273
828.63	60.299
828.93	60.476
829.23	60.333
829.53	60.420
829.83	60.264
830.13	59.955
830.42	59.438
830.72	58.738
831.02	58.039
831.32	57.550
831.62	57.323
831.92	57.223
832.22	57.195
832.52	57.180
832.82	57.068
833.12	57.185
833.42	57.233
833.72	57.317
834.01	57.572
834.31	58.063
834.61	58.413
834.91	59.056
835.21	59.404
835.51	59.223
835.81	59.203
836.11	59.796
836.40	59.711
836.70	60.009
837.00	60.373
837.30	59.838
837.60	59.458
837.90	59.569
838.19	58.680
838.49	58.372
838.79	58.397
839.09	58.247
839.39	58.110
839.68	58.273
839.98	57.605
840.28	57.617
840.58	58.990
840.88	59.307
841.17	58.944
841.47	59.489
841.77	59.607
842.07	59.515
842.36	61.278
842.66	59.780
842.96	59.289
843.26	59.214
843.55	58.981
843.85	58.283
844.15	57.968
844.45	57.710
844.74	57.526
845.04	57.063
845.34	58.006
845.63	56.835
845.93	58.124
846.23	58.801
846.53	59.339
846.82	59.244
847.12	59.278
847.42	58.013
847.71	57.619
848.01	57.367
848.31	57.059
848.60	57.581
848.90	56.571
849.19	56.136
849.49	56.160
849.79	56.941
850.08	57.388
850.38	56.266
850.68	56.042
850.97	56.731
851.27	56.354
851.56	57.480
851.86	55.472
852.16	56.181
852.45	56.524
852.75	56.601
853.04	57.056
853.34	55.863
853.64	57.124
853.93	56.406
854.23	57.357
854.52	57.127
854.82	56.978
855.11	55.858
855.41	56.192
855.70	57.070
856.00	56.524
856.30	56.620
856.59	56.766
856.89	58.195
857.18	60.341
857.48	58.663
857.77	57.990
858.07	57.550
858.36	58.393
858.66	56.150
858.95	55.254
859.25	54.597
859.54	52.961
859.84	53.344
860.13	51.089
860.42	49.332
860.72	49.380
861.01	50.941
861.31	51.752
861.60	53.210
861.90	55.097
862.19	55.315
862.49	56.256
862.78	56.426
863.07	56.364
863.37	57.071
863.66	57.982
863.96	59.739
864.25	59.574
864.54	59.465
864.84	59.447
865.13	59.116
865.43	59.437
865.72	69.265
866.01	68.505
866.31	61.121
866.60	52.703
866.89	59.357
>>>>>End Spectral Data<<<<<
