OOIBase32 Version 2.0.0.6 Data File
++++++++++++++++++++++++++++++++++++
Date: 01-23-2012, 23:16:45
User: Valued Ocean Optics Customer
Spectrometer Serial Number: USB2E2917
Spectrometer Channel: Master
Integration Time (msec): 5
Spectra Averaged: 10
Boxcar Smoothing: 5
Correct for Electrical Dark: Enabled
Time Normalized: Disabled
Dual-beam Reference: Disabled
Reference Channel: Master
Temperature: Not acquired
Spectrometer Type: S2000
ADC Type: USB2000
Number of Pixels in File: 2048
Graph Title: 
>>>>>Begin Spectral Data<<<<<
180.30	0.000
180.67	0.000
181.03	-16.017
181.40	509.202
181.77	1866.667
182.14	109.779
182.51	7.223
182.88	-1.520
183.25	70.044
183.62	-7.584
183.99	227.279
184.36	35.135
184.73	259.908
185.10	34.894
185.46	-150.646
185.83	75.212
186.20	237.390
186.57	81.830
186.94	8.816
187.31	113.947
187.68	97.866
188.05	106.646
188.42	154.597
188.78	317.017
189.15	928.117
189.52	-99.994
189.89	-3.205
190.26	3.536
190.63	24.097
191.00	31.687
191.37	28.996
191.73	36.138
192.10	35.691
192.47	41.633
192.84	46.164
193.21	50.932
193.58	44.125
193.94	39.447
194.31	35.451
194.68	19.132
195.05	11.185
195.42	11.813
195.79	-7.456
196.15	-5.713
196.52	-16.242
196.89	-29.870
197.26	-27.389
197.63	-9.467
198.00	3.453
198.36	15.156
198.73	22.230
199.10	2.867
199.47	-7.958
199.84	2.677
200.20	-12.552
200.57	-11.170
200.94	-10.173
201.31	-17.544
201.68	-28.049
202.04	-33.372
202.41	-43.618
202.78	-55.487
203.15	-54.940
203.51	-52.368
203.88	-55.842
204.25	-48.829
204.62	-69.069
204.98	-68.740
205.35	-59.213
205.72	-83.828
206.09	-80.069
206.46	-141.268
206.82	-113.616
207.19	-112.417
207.56	-192.250
207.92	-179.388
208.29	-188.514
208.66	-116.378
209.03	-111.000
209.39	-82.233
209.76	-68.047
210.13	-127.940
210.50	-81.053
210.86	-65.854
211.23	-80.527
211.60	-39.595
211.96	-38.238
212.33	-31.021
212.70	-46.970
213.07	-50.255
213.43	-95.314
213.80	-94.767
214.17	-45.531
214.53	-35.809
214.90	-33.990
215.27	-19.293
215.63	-25.037
216.00	-18.241
216.37	-20.005
216.74	-23.337
217.10	-18.515
217.47	-12.864
217.84	-6.929
218.20	-10.658
218.57	-9.008
218.94	-10.166
219.30	-16.051
219.67	-13.769
220.04	-9.119
220.40	-12.922
220.77	-19.260
221.13	-14.100
221.50	-10.966
221.87	-7.052
222.23	-5.894
222.60	-13.118
222.97	-7.298
223.33	-4.422
223.70	-5.757
224.07	-10.573
224.43	-11.022
224.80	-5.787
225.16	-8.649
225.53	-8.610
225.90	-12.907
226.26	-10.749
226.63	-7.869
226.99	-7.603
227.36	-7.722
227.73	-4.903
228.09	-4.765
228.46	-1.641
228.82	-0.861
229.19	-0.047
229.56	0.268
229.92	2.664
230.29	2.071
230.65	1.195
231.02	-0.258
231.38	-1.912
231.75	-4.052
232.12	-4.210
232.48	-8.666
232.85	-10.465
233.21	-12.110
233.58	-14.048
233.94	-14.603
234.31	-16.285
234.68	-15.588
235.04	-15.008
235.41	-13.676
235.77	-13.228
236.14	-11.445
236.50	-7.755
236.87	-6.076
237.23	-4.261
237.60	-4.142
237.96	-3.776
238.33	-3.238
238.69	-3.119
239.06	-2.550
239.42	-1.601
239.79	-1.734
240.15	-2.006
240.52	-2.262
240.88	-2.208
241.25	-2.332
241.61	-1.670
241.98	-1.462
242.34	-1.174
242.71	-0.823
243.07	-0.852
243.44	-1.083
243.80	-1.038
244.17	-1.105
244.53	-1.155
244.90	-1.224
245.26	-1.189
245.63	-1.085
245.99	-1.138
246.36	-1.239
246.72	-1.219
247.09	-1.542
247.45	-1.661
247.81	-1.250
248.18	-0.966
248.54	-0.738
248.91	-0.812
249.27	-0.387
249.64	-0.134
250.00	0.004
250.36	0.053
250.73	-0.359
251.09	-0.175
251.46	-0.161
251.82	-0.600
252.19	-0.717
252.55	-1.110
252.91	-0.876
253.28	-1.563
253.64	-2.469
254.01	-2.514
254.37	-2.055
254.73	-1.185
255.10	-0.648
255.46	0.103
255.83	0.210
256.19	-0.102
256.55	-0.152
256.92	0.018
257.28	0.108
257.65	0.378
258.01	0.440
258.37	0.266
258.74	0.012
259.10	-0.155
259.46	-0.435
259.83	-0.382
260.19	-0.303
260.55	-0.292
260.92	-0.494
261.28	-0.434
261.64	-0.438
262.01	-0.548
262.37	-0.517
262.73	-0.547
263.10	-0.351
263.46	-0.139
263.82	-0.530
264.19	-0.534
264.55	-0.531
264.91	-0.625
265.28	-0.810
265.64	-1.058
266.00	-1.187
266.37	-1.189
266.73	-1.160
267.09	-1.387
267.46	-1.463
267.82	-1.551
268.18	-1.392
268.54	-1.170
268.91	-1.278
269.27	-1.274
269.63	-1.029
270.00	-0.865
270.36	-0.821
270.72	-0.635
271.08	-0.665
271.45	-0.834
271.81	-0.741
272.17	-0.745
272.53	-0.905
272.90	-0.758
273.26	-0.628
273.62	-0.857
273.98	-1.113
274.35	-1.016
274.71	-1.016
275.07	-0.829
275.43	-0.617
275.80	-0.447
276.16	-0.411
276.52	-0.431
276.88	-0.381
277.25	-0.668
277.61	-0.776
277.97	-0.637
278.33	-0.715
278.69	-0.958
279.06	-0.967
279.42	-0.889
279.78	-0.725
280.14	-0.759
280.50	-0.741
280.87	-0.789
281.23	-0.625
281.59	-0.477
281.95	-0.551
282.31	-0.525
282.68	-0.603
283.04	-0.738
283.40	-0.809
283.76	-1.011
284.12	-0.899
284.48	-0.899
284.85	-0.765
285.21	-0.671
285.57	-0.608
285.93	-0.418
286.29	-0.497
286.65	-0.188
287.02	0.186
287.38	0.105
287.74	0.062
288.10	-0.100
288.46	-0.068
288.82	-0.173
289.18	-0.266
289.54	-0.304
289.91	-0.346
290.27	-0.246
290.63	-0.307
290.99	-0.600
291.35	-0.520
291.71	-0.214
292.07	-0.139
292.43	-0.199
292.79	-0.143
293.16	-0.288
293.52	-0.178
293.88	-0.171
294.24	-0.015
294.60	0.066
294.96	0.224
295.32	0.272
295.68	0.273
296.04	0.236
296.40	0.363
296.76	0.264
297.12	0.308
297.49	0.181
297.85	0.077
298.21	-0.172
298.57	-0.487
298.93	-0.468
299.29	-0.587
299.65	-0.839
300.01	-0.821
300.37	-0.895
300.73	-0.691
301.09	-0.591
301.45	-0.492
301.81	-0.485
302.17	-0.366
302.53	-0.331
302.89	-0.532
303.25	-0.468
303.61	-0.346
303.97	-0.382
304.33	-0.252
304.69	-0.325
305.05	-0.399
305.41	-0.504
305.77	-0.389
306.13	-0.480
306.49	-0.491
306.85	-0.381
307.21	-0.424
307.57	-0.422
307.93	-0.343
308.29	-0.290
308.65	-0.320
309.01	-0.243
309.37	-0.171
309.73	-0.208
310.09	-0.021
310.45	0.150
310.81	0.116
311.17	0.072
311.53	0.019
311.89	-0.039
312.25	-0.157
312.61	-0.176
312.96	-0.274
313.32	-0.301
313.68	-0.370
314.04	-0.578
314.40	-0.622
314.76	-0.711
315.12	-0.783
315.48	-0.827
315.84	-0.762
316.20	-0.823
316.56	-0.893
316.92	-0.904
317.27	-0.922
317.63	-0.820
317.99	-0.730
318.35	-0.864
318.71	-0.742
319.07	-0.560
319.43	-0.476
319.79	-0.427
320.15	-0.315
320.50	-0.226
320.86	-0.231
321.22	-0.198
321.58	-0.267
321.94	-0.336
322.30	-0.266
322.66	-0.317
323.01	-0.375
323.37	-0.424
323.73	-0.438
324.09	-0.601
324.45	-0.555
324.81	-0.486
325.17	-0.476
325.52	-0.474
325.88	-0.517
326.24	-0.543
326.60	-0.546
326.96	-0.530
327.31	-0.561
327.67	-0.689
328.03	-0.631
328.39	-0.688
328.75	-0.690
329.11	-0.648
329.46	-0.525
329.82	-0.389
330.18	-0.378
330.54	-0.349
330.90	-0.368
331.25	-0.307
331.61	-0.168
331.97	-0.145
332.33	-0.125
332.68	-0.082
333.04	-0.092
333.40	-0.232
333.76	-0.324
334.11	-0.315
334.47	-0.318
334.83	-0.306
335.19	-0.291
335.54	-0.368
335.90	-0.372
336.26	-0.397
336.62	-0.540
336.97	-0.612
337.33	-0.600
337.69	-0.610
338.05	-0.709
338.40	-0.731
338.76	-0.726
339.12	-0.707
339.48	-0.740
339.83	-0.732
340.19	-0.752
340.55	-0.642
340.90	-0.653
341.26	-0.717
341.62	-0.728
341.97	-0.617
342.33	-0.583
342.69	-0.607
343.04	-0.611
343.40	-0.600
343.76	-0.685
344.12	-0.642
344.47	-0.582
344.83	-0.513
345.19	-0.429
345.54	-0.373
345.90	-0.337
346.26	-0.304
346.61	-0.268
346.97	-0.263
347.32	-0.213
347.68	-0.123
348.04	-0.169
348.39	-0.284
348.75	-0.276
349.11	-0.300
349.46	-0.274
349.82	-0.268
350.18	-0.330
350.53	-0.259
350.89	-0.221
351.24	-0.237
351.60	-0.201
351.96	-0.098
352.31	-0.021
352.67	0.019
353.02	0.101
353.38	0.156
353.74	0.198
354.09	0.243
354.45	0.259
354.80	0.314
355.16	0.429
355.52	0.536
355.87	0.564
356.23	0.656
356.58	0.754
356.94	0.825
357.29	0.875
357.65	0.981
358.00	1.088
358.36	1.158
358.72	1.232
359.07	1.271
359.43	1.312
359.78	1.440
360.14	1.535
360.49	1.565
360.85	1.628
361.20	1.711
361.56	1.759
361.91	1.884
362.27	1.984
362.62	2.017
362.98	2.151
363.33	2.219
363.69	2.296
364.04	2.386
364.40	2.476
364.75	2.535
365.11	2.619
365.46	2.659
365.82	2.748
366.17	2.799
366.53	2.964
366.88	3.054
367.24	3.206
367.59	3.257
367.95	3.305
368.30	3.370
368.66	3.529
369.01	3.627
369.37	3.759
369.72	3.835
370.08	3.990
370.43	4.065
370.78	4.102
371.14	4.086
371.49	4.172
371.85	4.253
372.20	4.350
372.56	4.364
372.91	4.401
373.26	4.474
373.62	4.475
373.97	4.489
374.33	4.469
374.68	4.554
375.03	4.655
375.39	4.674
375.74	4.713
376.10	4.749
376.45	4.846
376.80	4.905
377.16	4.902
377.51	4.995
377.87	5.064
378.22	5.090
378.57	5.130
378.93	5.186
379.28	5.324
379.63	5.377
379.99	5.452
380.34	5.456
380.70	5.492
381.05	5.599
381.40	5.643
381.76	5.690
382.11	5.760
382.46	5.775
382.82	5.826
383.17	5.801
383.52	5.807
383.88	5.813
384.23	5.853
384.58	5.875
384.94	5.829
385.29	5.887
385.64	5.896
385.99	5.965
386.35	6.025
386.70	6.052
387.05	6.041
387.41	6.129
387.76	6.180
388.11	6.227
388.47	6.250
388.82	6.333
389.17	6.337
389.52	6.382
389.88	6.463
390.23	6.474
390.58	6.540
390.93	6.639
391.29	6.651
391.64	6.678
391.99	6.778
392.34	6.852
392.70	6.901
393.05	6.910
393.40	6.941
393.75	6.939
394.11	6.958
394.46	6.951
394.81	6.943
395.16	6.953
395.52	6.965
395.87	6.914
396.22	6.947
396.57	6.919
396.92	6.945
397.28	6.939
397.63	6.898
397.98	6.945
398.33	6.929
398.68	6.959
399.04	6.975
399.39	6.982
399.74	7.013
400.09	6.997
400.44	7.041
400.80	7.089
401.15	7.062
401.50	7.081
401.85	7.093
402.20	7.082
402.55	7.093
402.90	7.084
403.26	7.077
403.61	7.001
403.96	6.988
404.31	6.969
404.66	6.931
405.01	6.930
405.36	6.965
405.72	6.945
406.07	6.961
406.42	6.916
406.77	6.936
407.12	6.951
407.47	6.998
407.82	6.997
408.17	6.953
408.53	6.953
408.88	6.964
409.23	6.931
409.58	6.904
409.93	6.918
410.28	6.946
410.63	6.932
410.98	6.932
411.33	6.928
411.68	6.955
412.03	7.007
412.38	6.965
412.73	6.990
413.09	7.004
413.44	7.033
413.79	7.038
414.14	7.048
414.49	7.075
414.84	7.083
415.19	7.113
415.54	7.136
415.89	7.113
416.24	7.170
416.59	7.189
416.94	7.219
417.29	7.233
417.64	7.231
417.99	7.238
418.34	7.256
418.69	7.266
419.04	7.270
419.39	7.278
419.74	7.293
420.09	7.294
420.44	7.289
420.79	7.289
421.14	7.289
421.49	7.299
421.84	7.297
422.19	7.290
422.54	7.285
422.89	7.277
423.24	7.264
423.59	7.257
423.94	7.244
424.29	7.253
424.64	7.232
424.99	7.210
425.34	7.191
425.68	7.182
426.03	7.157
426.38	7.147
426.73	7.145
427.08	7.097
427.43	7.098
427.78	7.094
428.13	7.053
428.48	7.057
428.83	7.034
429.18	7.032
429.53	7.042
429.87	7.031
430.22	7.014
430.57	7.021
430.92	7.041
431.27	7.051
431.62	7.040
431.97	7.031
432.32	7.027
432.67	7.037
433.01	7.037
433.36	7.015
433.71	7.014
434.06	7.013
434.41	6.968
434.76	6.955
435.11	6.949
435.45	6.945
435.80	6.965
436.15	6.976
436.50	7.003
436.85	7.018
437.20	7.033
437.54	7.035
437.89	7.057
438.24	7.095
438.59	7.122
438.94	7.132
439.29	7.138
439.63	7.166
439.98	7.182
440.33	7.177
440.68	7.198
441.03	7.228
441.37	7.266
441.72	7.291
442.07	7.318
442.42	7.341
442.76	7.374
443.11	7.406
443.46	7.436
443.81	7.452
444.16	7.493
444.50	7.506
444.85	7.513
445.20	7.534
445.55	7.549
445.89	7.579
446.24	7.599
446.59	7.594
446.94	7.611
447.28	7.614
447.63	7.627
447.98	7.643
448.32	7.674
448.67	7.681
449.02	7.684
449.37	7.699
449.71	7.704
450.06	7.717
450.41	7.748
450.75	7.771
451.10	7.796
451.45	7.796
451.79	7.804
452.14	7.801
452.49	7.842
452.84	7.865
453.18	7.881
453.53	7.875
453.88	7.882
454.22	7.898
454.57	7.918
454.92	7.898
455.26	7.943
455.61	7.983
455.95	8.013
456.30	8.022
456.65	8.055
456.99	8.084
457.34	8.116
457.69	8.133
458.03	8.133
458.38	8.153
458.73	8.184
459.07	8.180
459.42	8.154
459.76	8.119
460.11	8.103
460.46	8.060
460.80	8.030
461.15	7.990
461.49	7.963
461.84	7.958
462.19	7.909
462.53	7.885
462.88	7.867
463.22	7.852
463.57	7.858
463.91	7.856
464.26	7.870
464.61	7.875
464.95	7.873
465.30	7.885
465.64	7.895
465.99	7.907
466.33	7.915
466.68	7.899
467.02	7.890
467.37	7.895
467.71	7.888
468.06	7.876
468.41	7.857
468.75	7.864
469.10	7.854
469.44	7.828
469.79	7.797
470.13	7.750
470.48	7.743
470.82	7.750
471.17	7.751
471.51	7.743
471.86	7.740
472.20	7.723
472.55	7.705
472.89	7.709
473.23	7.705
473.58	7.717
473.92	7.744
474.27	7.758
474.61	7.764
474.96	7.748
475.30	7.762
475.65	7.749
475.99	7.781
476.34	7.792
476.68	7.808
477.02	7.821
477.37	7.817
477.71	7.859
478.06	7.881
478.40	7.948
478.75	8.046
479.09	8.167
479.43	8.320
479.78	8.470
480.12	8.654
480.47	8.842
480.81	9.027
481.15	9.220
481.50	9.411
481.84	9.644
482.19	9.862
482.53	10.063
482.87	10.175
483.22	10.196
483.56	10.128
483.90	9.980
484.25	9.781
484.59	9.581
484.94	9.401
485.28	9.230
485.62	9.034
485.97	8.819
486.31	8.640
486.65	8.525
487.00	8.477
487.34	8.503
487.68	8.576
488.03	8.679
488.37	8.780
488.71	8.853
489.06	8.867
489.40	8.864
489.74	8.874
490.09	8.866
490.43	8.858
490.77	8.860
491.11	8.854
491.46	8.853
491.80	8.850
492.14	8.847
492.49	8.849
492.83	8.850
493.17	8.856
493.51	8.870
493.86	8.891
494.20	8.920
494.54	8.956
494.88	9.010
495.23	9.066
495.57	9.123
495.91	9.183
496.25	9.248
496.60	9.311
496.94	9.380
497.28	9.445
497.62	9.500
497.97	9.576
498.31	9.642
498.65	9.705
498.99	9.788
499.33	9.881
499.68	9.967
500.02	10.049
500.36	10.154
500.70	10.261
501.04	10.346
501.39	10.444
501.73	10.527
502.07	10.648
502.41	10.767
502.75	10.882
503.09	10.982
503.44	11.113
503.78	11.218
504.12	11.332
504.46	11.452
504.80	11.573
505.14	11.715
505.49	11.829
505.83	11.939
506.17	12.048
506.51	12.165
506.85	12.285
507.19	12.400
507.53	12.531
507.87	12.662
508.22	12.769
508.56	12.903
508.90	12.995
509.24	13.140
509.58	13.257
509.92	13.392
510.26	13.507
510.60	13.635
510.94	13.744
511.28	13.857
511.63	13.972
511.97	14.115
512.31	14.247
512.65	14.388
512.99	14.541
513.33	14.750
513.67	14.915
514.01	15.136
514.35	15.319
514.69	15.545
515.03	15.746
515.37	15.939
515.71	16.099
516.05	16.271
516.39	16.439
516.73	16.575
517.07	16.691
517.41	16.804
517.75	16.886
518.09	17.011
518.43	17.077
518.77	17.154
519.11	17.231
519.45	17.311
519.79	17.418
520.13	17.512
520.47	17.650
520.81	17.773
521.15	17.949
521.49	18.108
521.83	18.256
522.17	18.423
522.51	18.627
522.85	18.824
523.19	19.079
523.53	19.326
523.87	19.621
524.21	19.901
524.55	20.183
524.89	20.423
525.23	20.655
525.57	20.849
525.91	21.051
526.25	21.231
526.58	21.415
526.92	21.541
527.26	21.621
527.60	21.666
527.94	21.693
528.28	21.678
528.62	21.663
528.96	21.643
529.30	21.627
529.64	21.595
529.97	21.539
530.31	21.486
530.65	21.464
530.99	21.470
531.33	21.487
531.67	21.493
532.01	21.519
532.35	21.547
532.68	21.555
533.02	21.542
533.36	21.520
533.70	21.517
534.04	21.499
534.38	21.468
534.71	21.448
535.05	21.418
535.39	21.409
535.73	21.414
536.07	21.405
536.41	21.416
536.74	21.478
537.08	21.545
537.42	21.620
537.76	21.672
538.10	21.756
538.43	21.851
538.77	21.933
539.11	22.023
539.45	22.085
539.79	22.138
540.12	22.199
540.46	22.227
540.80	22.232
541.14	22.200
541.47	22.155
541.81	22.117
542.15	22.058
542.49	22.004
542.82	21.922
543.16	21.843
543.50	21.787
543.84	21.705
544.17	21.652
544.51	21.613
544.85	21.585
545.18	21.604
545.52	21.584
545.86	21.560
546.20	21.581
546.53	21.579
546.87	21.586
547.21	21.551
547.54	21.525
547.88	21.478
548.22	21.455
548.55	21.450
548.89	21.455
549.23	21.455
549.56	21.465
549.90	21.433
550.24	21.410
550.57	21.400
550.91	21.372
551.25	21.380
551.58	21.367
551.92	21.355
552.26	21.350
552.59	21.306
552.93	21.290
553.27	21.250
553.60	21.211
553.94	21.179
554.27	21.126
554.61	21.125
554.95	21.083
555.28	21.090
555.62	21.082
555.95	21.059
556.29	21.047
556.63	20.993
556.96	20.956
557.30	20.928
557.63	20.894
557.97	20.869
558.31	20.829
558.64	20.810
558.98	20.737
559.31	20.719
559.65	20.678
559.98	20.632
560.32	20.585
560.65	20.550
560.99	20.502
561.33	20.470
561.66	20.440
562.00	20.400
562.33	20.330
562.67	20.314
563.00	20.248
563.34	20.218
563.67	20.164
564.01	20.115
564.34	20.036
564.68	19.981
565.01	19.926
565.35	19.867
565.68	19.799
566.02	19.740
566.35	19.676
566.69	19.592
567.02	19.510
567.36	19.421
567.69	19.370
568.03	19.329
568.36	19.239
568.69	19.158
569.03	19.078
569.36	19.011
569.70	18.934
570.03	18.841
570.37	18.773
570.70	18.713
571.04	18.681
571.37	18.600
571.70	18.524
572.04	18.462
572.37	18.402
572.71	18.321
573.04	18.250
573.37	18.219
573.71	18.198
574.04	18.139
574.38	18.067
574.71	17.989
575.04	17.920
575.38	17.839
575.71	17.788
576.05	17.695
576.38	17.667
576.71	17.625
577.05	17.534
577.38	17.434
577.71	17.341
578.05	17.253
578.38	17.157
578.71	17.096
579.05	17.037
579.38	16.953
579.71	16.893
580.05	16.793
580.38	16.725
580.71	16.645
581.05	16.571
581.38	16.533
581.71	16.500
582.05	16.481
582.38	16.409
582.71	16.376
583.04	16.367
583.38	16.327
583.71	16.300
584.04	16.263
584.38	16.241
584.71	16.210
585.04	16.194
585.37	16.149
585.71	16.117
586.04	16.121
586.37	16.097
586.70	16.063
587.04	16.074
587.37	16.022
587.70	16.022
588.03	16.021
588.37	16.016
588.70	15.966
589.03	15.947
589.36	15.913
589.69	15.873
590.03	15.862
590.36	15.823
590.69	15.771
591.02	15.747
591.35	15.693
591.69	15.657
592.02	15.644
592.35	15.647
592.68	15.638
593.01	15.597
593.35	15.609
593.68	15.599
594.01	15.575
594.34	15.545
594.67	15.541
595.00	15.512
595.34	15.484
595.67	15.444
596.00	15.399
596.33	15.345
596.66	15.326
596.99	15.237
597.32	15.145
597.65	15.121
597.99	15.077
598.32	15.019
598.65	14.984
598.98	14.937
599.31	14.879
599.64	14.853
599.97	14.822
600.30	14.821
600.63	14.835
600.96	14.854
601.30	14.835
601.63	14.832
601.96	14.846
602.29	14.824
602.62	14.809
602.95	14.804
603.28	14.788
603.61	14.758
603.94	14.697
604.27	14.663
604.60	14.618
604.93	14.579
605.26	14.537
605.59	14.488
605.92	14.454
606.25	14.409
606.58	14.403
606.91	14.340
607.24	14.334
607.57	14.332
607.90	14.298
608.23	14.241
608.56	14.201
608.89	14.139
609.22	14.073
609.55	14.010
609.88	13.945
610.21	13.828
610.54	13.776
610.87	13.668
611.20	13.577
611.53	13.517
611.86	13.447
612.19	13.370
612.52	13.297
612.85	13.238
613.18	13.180
613.51	13.111
613.84	13.050
614.17	12.975
614.49	12.946
614.82	12.886
615.15	12.834
615.48	12.804
615.81	12.741
616.14	12.743
616.47	12.726
616.80	12.689
617.13	12.651
617.46	12.606
617.78	12.581
618.11	12.548
618.44	12.527
618.77	12.466
619.10	12.428
619.43	12.433
619.76	12.384
620.09	12.325
620.41	12.315
620.74	12.320
621.07	12.364
621.40	12.372
621.73	12.360
622.06	12.360
622.38	12.371
622.71	12.378
623.04	12.382
623.37	12.402
623.70	12.428
624.02	12.427
624.35	12.456
624.68	12.445
625.01	12.468
625.34	12.503
625.66	12.519
625.99	12.541
626.32	12.542
626.65	12.542
626.98	12.568
627.30	12.538
627.63	12.513
627.96	12.454
628.29	12.425
628.61	12.372
628.94	12.321
629.27	12.267
629.60	12.212
629.92	12.182
630.25	12.123
630.58	12.038
630.91	12.031
631.23	12.041
631.56	12.049
631.89	12.025
632.21	11.960
632.54	11.915
632.87	11.853
633.19	11.789
633.52	11.767
633.85	11.716
634.18	11.640
634.50	11.553
634.83	11.447
635.16	11.336
635.48	11.214
635.81	11.126
636.14	11.034
636.46	10.980
636.79	10.915
637.11	10.798
637.44	10.690
637.77	10.617
638.09	10.524
638.42	10.455
638.75	10.403
639.07	10.378
639.40	10.339
639.73	10.278
640.05	10.168
640.38	10.101
640.70	9.999
641.03	9.942
641.36	9.838
641.68	9.814
642.01	9.721
642.33	9.622
642.66	9.550
642.98	9.479
643.31	9.400
643.64	9.332
643.96	9.278
644.29	9.252
644.61	9.203
644.94	9.203
645.26	9.136
645.59	9.126
645.91	9.094
646.24	9.029
646.56	8.997
646.89	8.969
647.22	8.963
647.54	8.929
647.87	8.916
648.19	8.862
648.52	8.838
648.84	8.790
649.17	8.718
649.49	8.726
649.82	8.744
650.14	8.734
650.47	8.719
650.79	8.721
651.11	8.685
651.44	8.669
651.76	8.678
652.09	8.663
652.41	8.715
652.74	8.737
653.06	8.749
653.39	8.763
653.71	8.777
654.04	8.752
654.36	8.747
654.68	8.808
655.01	8.800
655.33	8.829
655.66	8.815
655.98	8.814
656.30	8.803
656.63	8.778
656.95	8.736
657.28	8.699
657.60	8.705
657.92	8.676
658.25	8.603
658.57	8.586
658.90	8.539
659.22	8.520
659.54	8.499
659.87	8.483
660.19	8.452
660.51	8.380
660.84	8.334
661.16	8.283
661.48	8.237
661.81	8.223
662.13	8.175
662.45	8.207
662.78	8.200
663.10	8.168
663.42	8.185
663.75	8.135
664.07	8.166
664.39	8.170
664.72	8.185
665.04	8.237
665.36	8.234
665.69	8.286
666.01	8.294
666.33	8.349
666.65	8.395
666.98	8.390
667.30	8.538
667.62	8.623
667.94	8.697
668.27	8.777
668.59	8.875
668.91	9.008
669.23	9.095
669.56	9.192
669.88	9.316
670.20	9.421
670.52	9.617
670.85	9.684
671.17	9.850
671.49	10.055
671.81	10.235
672.13	10.348
672.46	10.519
672.78	10.690
673.10	10.887
673.42	11.074
673.74	11.308
674.07	11.477
674.39	11.739
674.71	11.869
675.03	12.048
675.35	12.269
675.67	12.443
676.00	12.603
676.32	12.765
676.64	12.883
676.96	13.072
677.28	13.199
677.60	13.358
677.92	13.493
678.25	13.704
678.57	13.838
678.89	13.951
679.21	14.145
679.53	14.355
679.85	14.559
680.17	14.791
680.49	14.943
680.81	15.158
681.13	15.378
681.46	15.563
681.78	15.837
682.10	16.153
682.42	16.448
682.74	16.759
683.06	16.968
683.38	17.258
683.70	17.576
684.02	17.838
684.34	18.089
684.66	18.321
684.98	18.613
685.30	18.812
685.62	19.064
685.94	19.279
686.26	19.412
686.58	19.684
686.90	19.851
687.22	19.997
687.54	20.187
687.86	20.353
688.18	20.572
688.50	20.742
688.82	20.888
689.14	21.020
689.46	21.276
689.78	21.512
690.10	21.706
690.42	21.907
690.74	22.133
691.06	22.330
691.38	22.630
691.70	22.868
692.02	23.156
692.34	23.376
692.66	23.536
692.98	23.668
693.30	23.873
693.62	24.048
693.94	24.188
694.26	24.328
694.57	24.476
694.89	24.564
695.21	24.697
695.53	24.784
695.85	24.886
696.17	25.013
696.49	25.192
696.81	25.322
697.13	25.431
697.44	25.623
697.76	25.779
698.08	26.005
698.40	26.240
698.72	26.467
699.04	26.724
699.36	27.078
699.67	27.405
699.99	27.643
700.31	27.948
700.63	28.299
700.95	28.670
701.27	29.034
701.58	29.286
701.90	29.506
702.22	29.721
702.54	29.913
702.86	30.162
703.17	30.327
703.49	30.538
703.81	30.750
704.13	30.883
704.45	30.985
704.76	31.130
705.08	31.308
705.40	31.485
705.72	31.611
706.03	31.783
706.35	31.787
706.67	31.945
706.99	31.992
707.30	32.116
707.62	32.337
707.94	32.437
708.26	32.546
708.57	32.665
708.89	32.821
709.21	33.003
709.53	33.117
709.84	33.333
710.16	33.527
710.48	33.800
710.79	33.985
711.11	34.031
711.43	34.325
711.74	34.573
712.06	34.792
712.38	34.997
712.69	35.170
713.01	35.411
713.33	35.694
713.64	36.019
713.96	36.226
714.28	36.528
714.59	37.007
714.91	37.239
715.23	37.498
715.54	37.806
715.86	38.093
716.17	38.462
716.49	38.819
716.81	39.126
717.12	39.228
717.44	39.599
717.76	39.959
718.07	40.160
718.39	40.416
718.70	40.568
719.02	40.772
719.33	41.014
719.65	41.145
719.97	41.212
720.28	41.331
720.60	41.556
720.91	41.692
721.23	41.813
721.54	41.949
721.86	42.070
722.17	42.330
722.49	42.598
722.81	42.722
723.12	42.912
723.44	43.164
723.75	43.301
724.07	43.533
724.38	43.670
724.70	43.819
725.01	43.884
725.33	43.912
725.64	44.056
725.96	44.145
726.27	44.155
726.59	44.275
726.90	44.335
727.22	44.426
727.53	44.575
727.84	44.695
728.16	44.705
728.47	44.895
728.79	45.140
729.10	45.172
729.42	45.135
729.73	45.393
730.05	45.465
730.36	45.551
730.67	45.666
730.99	45.710
731.30	45.879
731.62	46.177
731.93	46.285
732.24	46.393
732.56	46.554
732.87	46.854
733.19	47.014
733.50	47.292
733.81	47.446
734.13	47.616
734.44	47.828
734.76	47.812
735.07	47.860
735.38	47.980
735.70	48.193
736.01	48.406
736.32	48.550
736.64	48.729
736.95	48.774
737.26	48.941
737.58	49.009
737.89	49.061
738.20	49.373
738.52	49.521
738.83	49.563
739.14	49.615
739.45	49.781
739.77	49.883
740.08	49.911
740.39	49.996
740.71	50.169
741.02	50.416
741.33	50.581
741.64	50.436
741.96	50.473
742.27	50.599
742.58	50.752
742.90	50.681
743.21	50.680
743.52	50.736
743.83	50.687
744.14	50.696
744.46	50.871
744.77	50.904
745.08	50.923
745.39	50.720
745.71	50.729
746.02	50.659
746.33	50.706
746.64	50.632
746.95	50.666
747.27	50.819
747.58	50.999
747.89	50.699
748.20	50.772
748.51	50.978
748.82	51.036
749.14	50.879
749.45	50.886
749.76	50.796
750.07	50.985
750.38	50.976
750.69	50.884
751.01	50.718
751.32	50.685
751.63	50.554
751.94	50.383
752.25	50.448
752.56	50.491
752.87	50.501
753.18	50.518
753.49	50.414
753.81	50.434
754.12	50.316
754.43	50.282
754.74	50.296
755.05	50.283
755.36	50.481
755.67	50.532
755.98	50.909
756.29	50.839
756.60	50.927
756.91	51.069
757.22	51.150
757.53	51.274
757.84	51.220
758.15	51.468
758.46	51.463
758.77	51.330
759.09	51.160
759.40	50.968
759.71	50.992
760.02	50.950
760.33	50.790
760.64	50.585
760.95	50.608
761.26	50.550
761.57	50.358
761.88	50.197
762.18	50.153
762.49	50.164
762.80	50.139
763.11	50.096
763.42	49.988
763.73	49.910
764.04	49.935
764.35	49.811
764.66	49.841
764.97	49.758
765.28	49.814
765.59	49.637
765.90	49.484
766.21	49.233
766.52	49.081
766.83	48.981
767.14	48.858
767.44	48.643
767.75	48.494
768.06	48.457
768.37	48.239
768.68	48.171
768.99	48.196
769.30	48.120
769.61	48.117
769.91	47.894
770.22	47.625
770.53	47.640
770.84	47.526
771.15	47.603
771.46	47.257
771.77	47.107
772.07	46.924
772.38	46.603
772.69	46.519
773.00	46.494
773.31	46.554
773.61	46.675
773.92	46.362
774.23	46.453
774.54	46.107
774.85	45.983
775.15	46.270
775.46	46.355
775.77	46.767
776.08	46.684
776.39	46.485
776.69	46.607
777.00	46.653
777.31	46.865
777.62	46.714
777.92	46.911
778.23	47.234
778.54	47.100
778.85	47.286
779.15	47.040
779.46	47.250
779.77	47.185
780.07	47.192
780.38	47.184
780.69	47.017
781.00	47.207
781.30	47.025
781.61	46.672
781.92	46.869
782.22	46.627
782.53	46.428
782.84	46.380
783.14	46.603
783.45	46.382
783.76	46.344
784.06	46.498
784.37	46.254
784.68	46.403
784.98	46.564
785.29	46.636
785.60	46.426
785.90	46.716
786.21	46.762
786.51	46.710
786.82	47.033
787.13	47.277
787.43	47.321
787.74	47.461
788.04	47.740
788.35	47.629
788.66	47.319
788.96	47.802
789.27	48.062
789.57	48.002
789.88	48.106
790.19	48.218
790.49	47.819
790.80	47.781
791.10	47.747
791.41	47.505
791.71	47.773
792.02	47.977
792.32	47.558
792.63	47.191
792.93	47.288
793.24	47.064
793.54	46.901
793.85	46.971
794.15	46.817
794.46	46.739
794.76	46.600
795.07	46.559
795.37	46.691
795.68	46.807
795.98	47.125
796.29	47.371
796.59	47.477
796.90	47.640
797.20	47.873
797.51	47.975
797.81	47.895
798.12	48.375
798.42	48.542
798.72	48.460
799.03	48.648
799.33	48.468
799.64	48.132
799.94	48.376
800.25	47.967
800.55	47.780
800.85	48.012
801.16	48.327
801.46	47.645
801.77	47.368
802.07	47.336
802.37	47.018
802.68	46.894
802.98	46.806
803.28	46.665
803.59	46.785
803.89	46.856
804.20	46.677
804.50	46.281
804.80	46.333
805.11	46.478
805.41	46.355
805.71	46.571
806.02	46.679
806.32	46.714
806.62	46.848
806.93	46.817
807.23	47.027
807.53	47.224
807.83	47.458
808.14	47.817
808.44	47.712
808.74	47.850
809.05	48.055
809.35	47.914
809.65	48.204
809.95	48.001
810.26	47.831
810.56	48.110
810.86	48.136
811.16	48.291
811.47	48.407
811.77	48.638
812.07	48.606
812.37	48.534
812.68	48.753
812.98	48.780
813.28	48.978
813.58	49.401
813.88	48.862
814.19	49.400
814.49	50.031
814.79	50.023
815.09	50.076
815.39	50.185
815.70	49.632
816.00	49.622
816.30	49.495
816.60	49.216
816.90	49.095
817.20	49.256
817.50	48.710
817.81	47.856
818.11	47.709
818.41	47.750
818.71	47.764
819.01	47.953
819.31	48.171
819.61	48.421
819.92	48.703
820.22	48.932
820.52	49.087
820.82	49.352
821.12	49.824
821.42	50.067
821.72	50.302
822.02	50.688
822.32	51.145
822.62	51.493
822.92	51.718
823.22	51.995
823.52	52.241
823.83	52.479
824.13	52.619
824.43	52.560
824.73	52.843
825.03	52.865
825.33	52.868
825.63	52.537
825.93	52.333
826.23	52.355
826.53	52.224
826.83	52.106
827.13	52.218
827.43	52.205
827.73	52.391
828.03	52.370
828.33	52.767
828.63	52.865
828.93	53.158
829.23	53.057
829.53	52.922
829.83	52.890
830.13	52.766
830.42	52.200
830.72	52.164
831.02	51.997
831.32	51.670
831.62	51.359
831.92	51.184
832.22	51.150
832.52	51.101
832.82	51.258
833.12	51.063
833.42	51.160
833.72	51.424
834.01	51.579
834.31	51.701
834.61	52.064
834.91	52.288
835.21	52.249
835.51	52.178
835.81	52.374
836.11	52.240
836.40	52.168
836.70	52.134
837.00	52.311
837.30	51.880
837.60	51.887
837.90	50.998
838.19	50.757
838.49	50.640
838.79	50.414
839.09	50.806
839.39	50.505
839.68	51.110
839.98	50.471
840.28	49.806
840.58	49.934
840.88	49.927
841.17	50.297
841.47	50.577
841.77	51.217
842.07	52.045
842.36	51.471
842.66	50.838
842.96	50.034
843.26	50.631
843.55	51.613
843.85	51.795
844.15	50.762
844.45	50.378
844.74	50.797
845.04	50.365
845.34	49.647
845.63	50.165
845.93	51.775
846.23	52.757
846.53	51.311
846.82	49.534
847.12	49.536
847.42	49.881
847.71	49.107
848.01	48.146
848.31	47.332
848.60	46.535
848.90	46.538
849.19	45.572
849.49	45.206
849.79	46.620
850.08	46.852
850.38	46.775
850.68	46.155
850.97	48.359
851.27	47.884
851.56	47.883
851.86	48.526
852.16	47.689
852.45	47.257
852.75	46.209
853.04	47.571
853.34	48.391
853.64	48.216
853.93	48.709
854.23	48.274
854.52	48.409
854.82	50.059
855.11	49.660
855.41	50.845
855.70	52.270
856.00	52.635
856.30	50.373
856.59	50.464
856.89	51.080
857.18	51.589
857.48	51.335
857.77	51.597
858.07	50.292
858.36	49.260
858.66	49.028
858.95	48.354
859.25	48.778
859.54	49.944
859.84	49.704
860.13	49.715
860.42	49.517
860.72	48.162
861.01	47.116
861.31	46.834
861.60	49.426
861.90	48.990
862.19	49.088
862.49	49.062
862.78	49.259
863.07	50.881
863.37	50.128
863.66	50.956
863.96	52.850
864.25	54.268
864.54	54.518
864.84	54.672
865.13	54.250
865.43	54.939
865.72	59.982
866.01	50.990
866.31	64.148
866.60	47.614
866.89	55.264
>>>>>End Spectral Data<<<<<
