OOIBase32 Version 2.0.0.6 Data File
++++++++++++++++++++++++++++++++++++
Date: 01-23-2012, 23:18:49
User: Valued Ocean Optics Customer
Spectrometer Serial Number: USB2E2917
Spectrometer Channel: Master
Integration Time (msec): 5
Spectra Averaged: 10
Boxcar Smoothing: 5
Correct for Electrical Dark: Enabled
Time Normalized: Disabled
Dual-beam Reference: Disabled
Reference Channel: Master
Temperature: Not acquired
Spectrometer Type: S2000
ADC Type: USB2000
Number of Pixels in File: 2048
Graph Title: 
>>>>>Begin Spectral Data<<<<<
180.30	0.000
180.67	0.000
181.03	-74.189
181.40	230.528
181.77	-9286.544
182.14	90.664
182.51	-91.176
182.88	336.696
183.25	1.681
183.62	32.497
183.99	331.970
184.36	27.086
184.73	545.272
185.10	-47.834
185.46	-406.913
185.83	-456.653
186.20	140.763
186.57	36.293
186.94	126.100
187.31	35.237
187.68	132.731
188.05	80.692
188.42	118.897
188.78	160.976
189.15	450.126
189.52	-142.922
189.89	-8.779
190.26	27.317
190.63	18.680
191.00	31.145
191.37	31.487
191.73	34.695
192.10	35.631
192.47	39.746
192.84	32.868
193.21	32.882
193.58	33.808
193.94	23.172
194.31	11.178
194.68	19.339
195.05	3.514
195.42	2.859
195.79	-11.795
196.15	-13.596
196.52	-16.380
196.89	-9.615
197.26	-35.447
197.63	-17.959
198.00	-10.664
198.36	-2.559
198.73	-30.048
199.10	-28.692
199.47	-28.504
199.84	-32.312
200.20	-33.272
200.57	-35.768
200.94	-42.195
201.31	-36.985
201.68	-40.979
202.04	-40.185
202.41	-53.872
202.78	-63.946
203.15	-62.208
203.51	-64.474
203.88	-47.951
204.25	-42.738
204.62	-59.298
204.98	-63.931
205.35	-71.846
205.72	-90.402
206.09	-90.097
206.46	-158.918
206.82	-125.024
207.19	-113.198
207.56	-186.267
207.92	-168.395
208.29	-174.376
208.66	-117.134
209.03	-106.063
209.39	-67.747
209.76	-70.883
210.13	-124.715
210.50	-82.160
210.86	-72.574
211.23	-99.997
211.60	-73.076
211.96	-74.978
212.33	-68.404
212.70	-73.532
213.07	-76.630
213.43	-114.785
213.80	-98.630
214.17	-55.767
214.53	-36.232
214.90	-34.056
215.27	-21.768
215.63	-13.097
216.00	-5.749
216.37	-7.997
216.74	-19.617
217.10	-18.577
217.47	-20.460
217.84	-12.245
218.20	-13.560
218.57	-6.989
218.94	-5.671
219.30	-10.451
219.67	-15.330
220.04	-17.979
220.40	-19.907
220.77	-22.278
221.13	-21.664
221.50	-15.145
221.87	-16.668
222.23	-17.166
222.60	-32.729
222.97	-34.364
223.33	-30.726
223.70	-25.235
224.07	-23.547
224.43	-19.559
224.80	-12.696
225.16	-12.045
225.53	-12.261
225.90	-13.306
226.26	-8.531
226.63	-4.807
226.99	-2.892
227.36	-1.504
227.73	-0.190
228.09	0.090
228.46	0.776
228.82	0.646
229.19	1.520
229.56	1.933
229.92	3.623
230.29	3.002
230.65	2.735
231.02	2.506
231.38	0.267
231.75	-1.722
232.12	-1.951
232.48	-2.990
232.85	-2.706
233.21	-3.457
233.58	-5.462
233.94	-5.487
234.31	-5.865
234.68	-6.061
235.04	-5.988
235.41	-3.866
235.77	-2.333
236.14	-0.880
236.50	-0.469
236.87	-0.340
237.23	0.367
237.60	0.302
237.96	-0.123
238.33	-0.586
238.69	-0.421
239.06	-0.739
239.42	-1.166
239.79	-1.774
240.15	-1.893
240.52	-1.358
240.88	-0.934
241.25	-0.786
241.61	-0.200
241.98	-0.233
242.34	-0.253
242.71	0.140
243.07	0.339
243.44	0.404
243.80	0.612
244.17	0.178
244.53	-0.287
244.90	-0.471
245.26	-0.625
245.63	-0.852
245.99	-0.989
246.36	-1.126
246.72	-1.185
247.09	-1.439
247.45	-1.348
247.81	-1.268
248.18	-1.128
248.54	-1.129
248.91	-1.646
249.27	-1.622
249.64	-1.210
250.00	-0.993
250.36	-0.866
250.73	-1.113
251.09	-1.000
251.46	-1.372
251.82	-1.912
252.19	-2.140
252.55	-1.942
252.91	-1.371
253.28	-1.634
253.64	-2.393
254.01	-1.913
254.37	-1.347
254.73	-1.224
255.10	-0.882
255.46	-0.348
255.83	-0.257
256.19	-0.004
256.55	-0.069
256.92	0.061
257.28	0.213
257.65	0.568
258.01	0.553
258.37	0.350
258.74	0.269
259.10	0.197
259.46	-0.009
259.83	0.008
260.19	-0.064
260.55	0.065
260.92	-0.108
261.28	-0.184
261.64	-0.233
262.01	-0.441
262.37	-0.274
262.73	-0.178
263.10	-0.095
263.46	-0.085
263.82	0.179
264.19	0.250
264.55	-0.030
264.91	-0.020
265.28	-0.134
265.64	-0.359
266.00	-0.231
266.37	-0.402
266.73	-0.461
267.09	-0.376
267.46	-0.379
267.82	-0.661
268.18	-0.643
268.54	-0.507
268.91	-0.443
269.27	-0.289
269.63	-0.035
270.00	-0.122
270.36	-0.046
270.72	0.125
271.08	0.001
271.45	-0.060
271.81	0.024
272.17	-0.107
272.53	-0.022
272.90	0.056
273.26	0.096
273.62	-0.270
273.98	-0.420
274.35	-0.571
274.71	-0.635
275.07	-0.363
275.43	-0.167
275.80	-0.301
276.16	-0.180
276.52	0.035
276.88	-0.012
277.25	-0.105
277.61	0.001
277.97	0.034
278.33	0.123
278.69	-0.075
279.06	-0.283
279.42	-0.351
279.78	-0.215
280.14	-0.268
280.50	-0.419
280.87	-0.306
281.23	-0.272
281.59	-0.179
281.95	-0.237
282.31	-0.123
282.68	-0.162
283.04	-0.364
283.40	-0.258
283.76	-0.146
284.12	-0.024
284.48	-0.019
284.85	-0.131
285.21	-0.052
285.57	-0.024
285.93	0.155
286.29	0.076
286.65	0.273
287.02	0.705
287.38	0.641
287.74	0.446
288.10	0.249
288.46	0.132
288.82	0.130
289.18	0.072
289.54	0.115
289.91	0.019
290.27	0.035
290.63	-0.018
290.99	-0.154
291.35	0.048
291.71	0.234
292.07	0.207
292.43	0.247
292.79	0.218
293.16	0.121
293.52	0.095
293.88	0.223
294.24	0.171
294.60	0.194
294.96	0.100
295.32	0.035
295.68	0.089
296.04	0.369
296.40	0.406
296.76	0.512
297.12	0.505
297.49	0.332
297.85	0.181
298.21	0.112
298.57	-0.100
298.93	-0.018
299.29	-0.182
299.65	-0.243
300.01	-0.370
300.37	-0.318
300.73	-0.249
301.09	-0.187
301.45	-0.055
301.81	0.069
302.17	0.165
302.53	0.122
302.89	0.093
303.25	0.268
303.61	0.248
303.97	0.052
304.33	-0.053
304.69	-0.033
305.05	0.031
305.41	0.065
305.77	0.037
306.13	0.077
306.49	0.191
306.85	0.176
307.21	0.153
307.57	0.269
307.93	0.407
308.29	0.626
308.65	0.572
309.01	0.454
309.37	0.467
309.73	0.454
310.09	0.556
310.45	0.595
310.81	0.539
311.17	0.521
311.53	0.448
311.89	0.495
312.25	0.250
312.61	0.184
312.96	0.282
313.32	0.308
313.68	0.372
314.04	0.205
314.40	0.241
314.76	0.199
315.12	0.234
315.48	0.290
315.84	0.182
316.20	0.224
316.56	0.174
316.92	0.120
317.27	-0.012
317.63	-0.053
317.99	-0.088
318.35	-0.128
318.71	-0.025
319.07	-0.008
319.43	-0.043
319.79	0.047
320.15	0.073
320.50	0.137
320.86	0.143
321.22	0.204
321.58	0.158
321.94	0.142
322.30	0.091
322.66	0.088
323.01	-0.055
323.37	-0.182
323.73	-0.276
324.09	-0.346
324.45	-0.305
324.81	-0.293
325.17	-0.312
325.52	-0.387
325.88	-0.417
326.24	-0.372
326.60	-0.403
326.96	-0.342
327.31	-0.299
327.67	-0.285
328.03	-0.208
328.39	-0.398
328.75	-0.374
329.11	-0.289
329.46	-0.175
329.82	-0.081
330.18	-0.110
330.54	-0.111
330.90	-0.109
331.25	-0.079
331.61	0.011
331.97	0.004
332.33	0.151
332.68	0.113
333.04	0.050
333.40	-0.099
333.76	-0.145
334.11	-0.160
334.47	-0.181
334.83	-0.262
335.19	-0.305
335.54	-0.333
335.90	-0.330
336.26	-0.322
336.62	-0.355
336.97	-0.421
337.33	-0.413
337.69	-0.398
338.05	-0.404
338.40	-0.431
338.76	-0.386
339.12	-0.282
339.48	-0.348
339.83	-0.333
340.19	-0.341
340.55	-0.229
340.90	-0.233
341.26	-0.148
341.62	-0.200
341.97	-0.166
342.33	-0.102
342.69	-0.090
343.04	-0.108
343.40	-0.149
343.76	-0.207
344.12	-0.184
344.47	-0.197
344.83	-0.135
345.19	-0.090
345.54	-0.021
345.90	-0.023
346.26	-0.017
346.61	0.004
346.97	-0.036
347.32	0.008
347.68	0.010
348.04	-0.052
348.39	-0.121
348.75	-0.067
349.11	-0.087
349.46	-0.111
349.82	-0.130
350.18	-0.136
350.53	-0.074
350.89	-0.047
351.24	-0.052
351.60	-0.028
351.96	0.049
352.31	0.110
352.67	0.097
353.02	0.073
353.38	0.095
353.74	0.153
354.09	0.130
354.45	0.087
354.80	0.075
355.16	0.179
355.52	0.223
355.87	0.171
356.23	0.180
356.58	0.176
356.94	0.217
357.29	0.254
357.65	0.234
358.00	0.238
358.36	0.228
358.72	0.208
359.07	0.170
359.43	0.196
359.78	0.233
360.14	0.208
360.49	0.202
360.85	0.254
361.20	0.264
361.56	0.273
361.91	0.289
362.27	0.347
362.62	0.393
362.98	0.419
363.33	0.381
363.69	0.379
364.04	0.450
364.40	0.480
364.75	0.458
365.11	0.442
365.46	0.453
365.82	0.504
366.17	0.482
366.53	0.493
366.88	0.493
367.24	0.560
367.59	0.574
367.95	0.544
368.30	0.556
368.66	0.557
369.01	0.581
369.37	0.623
369.72	0.636
370.08	0.698
370.43	0.730
370.78	0.753
371.14	0.726
371.49	0.783
371.85	0.817
372.20	0.859
372.56	0.870
372.91	0.890
373.26	0.949
373.62	0.961
373.97	0.981
374.33	1.036
374.68	1.083
375.03	1.138
375.39	1.153
375.74	1.196
376.10	1.213
376.45	1.295
376.80	1.362
377.16	1.371
377.51	1.433
377.87	1.507
378.22	1.485
378.57	1.523
378.93	1.588
379.28	1.699
379.63	1.754
379.99	1.861
380.34	1.926
380.70	2.006
381.05	2.104
381.40	2.175
381.76	2.225
382.11	2.352
382.46	2.465
382.82	2.563
383.17	2.577
383.52	2.645
383.88	2.682
384.23	2.735
384.58	2.783
384.94	2.850
385.29	2.949
385.64	3.052
385.99	3.148
386.35	3.196
386.70	3.261
387.05	3.325
387.41	3.395
387.76	3.446
388.11	3.533
388.47	3.609
388.82	3.661
389.17	3.721
389.52	3.773
389.88	3.852
390.23	3.919
390.58	3.996
390.93	4.087
391.29	4.136
391.64	4.253
391.99	4.350
392.34	4.444
392.70	4.499
393.05	4.541
393.40	4.605
393.75	4.621
394.11	4.668
394.46	4.699
394.81	4.749
395.16	4.817
395.52	4.845
395.87	4.852
396.22	4.867
396.57	4.924
396.92	4.933
397.28	4.934
397.63	4.985
397.98	5.026
398.33	5.059
398.68	5.085
399.04	5.089
399.39	5.079
399.74	5.084
400.09	5.087
400.44	5.099
400.80	5.142
401.15	5.143
401.50	5.160
401.85	5.182
402.20	5.159
402.55	5.173
402.90	5.204
403.26	5.206
403.61	5.194
403.96	5.195
404.31	5.189
404.66	5.191
405.01	5.190
405.36	5.200
405.72	5.169
406.07	5.206
406.42	5.152
406.77	5.124
407.12	5.140
407.47	5.168
407.82	5.177
408.17	5.176
408.53	5.168
408.88	5.156
409.23	5.130
409.58	5.130
409.93	5.128
410.28	5.171
410.63	5.138
410.98	5.129
411.33	5.101
411.68	5.136
412.03	5.161
412.38	5.128
412.73	5.159
413.09	5.155
413.44	5.144
413.79	5.126
414.14	5.130
414.49	5.158
414.84	5.171
415.19	5.203
415.54	5.193
415.89	5.179
416.24	5.225
416.59	5.219
416.94	5.230
417.29	5.252
417.64	5.245
417.99	5.264
418.34	5.270
418.69	5.274
419.04	5.259
419.39	5.265
419.74	5.266
420.09	5.261
420.44	5.269
420.79	5.265
421.14	5.273
421.49	5.292
421.84	5.272
422.19	5.288
422.54	5.288
422.89	5.294
423.24	5.286
423.59	5.275
423.94	5.269
424.29	5.273
424.64	5.268
424.99	5.249
425.34	5.222
425.68	5.205
426.03	5.167
426.38	5.133
426.73	5.110
427.08	5.086
427.43	5.096
427.78	5.087
428.13	5.058
428.48	5.040
428.83	5.015
429.18	5.011
429.53	4.995
429.87	4.968
430.22	4.965
430.57	4.974
430.92	4.956
431.27	4.955
431.62	4.929
431.97	4.918
432.32	4.909
432.67	4.910
433.01	4.880
433.36	4.874
433.71	4.882
434.06	4.871
434.41	4.841
434.76	4.858
435.11	4.850
435.45	4.847
435.80	4.836
436.15	4.844
436.50	4.852
436.85	4.895
437.20	4.912
437.54	4.916
437.89	4.929
438.24	4.942
438.59	4.940
438.94	4.929
439.29	4.937
439.63	4.968
439.98	4.975
440.33	4.968
440.68	4.967
441.03	4.976
441.37	5.007
441.72	5.027
442.07	5.035
442.42	5.056
442.76	5.100
443.11	5.134
443.46	5.159
443.81	5.196
444.16	5.238
444.50	5.250
444.85	5.271
445.20	5.296
445.55	5.312
445.89	5.347
446.24	5.377
446.59	5.369
446.94	5.380
447.28	5.391
447.63	5.393
447.98	5.413
448.32	5.448
448.67	5.471
449.02	5.479
449.37	5.479
449.71	5.494
450.06	5.497
450.41	5.532
450.75	5.543
451.10	5.556
451.45	5.572
451.79	5.560
452.14	5.549
452.49	5.564
452.84	5.577
453.18	5.595
453.53	5.583
453.88	5.600
454.22	5.609
454.57	5.620
454.92	5.624
455.26	5.643
455.61	5.674
455.95	5.719
456.30	5.737
456.65	5.762
456.99	5.787
457.34	5.813
457.69	5.820
458.03	5.829
458.38	5.846
458.73	5.871
459.07	5.873
459.42	5.855
459.76	5.821
460.11	5.795
460.46	5.763
460.80	5.730
461.15	5.711
461.49	5.678
461.84	5.659
462.19	5.625
462.53	5.583
462.88	5.562
463.22	5.554
463.57	5.552
463.91	5.535
464.26	5.548
464.61	5.550
464.95	5.542
465.30	5.555
465.64	5.558
465.99	5.576
466.33	5.584
466.68	5.579
467.02	5.580
467.37	5.579
467.71	5.590
468.06	5.580
468.41	5.574
468.75	5.591
469.10	5.577
469.44	5.556
469.79	5.522
470.13	5.490
470.48	5.482
470.82	5.472
471.17	5.475
471.51	5.459
471.86	5.457
472.20	5.456
472.55	5.451
472.89	5.452
473.23	5.458
473.58	5.469
473.92	5.488
474.27	5.489
474.61	5.497
474.96	5.502
475.30	5.528
475.65	5.520
475.99	5.532
476.34	5.535
476.68	5.534
477.02	5.539
477.37	5.544
477.71	5.583
478.06	5.616
478.40	5.679
478.75	5.751
479.09	5.845
479.43	5.973
479.78	6.111
480.12	6.258
480.47	6.421
480.81	6.572
481.15	6.725
481.50	6.878
481.84	7.044
482.19	7.217
482.53	7.362
482.87	7.460
483.22	7.481
483.56	7.434
483.90	7.326
484.25	7.188
484.59	7.046
484.94	6.915
485.28	6.788
485.62	6.642
485.97	6.476
486.31	6.354
486.65	6.266
487.00	6.243
487.34	6.256
487.68	6.308
488.03	6.381
488.37	6.454
488.71	6.504
489.06	6.517
489.40	6.550
489.74	6.567
490.09	6.568
490.43	6.570
490.77	6.556
491.11	6.554
491.46	6.555
491.80	6.553
492.14	6.544
492.49	6.549
492.83	6.559
493.17	6.563
493.51	6.587
493.86	6.613
494.20	6.643
494.54	6.684
494.88	6.749
495.23	6.830
495.57	6.886
495.91	6.968
496.25	7.041
496.60	7.119
496.94	7.186
497.28	7.257
497.62	7.324
497.97	7.383
498.31	7.469
498.65	7.542
498.99	7.590
499.33	7.698
499.68	7.798
500.02	7.894
500.36	7.975
500.70	8.083
501.04	8.180
501.39	8.276
501.73	8.402
502.07	8.530
502.41	8.642
502.75	8.797
503.09	8.903
503.44	9.015
503.78	9.149
504.12	9.288
504.46	9.412
504.80	9.544
505.14	9.702
505.49	9.847
505.83	9.986
506.17	10.142
506.51	10.279
506.85	10.438
507.19	10.589
507.53	10.742
507.87	10.888
508.22	11.014
508.56	11.159
508.90	11.277
509.24	11.415
509.58	11.560
509.92	11.715
510.26	11.860
510.60	12.007
510.94	12.161
511.28	12.290
511.63	12.443
511.97	12.633
512.31	12.824
512.65	13.008
512.99	13.195
513.33	13.423
513.67	13.623
514.01	13.858
514.35	14.101
514.69	14.335
515.03	14.549
515.37	14.762
515.71	14.975
516.05	15.167
516.39	15.361
516.73	15.535
517.07	15.683
517.41	15.829
517.75	15.962
518.09	16.087
518.43	16.213
518.77	16.362
519.11	16.488
519.45	16.589
519.79	16.735
520.13	16.888
520.47	17.051
520.81	17.199
521.15	17.402
521.49	17.589
521.83	17.785
522.17	17.952
522.51	18.144
522.85	18.369
523.19	18.635
523.53	18.915
523.87	19.207
524.21	19.521
524.55	19.824
524.89	20.072
525.23	20.331
525.57	20.548
525.91	20.772
526.25	20.967
526.58	21.151
526.92	21.295
527.26	21.387
527.60	21.444
527.94	21.485
528.28	21.516
528.62	21.534
528.96	21.522
529.30	21.514
529.64	21.489
529.97	21.458
530.31	21.421
530.65	21.408
530.99	21.432
531.33	21.480
531.67	21.495
532.01	21.512
532.35	21.535
532.68	21.573
533.02	21.585
533.36	21.591
533.70	21.603
534.04	21.602
534.38	21.602
534.71	21.574
535.05	21.574
535.39	21.594
535.73	21.591
536.07	21.611
536.41	21.607
536.74	21.623
537.08	21.674
537.42	21.750
537.76	21.830
538.10	21.914
538.43	22.002
538.77	22.079
539.11	22.140
539.45	22.218
539.79	22.271
540.12	22.339
540.46	22.381
540.80	22.396
541.14	22.374
541.47	22.354
541.81	22.321
542.15	22.299
542.49	22.240
542.82	22.190
543.16	22.122
543.50	22.072
543.84	22.006
544.17	21.961
544.51	21.946
544.85	21.933
545.18	21.932
545.52	21.922
545.86	21.895
546.20	21.911
546.53	21.899
546.87	21.866
547.21	21.838
547.54	21.800
547.88	21.809
548.22	21.782
548.55	21.764
548.89	21.734
549.23	21.731
549.56	21.713
549.90	21.701
550.24	21.707
550.57	21.726
550.91	21.710
551.25	21.746
551.58	21.742
551.92	21.729
552.26	21.722
552.59	21.715
552.93	21.678
553.27	21.670
553.60	21.621
553.94	21.578
554.27	21.559
554.61	21.568
554.95	21.518
555.28	21.454
555.62	21.424
555.95	21.420
556.29	21.380
556.63	21.336
556.96	21.291
557.30	21.268
557.63	21.226
557.97	21.167
558.31	21.083
558.64	21.031
558.98	21.010
559.31	20.986
559.65	20.905
559.98	20.854
560.32	20.786
560.65	20.721
560.99	20.647
561.33	20.592
561.66	20.537
562.00	20.494
562.33	20.432
562.67	20.349
563.00	20.278
563.34	20.198
563.67	20.139
564.01	20.092
564.34	20.025
564.68	19.965
565.01	19.903
565.35	19.845
565.68	19.737
566.02	19.633
566.35	19.548
566.69	19.425
567.02	19.353
567.36	19.229
567.69	19.151
568.03	19.077
568.36	18.966
568.69	18.860
569.03	18.753
569.36	18.703
569.70	18.625
570.03	18.543
570.37	18.474
570.70	18.409
571.04	18.346
571.37	18.260
571.70	18.159
572.04	18.090
572.37	18.006
572.71	17.909
573.04	17.828
573.37	17.775
573.71	17.723
574.04	17.669
574.38	17.574
574.71	17.502
575.04	17.422
575.38	17.363
575.71	17.272
576.05	17.201
576.38	17.171
576.71	17.079
577.05	16.995
577.38	16.891
577.71	16.780
578.05	16.711
578.38	16.635
578.71	16.548
579.05	16.463
579.38	16.392
579.71	16.314
580.05	16.215
580.38	16.149
580.71	16.057
581.05	15.990
581.38	15.954
581.71	15.894
582.05	15.822
582.38	15.790
582.71	15.719
583.04	15.698
583.38	15.619
583.71	15.585
584.04	15.567
584.38	15.529
584.71	15.490
585.04	15.454
585.37	15.427
585.71	15.406
586.04	15.357
586.37	15.337
586.70	15.300
587.04	15.303
587.37	15.279
587.70	15.237
588.03	15.226
588.37	15.207
588.70	15.176
589.03	15.127
589.36	15.083
589.69	15.037
590.03	15.009
590.36	14.956
590.69	14.888
591.02	14.808
591.35	14.773
591.69	14.724
592.02	14.700
592.35	14.627
592.68	14.611
593.01	14.609
593.35	14.595
593.68	14.583
594.01	14.583
594.34	14.584
594.67	14.587
595.00	14.550
595.34	14.534
595.67	14.481
596.00	14.479
596.33	14.422
596.66	14.375
596.99	14.336
597.32	14.275
597.65	14.214
597.99	14.180
598.32	14.094
598.65	14.035
598.98	13.979
599.31	13.914
599.64	13.874
599.97	13.856
600.30	13.815
600.63	13.786
600.96	13.799
601.30	13.792
601.63	13.784
601.96	13.823
602.29	13.815
602.62	13.810
602.95	13.810
603.28	13.796
603.61	13.756
603.94	13.735
604.27	13.717
604.60	13.651
604.93	13.613
605.26	13.543
605.59	13.476
605.92	13.424
606.25	13.363
606.58	13.316
606.91	13.219
607.24	13.196
607.57	13.131
607.90	13.057
608.23	13.009
608.56	12.934
608.89	12.866
609.22	12.812
609.55	12.718
609.88	12.651
610.21	12.600
610.54	12.554
610.87	12.451
611.20	12.385
611.53	12.305
611.86	12.220
612.19	12.137
612.52	12.072
612.85	11.986
613.18	11.972
613.51	11.857
613.84	11.757
614.17	11.734
614.49	11.697
614.82	11.655
615.15	11.642
615.48	11.592
615.81	11.558
616.14	11.539
616.47	11.501
616.80	11.413
617.13	11.406
617.46	11.388
617.78	11.310
618.11	11.252
618.44	11.194
618.77	11.107
619.10	11.066
619.43	11.021
619.76	10.949
620.09	10.903
620.41	10.910
620.74	10.916
621.07	10.882
621.40	10.897
621.73	10.901
622.06	10.900
622.38	10.901
622.71	10.899
623.04	10.934
623.37	11.004
623.70	11.041
624.02	11.061
624.35	11.059
624.68	11.060
625.01	11.059
625.34	11.085
625.66	11.115
625.99	11.140
626.32	11.161
626.65	11.108
626.98	11.061
627.30	11.016
627.63	10.978
627.96	10.926
628.29	10.902
628.61	10.863
628.94	10.815
629.27	10.755
629.60	10.694
629.92	10.652
630.25	10.646
630.58	10.585
630.91	10.541
631.23	10.472
631.56	10.464
631.89	10.420
632.21	10.388
632.54	10.348
632.87	10.289
633.19	10.217
633.52	10.164
633.85	10.108
634.18	10.037
634.50	9.964
634.83	9.901
635.16	9.785
635.48	9.682
635.81	9.582
636.14	9.476
636.46	9.394
636.79	9.334
637.11	9.200
637.44	9.046
637.77	8.955
638.09	8.858
638.42	8.770
638.75	8.664
639.07	8.575
639.40	8.463
639.73	8.358
640.05	8.214
640.38	8.105
640.70	8.021
641.03	7.959
641.36	7.895
641.68	7.810
642.01	7.730
642.33	7.671
642.66	7.602
642.98	7.512
643.31	7.431
643.64	7.386
643.96	7.333
644.29	7.261
644.61	7.202
644.94	7.157
645.26	7.115
645.59	7.062
645.91	7.026
646.24	7.020
646.56	7.033
646.89	7.019
647.22	6.989
647.54	6.982
647.87	7.000
648.19	7.003
648.52	6.978
648.84	6.960
649.17	6.905
649.49	6.925
649.82	6.868
650.14	6.810
650.47	6.794
650.79	6.806
651.11	6.764
651.44	6.703
651.76	6.667
652.09	6.680
652.41	6.709
652.74	6.761
653.06	6.727
653.39	6.753
653.71	6.784
654.04	6.758
654.36	6.751
654.68	6.743
655.01	6.774
655.33	6.781
655.66	6.757
655.98	6.736
656.30	6.698
656.63	6.686
656.95	6.667
657.28	6.646
657.60	6.593
657.92	6.559
658.25	6.551
658.57	6.516
658.90	6.437
659.22	6.379
659.54	6.335
659.87	6.300
660.19	6.224
660.51	6.173
660.84	6.126
661.16	6.112
661.48	6.081
661.81	6.024
662.13	6.006
662.45	6.056
662.78	6.058
663.10	6.085
663.42	6.111
663.75	6.148
664.07	6.140
664.39	6.140
664.72	6.181
665.04	6.239
665.36	6.327
665.69	6.402
666.01	6.482
666.33	6.558
666.65	6.581
666.98	6.656
667.30	6.773
667.62	6.826
667.94	6.958
668.27	7.070
668.59	7.181
668.91	7.343
669.23	7.426
669.56	7.528
669.88	7.651
670.20	7.815
670.52	7.993
670.85	8.110
671.17	8.397
671.49	8.530
671.81	8.760
672.13	8.963
672.46	9.119
672.78	9.341
673.10	9.544
673.42	9.831
673.74	10.064
674.07	10.267
674.39	10.557
674.71	10.717
675.03	11.019
675.35	11.175
675.67	11.312
676.00	11.467
676.32	11.609
676.64	11.777
676.96	11.932
677.28	12.116
677.60	12.288
677.92	12.475
678.25	12.716
678.57	12.829
678.89	13.026
679.21	13.249
679.53	13.464
679.85	13.741
680.17	14.049
680.49	14.285
680.81	14.583
681.13	14.880
681.46	15.097
681.78	15.384
682.10	15.724
682.42	16.011
682.74	16.389
683.06	16.729
683.38	16.992
683.70	17.217
684.02	17.501
684.34	17.748
684.66	17.975
684.98	18.303
685.30	18.522
685.62	18.698
685.94	18.956
686.26	19.083
686.58	19.285
686.90	19.506
687.22	19.759
687.54	19.914
687.86	20.016
688.18	20.208
688.50	20.356
688.82	20.505
689.14	20.752
689.46	21.028
689.78	21.305
690.10	21.499
690.42	21.778
690.74	22.001
691.06	22.312
691.38	22.616
691.70	22.885
692.02	23.116
692.34	23.419
692.66	23.688
692.98	23.884
693.30	24.092
693.62	24.305
693.94	24.453
694.26	24.604
694.57	24.739
694.89	24.915
695.21	25.076
695.53	25.275
695.85	25.436
696.17	25.506
696.49	25.682
696.81	25.932
697.13	26.186
697.44	26.368
697.76	26.636
698.08	26.988
698.40	27.302
698.72	27.654
699.04	28.026
699.36	28.426
699.67	28.895
699.99	29.293
700.31	29.633
700.63	30.018
700.95	30.621
701.27	31.105
701.58	31.442
701.90	31.780
702.22	32.113
702.54	32.353
702.86	32.675
703.17	33.021
703.49	33.382
703.81	33.721
704.13	34.012
704.45	34.190
704.76	34.468
705.08	34.789
705.40	35.071
705.72	35.355
706.03	35.691
706.35	35.869
706.67	36.070
706.99	36.260
707.30	36.545
707.62	36.760
707.94	37.003
708.26	37.193
708.57	37.352
708.89	37.593
709.21	37.805
709.53	38.008
709.84	38.263
710.16	38.550
710.48	38.841
710.79	39.060
711.11	39.337
711.43	39.558
711.74	39.812
712.06	40.133
712.38	40.462
712.69	40.731
713.01	41.101
713.33	41.518
713.64	41.907
713.96	42.169
714.28	42.485
714.59	42.885
714.91	43.239
715.23	43.612
715.54	43.953
715.86	44.288
716.17	44.719
716.49	45.024
716.81	45.285
717.12	45.646
717.44	46.047
717.76	46.513
718.07	46.688
718.39	47.072
718.70	47.391
719.02	47.689
719.33	47.997
719.65	48.187
719.97	48.339
720.28	48.697
720.60	48.923
720.91	49.244
721.23	49.437
721.54	49.848
721.86	50.136
722.17	50.358
722.49	50.591
722.81	50.667
723.12	50.883
723.44	51.126
723.75	51.394
724.07	51.582
724.38	51.747
724.70	51.893
725.01	52.056
725.33	52.180
725.64	52.316
725.96	52.500
726.27	52.688
726.59	52.945
726.90	53.096
727.22	53.025
727.53	53.153
727.84	53.246
728.16	53.309
728.47	53.419
728.79	53.497
729.10	53.471
729.42	53.564
729.73	53.671
730.05	53.701
730.36	53.820
730.67	53.929
730.99	54.044
731.30	54.210
731.62	54.323
731.93	54.490
732.24	54.715
732.56	54.925
732.87	55.136
733.19	55.573
733.50	55.829
733.81	56.051
734.13	56.437
734.44	56.467
734.76	56.538
735.07	56.798
735.38	56.931
735.70	57.122
736.01	57.303
736.32	57.252
736.64	57.206
736.95	57.238
737.26	57.301
737.58	57.202
737.89	57.409
738.20	57.488
738.52	57.502
738.83	57.482
739.14	57.247
739.45	57.416
739.77	57.554
740.08	57.559
740.39	57.697
740.71	58.027
741.02	58.123
741.33	58.208
741.64	58.293
741.96	58.574
742.27	58.863
742.58	59.201
742.90	59.314
743.21	59.395
743.52	59.483
743.83	59.397
744.14	59.157
744.46	59.396
744.77	59.347
745.08	59.327
745.39	59.157
745.71	58.957
746.02	58.967
746.33	58.879
746.64	58.874
746.95	58.925
747.27	59.055
747.58	59.130
747.89	59.015
748.20	58.986
748.51	59.295
748.82	59.285
749.14	59.278
749.45	59.276
749.76	59.321
750.07	59.352
750.38	59.330
750.69	59.320
751.01	59.302
751.32	59.189
751.63	59.263
751.94	58.802
752.25	58.709
752.56	58.775
752.87	58.715
753.18	58.446
753.49	58.314
753.81	58.357
754.12	58.185
754.43	58.095
754.74	58.033
755.05	57.967
755.36	58.295
755.67	58.446
755.98	58.403
756.29	58.397
756.60	58.769
756.91	58.923
757.22	58.899
757.53	59.199
757.84	59.365
758.15	59.557
758.46	59.555
758.77	59.284
759.09	59.135
759.40	59.038
759.71	58.918
760.02	58.677
760.33	58.534
760.64	58.360
760.95	58.242
761.26	57.961
761.57	57.820
761.88	57.674
762.18	57.699
762.49	57.643
762.80	57.645
763.11	57.696
763.42	57.680
763.73	57.700
764.04	57.680
764.35	57.632
764.66	57.678
764.97	57.694
765.28	57.832
765.59	57.658
765.90	57.479
766.21	57.261
766.52	57.161
766.83	57.081
767.14	56.870
767.44	56.686
767.75	56.320
768.06	56.238
768.37	55.998
768.68	55.866
768.99	55.853
769.30	56.001
769.61	56.086
769.91	55.828
770.22	55.609
770.53	55.198
770.84	55.180
771.15	55.303
771.46	55.202
771.77	54.995
772.07	54.673
772.38	54.496
772.69	54.521
773.00	54.467
773.31	54.769
773.61	54.733
773.92	55.289
774.23	55.244
774.54	54.819
774.85	54.770
775.15	54.966
775.46	54.867
775.77	55.210
776.08	55.192
776.39	54.851
776.69	54.564
777.00	54.500
777.31	54.500
777.62	54.501
777.92	54.630
778.23	54.734
778.54	54.600
778.85	54.823
779.15	54.245
779.46	53.891
779.77	54.001
780.07	53.991
780.38	54.169
780.69	53.649
781.00	53.756
781.30	53.768
781.61	53.453
781.92	53.483
782.22	53.755
782.53	54.112
782.84	54.225
783.14	54.431
783.45	54.262
783.76	54.335
784.06	54.387
784.37	54.394
784.68	54.663
784.98	54.957
785.29	55.194
785.60	54.870
785.90	54.825
786.21	54.849
786.51	54.872
786.82	55.372
787.13	55.273
787.43	55.765
787.74	55.951
788.04	55.966
788.35	55.821
788.66	55.536
788.96	55.923
789.27	56.136
789.57	56.121
789.88	56.222
790.19	55.491
790.49	55.559
790.80	55.318
791.10	55.278
791.41	55.122
791.71	55.401
792.02	55.739
792.32	55.180
792.63	55.112
792.93	55.295
793.24	55.076
793.54	55.609
793.85	55.285
794.15	55.188
794.46	55.003
794.76	55.158
795.07	54.963
795.37	54.713
795.68	54.982
795.98	55.190
796.29	55.531
796.59	55.467
796.90	55.262
797.20	55.738
797.51	55.529
797.81	55.441
798.12	55.389
798.42	55.567
798.72	55.855
799.03	55.768
799.33	55.579
799.64	55.185
799.94	55.584
800.25	55.612
800.55	55.648
800.85	56.039
801.16	56.305
801.46	55.982
801.77	56.034
802.07	55.659
802.37	55.709
802.68	55.610
802.98	55.508
803.28	55.061
803.59	55.469
803.89	55.382
804.20	55.358
804.50	55.196
804.80	55.655
805.11	55.387
805.41	55.174
805.71	55.469
806.02	55.710
806.32	55.735
806.62	56.073
806.93	56.052
807.23	56.515
807.53	56.351
807.83	56.258
808.14	56.350
808.44	56.393
808.74	56.773
809.05	56.581
809.35	56.349
809.65	56.565
809.95	56.741
810.26	56.092
810.56	55.857
810.86	56.374
811.16	56.850
811.47	57.326
811.77	57.617
812.07	57.652
812.37	57.396
812.68	58.008
812.98	58.109
813.28	58.310
813.58	59.313
813.88	58.879
814.19	58.850
814.49	59.024
814.79	58.748
815.09	58.873
815.39	58.606
815.70	58.990
816.00	58.561
816.30	58.561
816.60	58.074
816.90	57.676
817.20	57.802
817.50	57.635
817.81	56.732
818.11	56.394
818.41	56.266
818.71	56.476
819.01	56.618
819.31	56.866
819.61	57.093
819.92	57.319
820.22	57.578
820.52	57.808
820.82	58.054
821.12	58.581
821.42	58.903
821.72	59.229
822.02	59.649
822.32	60.022
822.62	60.335
822.92	60.511
823.22	60.821
823.52	61.138
823.83	61.225
824.13	61.325
824.43	61.249
824.73	61.422
825.03	61.385
825.33	61.276
825.63	61.057
825.93	60.799
826.23	60.879
826.53	60.771
826.83	60.540
827.13	60.672
827.43	60.808
827.73	61.114
828.03	61.281
828.33	61.742
828.63	61.689
828.93	61.750
829.23	61.920
829.53	61.796
829.83	61.513
830.13	61.147
830.42	60.789
830.72	60.365
831.02	59.982
831.32	59.215
831.62	58.654
831.92	58.656
832.22	58.630
832.52	58.549
832.82	58.544
833.12	58.680
833.42	58.785
833.72	59.197
834.01	59.539
834.31	59.771
834.61	60.181
834.91	60.895
835.21	60.956
835.51	61.311
835.81	61.304
836.11	61.443
836.40	61.594
836.70	61.736
837.00	61.781
837.30	61.413
837.60	61.416
837.90	61.865
838.19	60.938
838.49	60.939
838.79	60.789
839.09	60.776
839.39	61.173
839.68	61.146
839.98	61.124
840.28	60.774
840.58	61.036
840.88	60.927
841.17	60.030
841.47	60.727
841.77	61.022
842.07	60.479
842.36	60.790
842.66	59.556
842.96	59.190
843.26	59.009
843.55	59.428
843.85	59.284
844.15	57.903
844.45	57.524
844.74	56.936
845.04	56.929
845.34	57.380
845.63	56.632
845.93	57.798
846.23	57.954
846.53	57.811
846.82	56.888
847.12	56.127
847.42	56.722
847.71	57.087
848.01	56.951
848.31	56.434
848.60	56.257
848.90	55.467
849.19	54.881
849.49	55.100
849.79	56.266
850.08	56.491
850.38	56.103
850.68	56.251
850.97	56.487
851.27	55.666
851.56	55.669
851.86	54.861
852.16	58.065
852.45	56.898
852.75	56.973
853.04	56.725
853.34	55.132
853.64	57.509
853.93	57.254
854.23	57.808
854.52	59.296
854.82	59.870
855.11	59.812
855.41	58.456
855.70	60.538
856.00	60.392
856.30	60.144
856.59	62.239
856.89	60.804
857.18	60.986
857.48	60.545
857.77	59.187
858.07	58.652
858.36	58.298
858.66	57.703
858.95	56.479
859.25	57.350
859.54	56.788
859.84	56.693
860.13	56.850
860.42	57.358
860.72	56.417
861.01	57.097
861.31	57.417
861.60	59.423
861.90	60.313
862.19	61.075
862.49	59.277
862.78	59.730
863.07	60.731
863.37	60.736
863.66	59.060
863.96	61.352
864.25	61.274
864.54	61.343
864.84	61.544
865.13	60.964
865.43	60.352
865.72	64.137
866.01	63.609
866.31	71.702
866.60	51.117
866.89	52.275
>>>>>End Spectral Data<<<<<
