OOIBase32 Version 2.0.0.6 Data File
++++++++++++++++++++++++++++++++++++
Date: 01-23-2012, 23:19:36
User: Valued Ocean Optics Customer
Spectrometer Serial Number: USB2E2917
Spectrometer Channel: Master
Integration Time (msec): 5
Spectra Averaged: 10
Boxcar Smoothing: 5
Correct for Electrical Dark: Enabled
Time Normalized: Disabled
Dual-beam Reference: Disabled
Reference Channel: Master
Temperature: Not acquired
Spectrometer Type: S2000
ADC Type: USB2000
Number of Pixels in File: 2048
Graph Title: 
>>>>>Begin Spectral Data<<<<<
180.30	0.000
180.67	0.000
181.03	3.713
181.40	243.841
181.77	-7752.446
182.14	65.319
182.51	-66.493
182.88	24.026
183.25	29.788
183.62	93.135
183.99	484.395
184.36	42.696
184.73	300.910
185.10	-15.508
185.46	-750.582
185.83	352.354
186.20	81.788
186.57	31.204
186.94	36.716
187.31	40.994
187.68	110.486
188.05	129.247
188.42	157.312
188.78	217.744
189.15	617.483
189.52	-169.615
189.89	-28.209
190.26	-26.676
190.63	-18.397
191.00	-8.852
191.37	-0.495
191.73	13.242
192.10	17.651
192.47	19.791
192.84	9.120
193.21	12.933
193.58	21.233
193.94	12.850
194.31	10.613
194.68	23.360
195.05	21.550
195.42	28.877
195.79	28.181
196.15	22.246
196.52	10.868
196.89	30.045
197.26	17.426
197.63	-3.636
198.00	8.856
198.36	23.378
198.73	12.657
199.10	-0.346
199.47	-4.874
199.84	-6.948
200.20	-5.664
200.57	-2.925
200.94	-9.293
201.31	-3.848
201.68	2.761
202.04	2.906
202.41	4.087
202.78	-5.493
203.15	-16.108
203.51	-24.119
203.88	-19.789
204.25	-23.454
204.62	-41.548
204.98	-44.982
205.35	-44.595
205.72	-61.556
206.09	-67.948
206.46	-167.216
206.82	-126.105
207.19	-107.583
207.56	-172.192
207.92	-163.137
208.29	-167.029
208.66	-111.702
209.03	-105.925
209.39	-89.977
209.76	-78.037
210.13	-147.105
210.50	-84.006
210.86	-75.614
211.23	-89.604
211.60	-53.558
211.96	-48.942
212.33	-49.612
212.70	-57.705
213.07	-58.887
213.43	-96.429
213.80	-98.657
214.17	-46.241
214.53	-30.135
214.90	-19.198
215.27	-8.594
215.63	-6.158
216.00	-8.004
216.37	3.006
216.74	0.417
217.10	4.379
217.47	8.088
217.84	12.824
218.20	5.945
218.57	7.535
218.94	4.653
219.30	-1.118
219.67	-6.464
220.04	-1.829
220.40	-9.453
220.77	-13.674
221.13	-18.018
221.50	-18.893
221.87	-26.765
222.23	-24.840
222.60	-33.119
222.97	-32.211
223.33	-25.273
223.70	-21.159
224.07	-20.706
224.43	-18.678
224.80	-12.518
225.16	-9.933
225.53	-6.153
225.90	-5.733
226.26	-4.284
226.63	-3.051
226.99	-3.468
227.36	-3.539
227.73	-1.448
228.09	-2.372
228.46	-0.662
228.82	-0.620
229.19	-1.484
229.56	-3.747
229.92	-2.314
230.29	-2.290
230.65	-3.675
231.02	-4.512
231.38	-7.942
231.75	-9.652
232.12	-9.548
232.48	-11.973
232.85	-12.600
233.21	-10.783
233.58	-9.289
233.94	-9.007
234.31	-9.726
234.68	-8.071
235.04	-6.369
235.41	-3.133
235.77	-2.592
236.14	-1.354
236.50	-0.097
236.87	0.016
237.23	0.045
237.60	0.073
237.96	-0.613
238.33	-0.825
238.69	-1.742
239.06	-1.972
239.42	-1.706
239.79	-2.640
240.15	-3.058
240.52	-2.391
240.88	-1.767
241.25	-2.127
241.61	-2.131
241.98	-1.802
242.34	-1.586
242.71	-0.776
243.07	-0.415
243.44	-0.660
243.80	-0.136
244.17	0.074
244.53	-0.138
244.90	-0.138
245.26	0.162
245.63	0.297
245.99	0.184
246.36	0.234
246.72	0.346
247.09	0.228
247.45	0.335
247.81	0.582
248.18	0.683
248.54	0.764
248.91	0.479
249.27	0.435
249.64	0.709
250.00	0.894
250.36	0.854
250.73	0.324
251.09	0.271
251.46	0.313
251.82	-0.056
252.19	-0.019
252.55	-0.160
252.91	0.032
253.28	0.176
253.64	-0.494
254.01	-0.652
254.37	-0.460
254.73	0.269
255.10	0.447
255.46	0.889
255.83	1.088
256.19	1.050
256.55	0.890
256.92	0.958
257.28	0.792
257.65	0.996
258.01	1.086
258.37	1.046
258.74	0.786
259.10	0.724
259.46	0.307
259.83	0.216
260.19	0.144
260.55	0.248
260.92	0.112
261.28	0.074
261.64	0.127
262.01	0.302
262.37	0.508
262.73	0.833
263.10	0.923
263.46	1.224
263.82	1.167
264.19	1.046
264.55	0.789
264.91	0.765
265.28	0.862
265.64	0.691
266.00	0.366
266.37	0.209
266.73	0.059
267.09	-0.059
267.46	-0.051
267.82	-0.058
268.18	-0.010
268.54	0.267
268.91	0.130
269.27	0.096
269.63	0.440
270.00	0.473
270.36	0.379
270.72	0.485
271.08	0.463
271.45	0.364
271.81	0.472
272.17	0.516
272.53	0.445
272.90	0.572
273.26	0.669
273.62	0.154
273.98	0.090
274.35	0.047
274.71	-0.035
275.07	0.022
275.43	0.235
275.80	0.022
276.16	-0.165
276.52	-0.453
276.88	-0.636
277.25	-1.008
277.61	-0.726
277.97	-0.695
278.33	-0.667
278.69	-0.906
279.06	-0.872
279.42	-0.920
279.78	-0.963
280.14	-0.899
280.50	-0.579
280.87	-0.379
281.23	-0.160
281.59	-0.356
281.95	-0.398
282.31	-0.300
282.68	-0.269
283.04	-0.259
283.40	-0.188
283.76	0.082
284.12	0.302
284.48	0.329
284.85	0.315
285.21	0.286
285.57	0.389
285.93	0.600
286.29	0.475
286.65	0.598
287.02	0.823
287.38	0.819
287.74	0.695
288.10	0.414
288.46	0.247
288.82	0.165
289.18	0.252
289.54	0.251
289.91	0.240
290.27	0.469
290.63	0.638
290.99	0.526
291.35	0.571
291.71	0.669
292.07	0.864
292.43	0.865
292.79	1.007
293.16	0.986
293.52	1.193
293.88	1.289
294.24	1.087
294.60	0.894
294.96	0.791
295.32	0.767
295.68	0.715
296.04	0.725
296.40	0.877
296.76	0.918
297.12	0.812
297.49	0.598
297.85	0.362
298.21	0.470
298.57	0.405
298.93	0.500
299.29	0.352
299.65	0.310
300.01	0.252
300.37	0.151
300.73	0.219
301.09	0.303
301.45	0.289
301.81	0.345
302.17	0.393
302.53	0.417
302.89	0.272
303.25	0.361
303.61	0.388
303.97	0.329
304.33	0.378
304.69	0.288
305.05	0.289
305.41	0.363
305.77	0.414
306.13	0.322
306.49	0.255
306.85	0.368
307.21	0.387
307.57	0.385
307.93	0.464
308.29	0.559
308.65	0.507
309.01	0.500
309.37	0.496
309.73	0.403
310.09	0.540
310.45	0.685
310.81	0.632
311.17	0.608
311.53	0.625
311.89	0.620
312.25	0.561
312.61	0.480
312.96	0.508
313.32	0.536
313.68	0.590
314.04	0.476
314.40	0.573
314.76	0.576
315.12	0.591
315.48	0.510
315.84	0.577
316.20	0.598
316.56	0.722
316.92	0.615
317.27	0.476
317.63	0.483
317.99	0.421
318.35	0.194
318.71	0.253
319.07	0.311
319.43	0.405
319.79	0.360
320.15	0.269
320.50	0.275
320.86	0.359
321.22	0.404
321.58	0.362
321.94	0.326
322.30	0.376
322.66	0.306
323.01	0.151
323.37	0.031
323.73	-0.031
324.09	-0.077
324.45	-0.026
324.81	-0.044
325.17	0.044
325.52	-0.012
325.88	-0.036
326.24	-0.007
326.60	0.001
326.96	0.078
327.31	0.130
327.67	0.084
328.03	0.178
328.39	0.111
328.75	0.167
329.11	0.126
329.46	0.230
329.82	0.316
330.18	0.306
330.54	0.334
330.90	0.365
331.25	0.416
331.61	0.533
331.97	0.526
332.33	0.609
332.68	0.616
333.04	0.666
333.40	0.551
333.76	0.515
334.11	0.532
334.47	0.582
334.83	0.491
335.19	0.434
335.54	0.424
335.90	0.406
336.26	0.342
336.62	0.227
336.97	0.142
337.33	0.180
337.69	0.181
338.05	0.119
338.40	-0.001
338.76	0.073
339.12	0.057
339.48	0.019
339.83	-0.041
340.19	-0.016
340.55	0.089
340.90	0.128
341.26	0.201
341.62	0.268
341.97	0.300
342.33	0.340
342.69	0.380
343.04	0.407
343.40	0.332
343.76	0.332
344.12	0.356
344.47	0.367
344.83	0.388
345.19	0.404
345.54	0.420
345.90	0.456
346.26	0.576
346.61	0.547
346.97	0.627
347.32	0.778
347.68	0.844
348.04	0.831
348.39	0.816
348.75	0.843
349.11	0.871
349.46	0.928
349.82	0.991
350.18	0.968
350.53	1.076
350.89	1.176
351.24	1.200
351.60	1.260
351.96	1.343
352.31	1.406
352.67	1.451
353.02	1.453
353.38	1.476
353.74	1.525
354.09	1.526
354.45	1.553
354.80	1.544
355.16	1.629
355.52	1.690
355.87	1.658
356.23	1.702
356.58	1.758
356.94	1.792
357.29	1.858
357.65	1.867
358.00	1.902
358.36	1.878
358.72	1.877
359.07	1.900
359.43	2.000
359.78	2.147
360.14	2.189
360.49	2.237
360.85	2.334
361.20	2.352
361.56	2.393
361.91	2.474
362.27	2.575
362.62	2.694
362.98	2.778
363.33	2.758
363.69	2.750
364.04	2.871
364.40	2.910
364.75	2.967
365.11	3.028
365.46	3.084
365.82	3.185
366.17	3.294
366.53	3.353
366.88	3.369
367.24	3.451
367.59	3.506
367.95	3.581
368.30	3.660
368.66	3.718
369.01	3.766
369.37	3.869
369.72	3.935
370.08	3.992
370.43	4.077
370.78	4.157
371.14	4.184
371.49	4.336
371.85	4.330
372.20	4.402
372.56	4.429
372.91	4.516
373.26	4.574
373.62	4.570
373.97	4.633
374.33	4.656
374.68	4.704
375.03	4.809
375.39	4.759
375.74	4.819
376.10	4.863
376.45	4.973
376.80	5.034
377.16	5.076
377.51	5.160
377.87	5.198
378.22	5.185
378.57	5.271
378.93	5.317
379.28	5.430
379.63	5.472
379.99	5.572
380.34	5.622
380.70	5.650
381.05	5.719
381.40	5.753
381.76	5.791
382.11	5.890
382.46	5.915
382.82	5.992
383.17	6.034
383.52	6.058
383.88	6.048
384.23	6.053
384.58	6.062
384.94	6.083
385.29	6.172
385.64	6.226
385.99	6.253
386.35	6.281
386.70	6.268
387.05	6.251
387.41	6.302
387.76	6.327
388.11	6.367
388.47	6.424
388.82	6.470
389.17	6.446
389.52	6.458
389.88	6.552
390.23	6.599
390.58	6.693
390.93	6.745
391.29	6.763
391.64	6.808
391.99	6.892
392.34	6.958
392.70	6.966
393.05	7.007
393.40	7.042
393.75	7.025
394.11	7.030
394.46	6.995
394.81	6.999
395.16	7.023
395.52	7.031
395.87	6.994
396.22	6.978
396.57	6.971
396.92	6.916
397.28	6.901
397.63	6.882
397.98	6.876
398.33	6.913
398.68	6.928
399.04	6.913
399.39	6.897
399.74	6.915
400.09	6.915
400.44	6.921
400.80	6.956
401.15	6.922
401.50	6.950
401.85	6.960
402.20	6.916
402.55	6.951
402.90	6.941
403.26	6.930
403.61	6.902
403.96	6.891
404.31	6.888
404.66	6.912
405.01	6.912
405.36	6.910
405.72	6.896
406.07	6.897
406.42	6.852
406.77	6.863
407.12	6.867
407.47	6.860
407.82	6.814
408.17	6.791
408.53	6.781
408.88	6.784
409.23	6.738
409.58	6.705
409.93	6.702
410.28	6.696
410.63	6.690
410.98	6.689
411.33	6.677
411.68	6.712
412.03	6.759
412.38	6.716
412.73	6.747
413.09	6.783
413.44	6.800
413.79	6.797
414.14	6.790
414.49	6.805
414.84	6.816
415.19	6.826
415.54	6.840
415.89	6.819
416.24	6.852
416.59	6.854
416.94	6.830
417.29	6.846
417.64	6.828
417.99	6.848
418.34	6.857
418.69	6.853
419.04	6.846
419.39	6.849
419.74	6.871
420.09	6.888
420.44	6.894
420.79	6.901
421.14	6.902
421.49	6.932
421.84	6.931
422.19	6.935
422.54	6.934
422.89	6.940
423.24	6.938
423.59	6.931
423.94	6.908
424.29	6.917
424.64	6.933
424.99	6.925
425.34	6.898
425.68	6.881
426.03	6.853
426.38	6.869
426.73	6.867
427.08	6.845
427.43	6.831
427.78	6.814
428.13	6.768
428.48	6.750
428.83	6.731
429.18	6.737
429.53	6.733
429.87	6.723
430.22	6.696
430.57	6.710
430.92	6.709
431.27	6.702
431.62	6.687
431.97	6.691
432.32	6.683
432.67	6.694
433.01	6.689
433.36	6.675
433.71	6.669
434.06	6.661
434.41	6.640
434.76	6.640
435.11	6.633
435.45	6.655
435.80	6.645
436.15	6.650
436.50	6.650
436.85	6.666
437.20	6.680
437.54	6.702
437.89	6.727
438.24	6.742
438.59	6.751
438.94	6.762
439.29	6.751
439.63	6.772
439.98	6.786
440.33	6.788
440.68	6.806
441.03	6.821
441.37	6.830
441.72	6.840
442.07	6.851
442.42	6.874
442.76	6.914
443.11	6.967
443.46	6.997
443.81	7.023
444.16	7.072
444.50	7.091
444.85	7.124
445.20	7.162
445.55	7.195
445.89	7.234
446.24	7.268
446.59	7.261
446.94	7.267
447.28	7.295
447.63	7.323
447.98	7.333
448.32	7.353
448.67	7.371
449.02	7.383
449.37	7.385
449.71	7.402
450.06	7.423
450.41	7.473
450.75	7.510
451.10	7.518
451.45	7.516
451.79	7.522
452.14	7.533
452.49	7.554
452.84	7.573
453.18	7.594
453.53	7.597
453.88	7.592
454.22	7.593
454.57	7.594
454.92	7.613
455.26	7.629
455.61	7.670
455.95	7.708
456.30	7.715
456.65	7.745
456.99	7.773
457.34	7.807
457.69	7.820
458.03	7.833
458.38	7.857
458.73	7.878
459.07	7.890
459.42	7.882
459.76	7.862
460.11	7.855
460.46	7.822
460.80	7.799
461.15	7.761
461.49	7.762
461.84	7.765
462.19	7.748
462.53	7.720
462.88	7.721
463.22	7.708
463.57	7.702
463.91	7.706
464.26	7.735
464.61	7.739
464.95	7.751
465.30	7.752
465.64	7.747
465.99	7.756
466.33	7.760
466.68	7.755
467.02	7.771
467.37	7.790
467.71	7.781
468.06	7.771
468.41	7.749
468.75	7.730
469.10	7.730
469.44	7.720
469.79	7.684
470.13	7.654
470.48	7.631
470.82	7.619
471.17	7.608
471.51	7.612
471.86	7.594
472.20	7.615
472.55	7.631
472.89	7.644
473.23	7.638
473.58	7.657
473.92	7.660
474.27	7.683
474.61	7.675
474.96	7.680
475.30	7.683
475.65	7.674
475.99	7.670
476.34	7.673
476.68	7.647
477.02	7.666
477.37	7.676
477.71	7.723
478.06	7.740
478.40	7.796
478.75	7.858
479.09	7.957
479.43	8.092
479.78	8.255
480.12	8.431
480.47	8.629
480.81	8.813
481.15	9.010
481.50	9.188
481.84	9.400
482.19	9.622
482.53	9.826
482.87	9.955
483.22	9.984
483.56	9.910
483.90	9.762
484.25	9.575
484.59	9.373
484.94	9.182
485.28	9.023
485.62	8.840
485.97	8.630
486.31	8.446
486.65	8.330
487.00	8.292
487.34	8.326
487.68	8.410
488.03	8.512
488.37	8.618
488.71	8.688
489.06	8.715
489.40	8.734
489.74	8.746
490.09	8.761
490.43	8.769
490.77	8.780
491.11	8.767
491.46	8.768
491.80	8.769
492.14	8.760
492.49	8.763
492.83	8.775
493.17	8.786
493.51	8.809
493.86	8.825
494.20	8.842
494.54	8.867
494.88	8.941
495.23	9.006
495.57	9.071
495.91	9.153
496.25	9.250
496.60	9.319
496.94	9.392
497.28	9.472
497.62	9.544
497.97	9.609
498.31	9.700
498.65	9.764
498.99	9.808
499.33	9.904
499.68	9.988
500.02	10.064
500.36	10.159
500.70	10.250
501.04	10.335
501.39	10.425
501.73	10.544
502.07	10.657
502.41	10.771
502.75	10.919
503.09	11.011
503.44	11.125
503.78	11.208
504.12	11.306
504.46	11.424
504.80	11.548
505.14	11.681
505.49	11.794
505.83	11.901
506.17	12.032
506.51	12.138
506.85	12.273
507.19	12.395
507.53	12.541
507.87	12.681
508.22	12.802
508.56	12.918
508.90	13.034
509.24	13.163
509.58	13.282
509.92	13.393
510.26	13.529
510.60	13.641
510.94	13.760
511.28	13.868
511.63	13.987
511.97	14.113
512.31	14.247
512.65	14.375
512.99	14.488
513.33	14.671
513.67	14.846
514.01	15.013
514.35	15.166
514.69	15.324
515.03	15.484
515.37	15.642
515.71	15.792
516.05	15.940
516.39	16.066
516.73	16.220
517.07	16.307
517.41	16.391
517.75	16.483
518.09	16.603
518.43	16.708
518.77	16.788
519.11	16.866
519.45	16.950
519.79	17.051
520.13	17.171
520.47	17.254
520.81	17.360
521.15	17.506
521.49	17.620
521.83	17.710
522.17	17.807
522.51	17.954
522.85	18.077
523.19	18.239
523.53	18.425
523.87	18.650
524.21	18.905
524.55	19.151
524.89	19.351
525.23	19.560
525.57	19.751
525.91	19.943
526.25	20.104
526.58	20.275
526.92	20.418
527.26	20.517
527.60	20.558
527.94	20.583
528.28	20.583
528.62	20.591
528.96	20.571
529.30	20.547
529.64	20.500
529.97	20.463
530.31	20.414
530.65	20.374
530.99	20.337
531.33	20.351
531.67	20.364
532.01	20.386
532.35	20.387
532.68	20.406
533.02	20.416
533.36	20.430
533.70	20.426
534.04	20.414
534.38	20.398
534.71	20.401
535.05	20.387
535.39	20.367
535.73	20.351
536.07	20.377
536.41	20.384
536.74	20.413
537.08	20.450
537.42	20.501
537.76	20.557
538.10	20.639
538.43	20.715
538.77	20.807
539.11	20.862
539.45	20.924
539.79	20.971
540.12	21.022
540.46	21.061
540.80	21.069
541.14	21.080
541.47	21.072
541.81	21.033
542.15	20.994
542.49	20.947
542.82	20.925
543.16	20.879
543.50	20.839
543.84	20.784
544.17	20.732
544.51	20.729
544.85	20.709
545.18	20.704
545.52	20.713
545.86	20.704
546.20	20.702
546.53	20.705
546.87	20.694
547.21	20.660
547.54	20.643
547.88	20.631
548.22	20.607
548.55	20.587
548.89	20.605
549.23	20.599
549.56	20.604
549.90	20.611
550.24	20.618
550.57	20.648
550.91	20.665
551.25	20.717
551.58	20.754
551.92	20.757
552.26	20.756
552.59	20.730
552.93	20.729
553.27	20.730
553.60	20.730
553.94	20.690
554.27	20.647
554.61	20.636
554.95	20.598
555.28	20.565
555.62	20.558
555.95	20.561
556.29	20.554
556.63	20.528
556.96	20.509
557.30	20.453
557.63	20.425
557.97	20.405
558.31	20.344
558.64	20.321
558.98	20.295
559.31	20.279
559.65	20.222
559.98	20.177
560.32	20.138
560.65	20.102
560.99	20.067
561.33	20.038
561.66	20.006
562.00	19.967
562.33	19.916
562.67	19.878
563.00	19.828
563.34	19.800
563.67	19.770
564.01	19.721
564.34	19.677
564.68	19.638
565.01	19.605
565.35	19.570
565.68	19.525
566.02	19.466
566.35	19.420
566.69	19.339
567.02	19.278
567.36	19.191
567.69	19.120
568.03	19.063
568.36	18.975
568.69	18.902
569.03	18.831
569.36	18.786
569.70	18.709
570.03	18.643
570.37	18.603
570.70	18.556
571.04	18.518
571.37	18.484
571.70	18.413
572.04	18.387
572.37	18.345
572.71	18.294
573.04	18.240
573.37	18.202
573.71	18.153
574.04	18.083
574.38	18.016
574.71	17.981
575.04	17.929
575.38	17.896
575.71	17.828
576.05	17.743
576.38	17.716
576.71	17.657
577.05	17.618
577.38	17.561
577.71	17.535
578.05	17.489
578.38	17.419
578.71	17.366
579.05	17.325
579.38	17.266
579.71	17.248
580.05	17.167
580.38	17.117
580.71	17.066
581.05	17.033
581.38	16.990
581.71	16.970
582.05	16.938
582.38	16.885
582.71	16.827
583.04	16.834
583.38	16.793
583.71	16.789
584.04	16.762
584.38	16.750
584.71	16.712
585.04	16.690
585.37	16.639
585.71	16.624
586.04	16.616
586.37	16.612
586.70	16.575
587.04	16.563
587.37	16.531
587.70	16.548
588.03	16.525
588.37	16.498
588.70	16.471
589.03	16.447
589.36	16.404
589.69	16.371
590.03	16.348
590.36	16.319
590.69	16.257
591.02	16.215
591.35	16.125
591.69	16.091
592.02	16.083
592.35	16.045
592.68	16.042
593.01	16.010
593.35	16.007
593.68	15.998
594.01	15.979
594.34	15.945
594.67	15.943
595.00	15.952
595.34	15.911
595.67	15.867
596.00	15.870
596.33	15.819
596.66	15.795
596.99	15.729
597.32	15.669
597.65	15.619
597.99	15.625
598.32	15.566
598.65	15.520
598.98	15.452
599.31	15.421
599.64	15.354
599.97	15.335
600.30	15.324
600.63	15.342
600.96	15.322
601.30	15.331
601.63	15.333
601.96	15.344
602.29	15.324
602.62	15.327
602.95	15.306
603.28	15.302
603.61	15.285
603.94	15.239
604.27	15.208
604.60	15.173
604.93	15.140
605.26	15.091
605.59	15.003
605.92	14.971
606.25	14.955
606.58	14.938
606.91	14.859
607.24	14.825
607.57	14.821
607.90	14.762
608.23	14.730
608.56	14.664
608.89	14.588
609.22	14.587
609.55	14.526
609.88	14.468
610.21	14.390
610.54	14.350
610.87	14.251
611.20	14.167
611.53	14.120
611.86	14.085
612.19	14.023
612.52	13.986
612.85	13.946
613.18	13.935
613.51	13.854
613.84	13.812
614.17	13.794
614.49	13.809
614.82	13.757
615.15	13.727
615.48	13.674
615.81	13.652
616.14	13.641
616.47	13.570
616.80	13.505
617.13	13.492
617.46	13.480
617.78	13.438
618.11	13.360
618.44	13.355
618.77	13.298
619.10	13.263
619.43	13.233
619.76	13.179
620.09	13.178
620.41	13.169
620.74	13.167
621.07	13.168
621.40	13.178
621.73	13.216
622.06	13.217
622.38	13.214
622.71	13.205
623.04	13.227
623.37	13.256
623.70	13.274
624.02	13.275
624.35	13.303
624.68	13.278
625.01	13.272
625.34	13.256
625.66	13.243
625.99	13.282
626.32	13.275
626.65	13.266
626.98	13.245
627.30	13.234
627.63	13.204
627.96	13.113
628.29	13.091
628.61	13.064
628.94	13.058
629.27	13.022
629.60	12.947
629.92	12.963
630.25	12.933
630.58	12.877
630.91	12.844
631.23	12.834
631.56	12.834
631.89	12.784
632.21	12.751
632.54	12.690
632.87	12.646
633.19	12.627
633.52	12.517
633.85	12.454
634.18	12.388
634.50	12.267
634.83	12.184
635.16	12.120
635.48	12.035
635.81	11.933
636.14	11.849
636.46	11.728
636.79	11.594
637.11	11.512
637.44	11.375
637.77	11.269
638.09	11.182
638.42	11.097
638.75	11.016
639.07	10.962
639.40	10.867
639.73	10.794
640.05	10.748
640.38	10.698
640.70	10.624
641.03	10.576
641.36	10.525
641.68	10.467
642.01	10.386
642.33	10.307
642.66	10.243
642.98	10.174
643.31	10.095
643.64	10.029
643.96	9.995
644.29	9.944
644.61	9.891
644.94	9.857
645.26	9.842
645.59	9.844
645.91	9.790
646.24	9.738
646.56	9.728
646.89	9.709
647.22	9.675
647.54	9.623
647.87	9.595
648.19	9.590
648.52	9.547
648.84	9.501
649.17	9.439
649.49	9.417
649.82	9.368
650.14	9.334
650.47	9.293
650.79	9.326
651.11	9.302
651.44	9.311
651.76	9.267
652.09	9.291
652.41	9.301
652.74	9.312
653.06	9.328
653.39	9.342
653.71	9.337
654.04	9.314
654.36	9.265
654.68	9.261
655.01	9.250
655.33	9.258
655.66	9.206
655.98	9.172
656.30	9.104
656.63	9.098
656.95	9.110
657.28	9.112
657.60	9.094
657.92	9.067
658.25	9.020
658.57	8.966
658.90	8.919
659.22	8.899
659.54	8.858
659.87	8.849
660.19	8.783
660.51	8.725
660.84	8.656
661.16	8.588
661.48	8.564
661.81	8.548
662.13	8.523
662.45	8.530
662.78	8.547
663.10	8.519
663.42	8.503
663.75	8.524
664.07	8.549
664.39	8.527
664.72	8.590
665.04	8.582
665.36	8.624
665.69	8.658
666.01	8.672
666.33	8.704
666.65	8.745
666.98	8.805
667.30	8.851
667.62	8.875
667.94	8.958
668.27	9.016
668.59	9.093
668.91	9.168
669.23	9.275
669.56	9.375
669.88	9.461
670.20	9.592
670.52	9.750
670.85	9.837
671.17	9.946
671.49	10.078
671.81	10.245
672.13	10.401
672.46	10.546
672.78	10.714
673.10	10.864
673.42	11.029
673.74	11.155
674.07	11.290
674.39	11.466
674.71	11.615
675.03	11.840
675.35	12.002
675.67	12.106
676.00	12.241
676.32	12.342
676.64	12.495
676.96	12.631
677.28	12.824
677.60	12.986
677.92	13.174
678.25	13.356
678.57	13.518
678.89	13.624
679.21	13.813
679.53	14.008
679.85	14.220
680.17	14.407
680.49	14.655
680.81	14.915
681.13	15.125
681.46	15.400
681.78	15.690
682.10	15.919
682.42	16.241
682.74	16.552
683.06	16.825
683.38	17.137
683.70	17.443
684.02	17.645
684.34	17.899
684.66	18.109
684.98	18.350
685.30	18.556
685.62	18.764
685.94	18.956
686.26	19.115
686.58	19.298
686.90	19.410
687.22	19.523
687.54	19.694
687.86	19.805
688.18	19.975
688.50	20.088
688.82	20.188
689.14	20.380
689.46	20.619
689.78	20.802
690.10	20.945
690.42	21.131
690.74	21.362
691.06	21.574
691.38	21.756
691.70	21.972
692.02	22.116
692.34	22.320
692.66	22.432
692.98	22.511
693.30	22.666
693.62	22.856
693.94	22.946
694.26	23.036
694.57	23.089
694.89	23.180
695.21	23.274
695.53	23.364
695.85	23.400
696.17	23.499
696.49	23.597
696.81	23.708
697.13	23.762
697.44	23.899
697.76	24.029
698.08	24.216
698.40	24.389
698.72	24.560
699.04	24.751
699.36	25.029
699.67	25.178
699.99	25.402
700.31	25.622
700.63	25.865
700.95	26.086
701.27	26.330
701.58	26.493
701.90	26.620
702.22	26.806
702.54	26.955
702.86	27.157
703.17	27.401
703.49	27.479
703.81	27.608
704.13	27.750
704.45	27.872
704.76	28.054
705.08	28.260
705.40	28.425
705.72	28.510
706.03	28.617
706.35	28.591
706.67	28.730
706.99	28.898
707.30	29.087
707.62	29.267
707.94	29.402
708.26	29.490
708.57	29.605
708.89	29.804
709.21	29.997
709.53	30.204
709.84	30.457
710.16	30.669
710.48	30.847
710.79	30.949
711.11	31.124
711.43	31.296
711.74	31.416
712.06	31.559
712.38	31.706
712.69	31.857
713.01	32.060
713.33	32.239
713.64	32.412
713.96	32.615
714.28	32.828
714.59	33.031
714.91	33.262
715.23	33.529
715.54	33.752
715.86	33.941
716.17	34.110
716.49	34.346
716.81	34.635
717.12	34.716
717.44	34.957
717.76	35.156
718.07	35.237
718.39	35.403
718.70	35.447
719.02	35.583
719.33	35.799
719.65	36.070
719.97	36.080
720.28	36.270
720.60	36.580
720.91	36.660
721.23	36.858
721.54	37.088
721.86	37.394
722.17	37.706
722.49	37.971
722.81	37.995
723.12	38.090
723.44	38.330
723.75	38.317
724.07	38.445
724.38	38.663
724.70	38.877
725.01	38.920
725.33	38.884
725.64	39.013
725.96	39.047
726.27	39.047
726.59	39.197
726.90	39.241
727.22	39.156
727.53	39.203
727.84	39.243
728.16	39.179
728.47	39.374
728.79	39.544
729.10	39.539
729.42	39.591
729.73	39.733
730.05	39.772
730.36	39.904
730.67	40.176
730.99	40.199
731.30	40.159
731.62	40.307
731.93	40.266
732.24	40.280
732.56	40.347
732.87	40.499
733.19	40.682
733.50	40.786
733.81	40.675
734.13	40.719
734.44	40.856
734.76	41.009
735.07	41.020
735.38	41.187
735.70	41.295
736.01	41.426
736.32	41.441
736.64	41.574
736.95	41.454
737.26	41.707
737.58	41.718
737.89	41.752
738.20	41.746
738.52	41.828
738.83	41.763
739.14	41.681
739.45	41.746
739.77	41.763
740.08	41.751
740.39	41.912
740.71	41.815
741.02	41.991
741.33	41.970
741.64	42.116
741.96	42.092
742.27	42.128
742.58	42.263
742.90	42.137
743.21	42.105
743.52	42.125
743.83	42.144
744.14	42.333
744.46	42.377
744.77	42.562
745.08	42.414
745.39	42.517
745.71	42.586
746.02	42.614
746.33	42.780
746.64	42.733
746.95	42.700
747.27	42.832
747.58	42.785
747.89	42.705
748.20	42.481
748.51	42.747
748.82	42.663
749.14	42.801
749.45	42.938
749.76	42.862
750.07	43.047
750.38	42.939
750.69	42.810
751.01	42.729
751.32	42.550
751.63	42.636
751.94	42.401
752.25	42.341
752.56	42.225
752.87	41.990
753.18	41.824
753.49	41.723
753.81	41.905
754.12	41.831
754.43	41.897
754.74	41.916
755.05	41.911
755.36	42.117
755.67	42.268
755.98	42.355
756.29	42.522
756.60	42.753
756.91	42.846
757.22	42.962
757.53	43.328
757.84	43.625
758.15	43.986
758.46	44.181
758.77	44.223
759.09	44.356
759.40	44.359
759.71	44.191
760.02	44.192
760.33	44.128
760.64	44.034
760.95	43.954
761.26	43.803
761.57	43.687
761.88	43.643
762.18	43.554
762.49	43.503
762.80	43.589
763.11	43.645
763.42	43.507
763.73	43.414
764.04	43.348
764.35	43.144
764.66	42.976
764.97	42.688
765.28	42.545
765.59	42.404
765.90	41.978
766.21	41.375
766.52	41.148
766.83	40.927
767.14	40.911
767.44	40.665
767.75	40.499
768.06	40.237
768.37	40.154
768.68	39.901
768.99	39.682
769.30	39.803
769.61	39.893
769.91	39.689
770.22	39.694
770.53	39.465
770.84	39.482
771.15	39.308
771.46	39.197
771.77	39.477
772.07	39.418
772.38	39.357
772.69	39.193
773.00	39.311
773.31	39.220
773.61	38.981
773.92	38.718
774.23	38.711
774.54	38.650
774.85	38.557
775.15	38.289
775.46	38.303
775.77	38.376
776.08	38.246
776.39	38.098
776.69	38.408
777.00	38.492
777.31	38.857
777.62	38.729
777.92	38.815
778.23	39.094
778.54	38.887
778.85	38.945
779.15	38.877
779.46	38.976
779.77	39.015
780.07	38.824
780.38	38.906
780.69	38.899
781.00	38.881
781.30	38.868
781.61	38.690
781.92	38.855
782.22	38.975
782.53	38.634
782.84	38.848
783.14	39.043
783.45	39.048
783.76	39.221
784.06	39.189
784.37	39.035
784.68	39.125
784.98	39.387
785.29	39.238
785.60	39.017
785.90	39.472
786.21	39.306
786.51	39.225
786.82	39.412
787.13	39.529
787.43	39.520
787.74	40.040
788.04	40.315
788.35	40.336
788.66	40.589
788.96	40.946
789.27	40.946
789.57	41.019
789.88	40.889
790.19	40.683
790.49	40.489
790.80	40.427
791.10	39.922
791.41	40.024
791.71	40.053
792.02	39.844
792.32	39.347
792.63	39.383
792.93	39.240
793.24	39.242
793.54	39.489
793.85	39.556
794.15	39.567
794.46	39.806
794.76	39.410
795.07	39.321
795.37	39.558
795.68	39.555
795.98	39.697
796.29	40.042
796.59	40.181
796.90	40.141
797.20	40.216
797.51	40.165
797.81	39.918
798.12	40.120
798.42	40.528
798.72	40.948
799.03	41.217
799.33	40.937
799.64	40.632
799.94	40.768
800.25	40.851
800.55	40.738
800.85	41.035
801.16	41.435
801.46	41.103
801.77	40.525
802.07	40.092
802.37	40.080
802.68	39.888
802.98	39.960
803.28	39.909
803.59	39.881
803.89	39.937
804.20	39.902
804.50	39.729
804.80	39.998
805.11	40.068
805.41	39.972
805.71	40.079
806.02	40.612
806.32	40.516
806.62	40.594
806.93	40.598
807.23	41.047
807.53	40.798
807.83	40.890
808.14	41.523
808.44	41.557
808.74	41.460
809.05	41.406
809.35	41.164
809.65	41.827
809.95	42.093
810.26	41.818
810.56	41.252
810.86	41.556
811.16	41.648
811.47	41.309
811.77	41.708
812.07	41.879
812.37	41.716
812.68	41.694
812.98	41.879
813.28	41.668
813.58	42.370
813.88	42.491
814.19	43.021
814.49	43.112
814.79	42.971
815.09	42.831
815.39	42.898
815.70	43.037
816.00	43.333
816.30	42.991
816.60	43.071
816.90	43.098
817.20	43.401
817.50	43.022
817.81	42.869
818.11	43.003
818.41	43.164
818.71	43.323
819.01	43.643
819.31	43.872
819.61	44.179
819.92	44.448
820.22	44.716
820.52	44.905
820.82	45.238
821.12	45.707
821.42	46.036
821.72	46.334
822.02	46.678
822.32	46.964
822.62	47.249
822.92	47.463
823.22	47.691
823.52	47.869
823.83	48.091
824.13	48.053
824.43	47.886
824.73	47.801
825.03	47.706
825.33	47.689
825.63	47.589
825.93	47.351
826.23	47.209
826.53	46.918
826.83	46.754
827.13	46.646
827.43	46.727
827.73	46.838
828.03	46.968
828.33	47.123
828.63	47.131
828.93	46.933
829.23	47.133
829.53	46.800
829.83	46.803
830.13	46.420
830.42	45.849
830.72	45.747
831.02	45.677
831.32	45.353
831.62	45.135
831.92	44.867
832.22	44.751
832.52	44.486
832.82	44.737
833.12	44.869
833.42	45.068
833.72	45.612
834.01	45.888
834.31	45.994
834.61	46.311
834.91	46.705
835.21	46.862
835.51	47.264
835.81	47.360
836.11	47.522
836.40	47.284
836.70	47.468
837.00	47.014
837.30	46.640
837.60	46.441
837.90	46.354
838.19	45.935
838.49	45.527
838.79	45.417
839.09	45.948
839.39	46.022
839.68	46.637
839.98	45.991
840.28	45.690
840.58	45.715
840.88	45.792
841.17	44.964
841.47	44.692
841.77	44.750
842.07	45.056
842.36	44.268
842.66	43.639
842.96	42.370
843.26	41.945
843.55	41.659
843.85	41.242
844.15	40.402
844.45	40.187
844.74	40.247
845.04	39.909
845.34	38.591
845.63	38.665
845.93	38.019
846.23	39.481
846.53	40.067
846.82	40.384
847.12	41.593
847.42	41.548
847.71	41.121
848.01	40.311
848.31	40.195
848.60	39.606
848.90	37.944
849.19	39.537
849.49	38.233
849.79	38.037
850.08	38.458
850.38	37.345
850.68	37.538
850.97	39.901
851.27	39.421
851.56	39.618
851.86	38.527
852.16	40.097
852.45	38.775
852.75	38.548
853.04	39.989
853.34	39.801
853.64	39.235
853.93	39.264
854.23	38.422
854.52	39.131
854.82	41.026
855.11	43.683
855.41	45.111
855.70	45.475
856.00	44.474
856.30	43.147
856.59	43.686
856.89	44.198
857.18	45.154
857.48	44.739
857.77	43.595
858.07	41.898
858.36	40.373
858.66	39.141
858.95	38.905
859.25	39.867
859.54	39.553
859.84	38.016
860.13	38.242
860.42	37.167
860.72	35.653
861.01	36.641
861.31	36.244
861.60	36.516
861.90	36.312
862.19	36.666
862.49	35.963
862.78	36.065
863.07	36.953
863.37	36.510
863.66	36.136
863.96	39.104
864.25	41.096
864.54	42.521
864.84	43.101
865.13	42.371
865.43	41.849
865.72	61.163
866.01	52.324
866.31	46.217
866.60	32.007
866.89	37.427
>>>>>End Spectral Data<<<<<
