OOIBase32 Version 2.0.0.6 Data File
++++++++++++++++++++++++++++++++++++
Date: 01-23-2012, 23:20:03
User: Valued Ocean Optics Customer
Spectrometer Serial Number: USB2E2917
Spectrometer Channel: Master
Integration Time (msec): 5
Spectra Averaged: 10
Boxcar Smoothing: 5
Correct for Electrical Dark: Enabled
Time Normalized: Disabled
Dual-beam Reference: Disabled
Reference Channel: Master
Temperature: Not acquired
Spectrometer Type: S2000
ADC Type: USB2000
Number of Pixels in File: 2048
Graph Title: 
>>>>>Begin Spectral Data<<<<<
180.30	0.000
180.67	0.000
181.03	-48.499
181.40	625.697
181.77	-2448.394
182.14	15.661
182.51	-555.516
182.88	108.870
183.25	-9.790
183.62	82.187
183.99	396.786
184.36	-65.023
184.73	652.343
185.10	104.132
185.46	-450.269
185.83	300.218
186.20	49.237
186.57	-31.801
186.94	26.693
187.31	98.046
187.68	86.099
188.05	134.625
188.42	206.679
188.78	375.032
189.15	1038.091
189.52	-211.918
189.89	-51.131
190.26	-30.395
190.63	-2.292
191.00	20.502
191.37	22.713
191.73	27.418
192.10	31.155
192.47	37.917
192.84	41.507
193.21	51.918
193.58	51.481
193.94	52.314
194.31	50.626
194.68	49.238
195.05	20.987
195.42	13.905
195.79	3.742
196.15	-13.162
196.52	-16.002
196.89	-18.317
197.26	-42.928
197.63	-31.844
198.00	-25.387
198.36	-39.337
198.73	-62.525
199.10	-41.198
199.47	-26.134
199.84	-23.012
200.20	-19.220
200.57	-19.403
200.94	-17.762
201.31	-5.237
201.68	-5.635
202.04	-6.932
202.41	-3.587
202.78	-10.337
203.15	-18.984
203.51	-19.512
203.88	-30.615
204.25	-15.297
204.62	-21.546
204.98	-21.036
205.35	-29.807
205.72	-34.471
206.09	-38.046
206.46	-83.933
206.82	-67.059
207.19	-49.498
207.56	-110.286
207.92	-92.415
208.29	-132.437
208.66	-93.740
209.03	-100.684
209.39	-78.030
209.76	-91.517
210.13	-161.846
210.50	-99.679
210.86	-85.205
211.23	-114.420
211.60	-75.365
211.96	-75.585
212.33	-50.827
212.70	-57.553
213.07	-56.711
213.43	-99.632
213.80	-90.863
214.17	-49.733
214.53	-40.864
214.90	-37.853
215.27	-23.655
215.63	-18.631
216.00	-9.992
216.37	-9.538
216.74	-15.830
217.10	-11.488
217.47	-16.383
217.84	-7.717
218.20	-6.871
218.57	-6.443
218.94	-7.888
219.30	-16.372
219.67	-31.636
220.04	-30.504
220.40	-35.072
220.77	-38.521
221.13	-37.227
221.50	-24.348
221.87	-28.404
222.23	-28.636
222.60	-37.122
222.97	-36.709
223.33	-26.047
223.70	-13.788
224.07	-13.958
224.43	-13.106
224.80	-8.953
225.16	-9.421
225.53	-10.780
225.90	-10.704
226.26	-9.286
226.63	-6.618
226.99	-6.196
227.36	-5.925
227.73	-5.344
228.09	-5.902
228.46	-2.939
228.82	-2.601
229.19	-2.746
229.56	-2.476
229.92	-1.428
230.29	-2.018
230.65	-3.635
231.02	-3.940
231.38	-5.553
231.75	-6.985
232.12	-7.984
232.48	-11.230
232.85	-11.729
233.21	-11.274
233.58	-12.263
233.94	-10.265
234.31	-8.791
234.68	-6.512
235.04	-5.948
235.41	-5.549
235.77	-4.009
236.14	-2.469
236.50	-1.186
236.87	-1.217
237.23	-0.502
237.60	-1.103
237.96	-2.217
238.33	-2.440
238.69	-3.404
239.06	-3.078
239.42	-2.574
239.79	-3.104
240.15	-2.632
240.52	-2.287
240.88	-1.784
241.25	-1.829
241.61	-0.878
241.98	-0.880
242.34	-0.983
242.71	-0.404
243.07	-0.277
243.44	-0.273
243.80	0.134
244.17	0.412
244.53	0.252
244.90	0.211
245.26	0.184
245.63	0.094
245.99	0.104
246.36	0.208
246.72	0.265
247.09	-0.174
247.45	-0.028
247.81	0.055
248.18	-0.215
248.54	-0.346
248.91	-0.631
249.27	-0.696
249.64	-0.589
250.00	-0.605
250.36	-0.879
250.73	-1.151
251.09	-0.551
251.46	-0.890
251.82	-1.266
252.19	-1.360
252.55	-1.269
252.91	-1.026
253.28	-0.888
253.64	-1.490
254.01	-1.258
254.37	-1.045
254.73	-0.249
255.10	0.198
255.46	0.688
255.83	0.627
256.19	0.654
256.55	0.541
256.92	0.579
257.28	0.641
257.65	1.001
258.01	1.015
258.37	0.899
258.74	0.619
259.10	0.390
259.46	0.177
259.83	0.210
260.19	0.233
260.55	0.379
260.92	0.296
261.28	0.080
261.64	-0.283
262.01	-0.275
262.37	-0.116
262.73	-0.045
263.10	0.103
263.46	0.229
263.82	0.249
264.19	0.480
264.55	-0.056
264.91	0.033
265.28	0.112
265.64	0.283
266.00	0.195
266.37	0.216
266.73	0.132
267.09	-0.053
267.46	-0.266
267.82	-0.682
268.18	-0.968
268.54	-0.618
268.91	-0.743
269.27	-0.582
269.63	-0.383
270.00	-0.320
270.36	-0.536
270.72	-0.452
271.08	-0.283
271.45	-0.182
271.81	0.142
272.17	0.129
272.53	0.051
272.90	0.225
273.26	0.362
273.62	0.160
273.98	-0.131
274.35	-0.011
274.71	0.056
275.07	-0.037
275.43	-0.021
275.80	-0.024
276.16	0.018
276.52	-0.036
276.88	-0.302
277.25	-0.799
277.61	-0.736
277.97	-0.603
278.33	-0.530
278.69	-0.756
279.06	-0.752
279.42	-0.741
279.78	-0.586
280.14	-0.485
280.50	-0.308
280.87	-0.155
281.23	0.065
281.59	0.051
281.95	0.118
282.31	0.215
282.68	0.139
283.04	0.098
283.40	0.245
283.76	0.255
284.12	0.412
284.48	0.481
284.85	0.589
285.21	0.619
285.57	0.547
285.93	0.637
286.29	0.411
286.65	0.502
287.02	0.733
287.38	0.619
287.74	0.568
288.10	0.392
288.46	0.371
288.82	0.258
289.18	0.200
289.54	0.228
289.91	0.141
290.27	0.446
290.63	0.724
290.99	0.662
291.35	0.696
291.71	0.777
292.07	0.781
292.43	0.657
292.79	0.828
293.16	0.831
293.52	0.998
293.88	1.085
294.24	0.943
294.60	0.724
294.96	0.708
295.32	0.733
295.68	0.620
296.04	0.510
296.40	0.531
296.76	0.457
297.12	0.427
297.49	0.238
297.85	0.146
298.21	0.123
298.57	0.011
298.93	0.056
299.29	-0.076
299.65	-0.087
300.01	-0.021
300.37	-0.007
300.73	0.132
301.09	0.250
301.45	0.417
301.81	0.506
302.17	0.622
302.53	0.646
302.89	0.482
303.25	0.588
303.61	0.620
303.97	0.518
304.33	0.571
304.69	0.482
305.05	0.388
305.41	0.225
305.77	0.187
306.13	0.037
306.49	0.066
306.85	0.145
307.21	0.089
307.57	0.130
307.93	0.203
308.29	0.196
308.65	0.157
309.01	0.223
309.37	0.261
309.73	0.314
310.09	0.461
310.45	0.557
310.81	0.610
311.17	0.668
311.53	0.697
311.89	0.778
312.25	0.811
312.61	0.760
312.96	0.778
313.32	0.962
313.68	0.924
314.04	0.827
314.40	0.782
314.76	0.585
315.12	0.508
315.48	0.513
315.84	0.507
316.20	0.504
316.56	0.530
316.92	0.425
317.27	0.221
317.63	0.218
317.99	0.213
318.35	0.210
318.71	0.336
319.07	0.420
319.43	0.362
319.79	0.431
320.15	0.489
320.50	0.602
320.86	0.651
321.22	0.737
321.58	0.660
321.94	0.575
322.30	0.496
322.66	0.538
323.01	0.484
323.37	0.536
323.73	0.442
324.09	0.373
324.45	0.377
324.81	0.288
325.17	0.294
325.52	0.302
325.88	0.372
326.24	0.466
326.60	0.390
326.96	0.464
327.31	0.478
327.67	0.419
328.03	0.383
328.39	0.263
328.75	0.409
329.11	0.422
329.46	0.507
329.82	0.524
330.18	0.560
330.54	0.566
330.90	0.490
331.25	0.485
331.61	0.570
331.97	0.564
332.33	0.635
332.68	0.613
333.04	0.529
333.40	0.362
333.76	0.317
334.11	0.241
334.47	0.207
334.83	0.124
335.19	0.063
335.54	0.066
335.90	0.114
336.26	0.089
336.62	0.007
336.97	0.010
337.33	0.172
337.69	0.293
338.05	0.243
338.40	0.259
338.76	0.303
339.12	0.304
339.48	0.258
339.83	0.215
340.19	0.218
340.55	0.318
340.90	0.290
341.26	0.177
341.62	0.143
341.97	0.219
342.33	0.316
342.69	0.431
343.04	0.485
343.40	0.446
343.76	0.436
344.12	0.426
344.47	0.403
344.83	0.539
345.19	0.584
345.54	0.558
345.90	0.542
346.26	0.558
346.61	0.528
346.97	0.457
347.32	0.444
347.68	0.429
348.04	0.398
348.39	0.321
348.75	0.260
349.11	0.314
349.46	0.365
349.82	0.399
350.18	0.299
350.53	0.246
350.89	0.252
351.24	0.323
351.60	0.315
351.96	0.411
352.31	0.451
352.67	0.474
353.02	0.401
353.38	0.306
353.74	0.358
354.09	0.417
354.45	0.442
354.80	0.484
355.16	0.517
355.52	0.568
355.87	0.457
356.23	0.453
356.58	0.481
356.94	0.509
357.29	0.598
357.65	0.574
358.00	0.549
358.36	0.554
358.72	0.554
359.07	0.522
359.43	0.513
359.78	0.564
360.14	0.575
360.49	0.474
360.85	0.445
361.20	0.384
361.56	0.341
361.91	0.331
362.27	0.378
362.62	0.374
362.98	0.402
363.33	0.394
363.69	0.387
364.04	0.408
364.40	0.448
364.75	0.476
365.11	0.477
365.46	0.459
365.82	0.522
366.17	0.485
366.53	0.450
366.88	0.457
367.24	0.473
367.59	0.474
367.95	0.489
368.30	0.490
368.66	0.515
369.01	0.537
369.37	0.584
369.72	0.581
370.08	0.610
370.43	0.635
370.78	0.611
371.14	0.573
371.49	0.575
371.85	0.533
372.20	0.541
372.56	0.526
372.91	0.516
373.26	0.525
373.62	0.474
373.97	0.477
374.33	0.498
374.68	0.505
375.03	0.611
375.39	0.611
375.74	0.620
376.10	0.641
376.45	0.661
376.80	0.732
377.16	0.734
377.51	0.787
377.87	0.815
378.22	0.804
378.57	0.825
378.93	0.799
379.28	0.876
379.63	0.927
379.99	0.972
380.34	1.032
380.70	0.997
381.05	1.056
381.40	1.033
381.76	1.055
382.11	1.119
382.46	1.199
382.82	1.241
383.17	1.251
383.52	1.236
383.88	1.223
384.23	1.196
384.58	1.229
384.94	1.186
385.29	1.245
385.64	1.256
385.99	1.300
386.35	1.299
386.70	1.310
387.05	1.286
387.41	1.323
387.76	1.357
388.11	1.390
388.47	1.410
388.82	1.468
389.17	1.485
389.52	1.525
389.88	1.502
390.23	1.493
390.58	1.520
390.93	1.574
391.29	1.612
391.64	1.646
391.99	1.696
392.34	1.737
392.70	1.746
393.05	1.760
393.40	1.763
393.75	1.797
394.11	1.847
394.46	1.862
394.81	1.874
395.16	1.868
395.52	1.859
395.87	1.847
396.22	1.862
396.57	1.851
396.92	1.864
397.28	1.844
397.63	1.859
397.98	1.861
398.33	1.856
398.68	1.871
399.04	1.909
399.39	1.943
399.74	1.955
400.09	1.955
400.44	1.986
400.80	1.998
401.15	1.999
401.50	2.006
401.85	2.020
402.20	2.012
402.55	2.036
402.90	2.016
403.26	1.995
403.61	1.963
403.96	1.943
404.31	1.965
404.66	1.971
405.01	2.006
405.36	2.002
405.72	1.980
406.07	1.982
406.42	1.948
406.77	1.941
407.12	1.962
407.47	1.997
407.82	2.027
408.17	1.987
408.53	1.971
408.88	1.954
409.23	1.945
409.58	1.927
409.93	1.965
410.28	1.974
410.63	1.970
410.98	1.952
411.33	1.952
411.68	1.979
412.03	2.019
412.38	2.005
412.73	2.031
413.09	2.034
413.44	2.078
413.79	2.062
414.14	2.072
414.49	2.133
414.84	2.178
415.19	2.191
415.54	2.182
415.89	2.184
416.24	2.240
416.59	2.242
416.94	2.278
417.29	2.282
417.64	2.297
417.99	2.311
418.34	2.306
418.69	2.317
419.04	2.328
419.39	2.344
419.74	2.354
420.09	2.355
420.44	2.361
420.79	2.349
421.14	2.349
421.49	2.364
421.84	2.364
422.19	2.374
422.54	2.352
422.89	2.342
423.24	2.327
423.59	2.315
423.94	2.288
424.29	2.286
424.64	2.271
424.99	2.263
425.34	2.235
425.68	2.211
426.03	2.155
426.38	2.141
426.73	2.124
427.08	2.119
427.43	2.134
427.78	2.134
428.13	2.115
428.48	2.141
428.83	2.151
429.18	2.162
429.53	2.166
429.87	2.166
430.22	2.164
430.57	2.185
430.92	2.176
431.27	2.175
431.62	2.164
431.97	2.155
432.32	2.134
432.67	2.106
433.01	2.080
433.36	2.066
433.71	2.068
434.06	2.053
434.41	2.034
434.76	2.037
435.11	2.032
435.45	2.038
435.80	2.056
436.15	2.057
436.50	2.089
436.85	2.121
437.20	2.119
437.54	2.139
437.89	2.156
438.24	2.165
438.59	2.167
438.94	2.166
439.29	2.159
439.63	2.169
439.98	2.166
440.33	2.151
440.68	2.167
441.03	2.204
441.37	2.217
441.72	2.252
442.07	2.272
442.42	2.293
442.76	2.326
443.11	2.375
443.46	2.408
443.81	2.447
444.16	2.479
444.50	2.484
444.85	2.499
445.20	2.515
445.55	2.526
445.89	2.544
446.24	2.560
446.59	2.560
446.94	2.566
447.28	2.560
447.63	2.561
447.98	2.571
448.32	2.584
448.67	2.592
449.02	2.605
449.37	2.617
449.71	2.637
450.06	2.649
450.41	2.666
450.75	2.679
451.10	2.697
451.45	2.711
451.79	2.716
452.14	2.713
452.49	2.743
452.84	2.758
453.18	2.759
453.53	2.751
453.88	2.767
454.22	2.785
454.57	2.803
454.92	2.815
455.26	2.841
455.61	2.879
455.95	2.920
456.30	2.938
456.65	2.963
456.99	2.987
457.34	3.023
457.69	3.047
458.03	3.060
458.38	3.074
458.73	3.091
459.07	3.100
459.42	3.078
459.76	3.053
460.11	3.022
460.46	2.985
460.80	2.966
461.15	2.936
461.49	2.889
461.84	2.863
462.19	2.831
462.53	2.807
462.88	2.784
463.22	2.795
463.57	2.799
463.91	2.799
464.26	2.818
464.61	2.830
464.95	2.811
465.30	2.830
465.64	2.840
465.99	2.846
466.33	2.849
466.68	2.851
467.02	2.837
467.37	2.816
467.71	2.799
468.06	2.802
468.41	2.772
468.75	2.777
469.10	2.769
469.44	2.743
469.79	2.724
470.13	2.685
470.48	2.674
470.82	2.660
471.17	2.672
471.51	2.675
471.86	2.672
472.20	2.691
472.55	2.698
472.89	2.693
473.23	2.705
473.58	2.712
473.92	2.732
474.27	2.728
474.61	2.721
474.96	2.724
475.30	2.738
475.65	2.737
475.99	2.726
476.34	2.731
476.68	2.736
477.02	2.754
477.37	2.756
477.71	2.795
478.06	2.838
478.40	2.916
478.75	2.991
479.09	3.078
479.43	3.178
479.78	3.293
480.12	3.398
480.47	3.510
480.81	3.611
481.15	3.717
481.50	3.817
481.84	3.930
482.19	4.037
482.53	4.138
482.87	4.211
483.22	4.228
483.56	4.200
483.90	4.139
484.25	4.067
484.59	3.981
484.94	3.905
485.28	3.830
485.62	3.739
485.97	3.647
486.31	3.569
486.65	3.512
487.00	3.492
487.34	3.497
487.68	3.536
488.03	3.573
488.37	3.620
488.71	3.658
489.06	3.675
489.40	3.695
489.74	3.705
490.09	3.705
490.43	3.701
490.77	3.699
491.11	3.698
491.46	3.699
491.80	3.707
492.14	3.701
492.49	3.708
492.83	3.712
493.17	3.706
493.51	3.715
493.86	3.737
494.20	3.757
494.54	3.791
494.88	3.851
495.23	3.897
495.57	3.933
495.91	4.007
496.25	4.057
496.60	4.118
496.94	4.182
497.28	4.257
497.62	4.315
497.97	4.384
498.31	4.455
498.65	4.520
498.99	4.584
499.33	4.673
499.68	4.734
500.02	4.823
500.36	4.906
500.70	4.995
501.04	5.078
501.39	5.164
501.73	5.254
502.07	5.367
502.41	5.460
502.75	5.565
503.09	5.661
503.44	5.781
503.78	5.890
504.12	6.002
504.46	6.133
504.80	6.247
505.14	6.387
505.49	6.519
505.83	6.631
506.17	6.766
506.51	6.921
506.85	7.071
507.19	7.205
507.53	7.337
507.87	7.463
508.22	7.582
508.56	7.718
508.90	7.819
509.24	7.947
509.58	8.080
509.92	8.213
510.26	8.327
510.60	8.460
510.94	8.589
511.28	8.719
511.63	8.870
511.97	9.025
512.31	9.192
512.65	9.374
512.99	9.548
513.33	9.744
513.67	9.940
514.01	10.154
514.35	10.343
514.69	10.543
515.03	10.735
515.37	10.951
515.71	11.144
516.05	11.308
516.39	11.483
516.73	11.641
517.07	11.794
517.41	11.929
517.75	12.050
518.09	12.193
518.43	12.327
518.77	12.448
519.11	12.552
519.45	12.655
519.79	12.802
520.13	12.934
520.47	13.099
520.81	13.249
521.15	13.427
521.49	13.601
521.83	13.770
522.17	13.921
522.51	14.100
522.85	14.296
523.19	14.508
523.53	14.749
523.87	15.028
524.21	15.273
524.55	15.533
524.89	15.776
525.23	16.001
525.57	16.190
525.91	16.388
526.25	16.576
526.58	16.748
526.92	16.906
527.26	17.008
527.60	17.074
527.94	17.134
528.28	17.164
528.62	17.177
528.96	17.183
529.30	17.207
529.64	17.202
529.97	17.197
530.31	17.176
530.65	17.167
530.99	17.179
531.33	17.206
531.67	17.242
532.01	17.286
532.35	17.330
532.68	17.361
533.02	17.381
533.36	17.403
533.70	17.422
534.04	17.444
534.38	17.460
534.71	17.463
535.05	17.461
535.39	17.472
535.73	17.466
536.07	17.470
536.41	17.496
536.74	17.509
537.08	17.544
537.42	17.618
537.76	17.681
538.10	17.758
538.43	17.847
538.77	17.926
539.11	18.002
539.45	18.069
539.79	18.147
540.12	18.205
540.46	18.256
540.80	18.290
541.14	18.269
541.47	18.260
541.81	18.241
542.15	18.205
542.49	18.182
542.82	18.133
543.16	18.108
543.50	18.065
543.84	18.033
544.17	18.000
544.51	18.001
544.85	18.007
545.18	18.021
545.52	18.036
545.86	18.051
546.20	18.061
546.53	18.066
546.87	18.061
547.21	18.040
547.54	18.007
547.88	17.997
548.22	17.963
548.55	17.955
548.89	17.922
549.23	17.888
549.56	17.888
549.90	17.886
550.24	17.891
550.57	17.895
550.91	17.886
551.25	17.935
551.58	17.943
551.92	17.937
552.26	17.922
552.59	17.924
552.93	17.926
553.27	17.914
553.60	17.893
553.94	17.861
554.27	17.835
554.61	17.843
554.95	17.788
555.28	17.771
555.62	17.757
555.95	17.761
556.29	17.757
556.63	17.741
556.96	17.704
557.30	17.685
557.63	17.643
557.97	17.607
558.31	17.533
558.64	17.497
558.98	17.464
559.31	17.465
559.65	17.402
559.98	17.331
560.32	17.248
560.65	17.194
560.99	17.116
561.33	17.066
561.66	17.016
562.00	16.970
562.33	16.914
562.67	16.838
563.00	16.763
563.34	16.703
563.67	16.639
564.01	16.594
564.34	16.537
564.68	16.483
565.01	16.453
565.35	16.380
565.68	16.310
566.02	16.208
566.35	16.150
566.69	16.029
567.02	15.931
567.36	15.828
567.69	15.732
568.03	15.650
568.36	15.555
568.69	15.437
569.03	15.362
569.36	15.283
569.70	15.237
570.03	15.140
570.37	15.087
570.70	15.035
571.04	14.965
571.37	14.899
571.70	14.823
572.04	14.756
572.37	14.690
572.71	14.594
573.04	14.522
573.37	14.440
573.71	14.375
574.04	14.307
574.38	14.234
574.71	14.179
575.04	14.113
575.38	14.042
575.71	13.960
576.05	13.909
576.38	13.877
576.71	13.796
577.05	13.715
577.38	13.650
577.71	13.555
578.05	13.472
578.38	13.404
578.71	13.337
579.05	13.254
579.38	13.191
579.71	13.109
580.05	12.992
580.38	12.932
580.71	12.865
581.05	12.812
581.38	12.765
581.71	12.715
582.05	12.654
582.38	12.602
582.71	12.564
583.04	12.523
583.38	12.462
583.71	12.445
584.04	12.402
584.38	12.385
584.71	12.339
585.04	12.297
585.37	12.277
585.71	12.243
586.04	12.222
586.37	12.231
586.70	12.222
587.04	12.223
587.37	12.202
587.70	12.202
588.03	12.189
588.37	12.177
588.70	12.182
589.03	12.155
589.36	12.166
589.69	12.129
590.03	12.069
590.36	12.013
590.69	11.950
591.02	11.893
591.35	11.821
591.69	11.741
592.02	11.682
592.35	11.644
592.68	11.611
593.01	11.552
593.35	11.515
593.68	11.513
594.01	11.506
594.34	11.471
594.67	11.466
595.00	11.454
595.34	11.437
595.67	11.397
596.00	11.378
596.33	11.341
596.66	11.310
596.99	11.258
597.32	11.184
597.65	11.120
597.99	11.085
598.32	11.016
598.65	10.948
598.98	10.930
599.31	10.903
599.64	10.848
599.97	10.814
600.30	10.802
600.63	10.803
600.96	10.797
601.30	10.810
601.63	10.816
601.96	10.829
602.29	10.827
602.62	10.801
602.95	10.783
603.28	10.758
603.61	10.704
603.94	10.642
604.27	10.601
604.60	10.538
604.93	10.489
605.26	10.427
605.59	10.358
605.92	10.310
606.25	10.240
606.58	10.196
606.91	10.141
607.24	10.138
607.57	10.118
607.90	10.070
608.23	10.022
608.56	9.952
608.89	9.874
609.22	9.828
609.55	9.780
609.88	9.729
610.21	9.667
610.54	9.581
610.87	9.490
611.20	9.417
611.53	9.338
611.86	9.263
612.19	9.189
612.52	9.146
612.85	9.100
613.18	9.044
613.51	8.957
613.84	8.842
614.17	8.809
614.49	8.776
614.82	8.703
615.15	8.673
615.48	8.651
615.81	8.586
616.14	8.558
616.47	8.483
616.80	8.377
617.13	8.312
617.46	8.303
617.78	8.240
618.11	8.156
618.44	8.110
618.77	8.059
619.10	8.014
619.43	8.004
619.76	7.962
620.09	7.956
620.41	7.975
620.74	8.017
621.07	8.009
621.40	7.998
621.73	8.013
622.06	8.023
622.38	8.023
622.71	8.023
623.04	8.041
623.37	8.072
623.70	8.062
624.02	8.080
624.35	8.098
624.68	8.111
625.01	8.139
625.34	8.152
625.66	8.134
625.99	8.144
626.32	8.143
626.65	8.139
626.98	8.118
627.30	8.144
627.63	8.121
627.96	8.061
628.29	8.024
628.61	7.979
628.94	7.932
629.27	7.903
629.60	7.817
629.92	7.806
630.25	7.750
630.58	7.709
630.91	7.647
631.23	7.589
631.56	7.562
631.89	7.487
632.21	7.482
632.54	7.423
632.87	7.378
633.19	7.362
633.52	7.299
633.85	7.264
634.18	7.177
634.50	7.097
634.83	7.064
635.16	6.983
635.48	6.918
635.81	6.779
636.14	6.696
636.46	6.626
636.79	6.529
637.11	6.404
637.44	6.249
637.77	6.134
638.09	6.015
638.42	5.892
638.75	5.804
639.07	5.735
639.40	5.691
639.73	5.579
640.05	5.471
640.38	5.409
640.70	5.323
641.03	5.275
641.36	5.226
641.68	5.197
642.01	5.121
642.33	5.026
642.66	4.951
642.98	4.885
643.31	4.844
643.64	4.791
643.96	4.704
644.29	4.651
644.61	4.603
644.94	4.537
645.26	4.487
645.59	4.460
645.91	4.435
646.24	4.424
646.56	4.356
646.89	4.320
647.22	4.244
647.54	4.236
647.87	4.217
648.19	4.179
648.52	4.165
648.84	4.136
649.17	4.076
649.49	4.040
649.82	4.021
650.14	3.996
650.47	3.976
650.79	4.040
651.11	3.981
651.44	3.965
651.76	3.959
652.09	3.994
652.41	3.970
652.74	3.995
653.06	4.013
653.39	4.026
653.71	4.023
654.04	4.024
654.36	3.987
654.68	4.022
655.01	4.007
655.33	4.013
655.66	3.951
655.98	3.938
656.30	3.887
656.63	3.838
656.95	3.774
657.28	3.728
657.60	3.663
657.92	3.596
658.25	3.525
658.57	3.472
658.90	3.399
659.22	3.332
659.54	3.253
659.87	3.178
660.19	3.093
660.51	2.997
660.84	2.945
661.16	2.910
661.48	2.871
661.81	2.831
662.13	2.760
662.45	2.708
662.78	2.730
663.10	2.747
663.42	2.766
663.75	2.805
664.07	2.812
664.39	2.811
664.72	2.832
665.04	2.832
665.36	2.881
665.69	2.940
666.01	2.965
666.33	3.014
666.65	2.998
666.98	3.057
667.30	3.121
667.62	3.172
667.94	3.207
668.27	3.227
668.59	3.320
668.91	3.380
669.23	3.422
669.56	3.493
669.88	3.552
670.20	3.635
670.52	3.720
670.85	3.792
671.17	3.949
671.49	4.052
671.81	4.212
672.13	4.326
672.46	4.464
672.78	4.586
673.10	4.790
673.42	4.905
673.74	5.057
674.07	5.172
674.39	5.349
674.71	5.432
675.03	5.642
675.35	5.779
675.67	5.906
676.00	6.014
676.32	6.195
676.64	6.291
676.96	6.429
677.28	6.601
677.60	6.823
677.92	7.015
678.25	7.174
678.57	7.294
678.89	7.421
679.21	7.548
679.53	7.724
679.85	7.896
680.17	8.112
680.49	8.300
680.81	8.484
681.13	8.615
681.46	8.769
681.78	9.031
682.10	9.306
682.42	9.502
682.74	9.819
683.06	10.078
683.38	10.318
683.70	10.555
684.02	10.803
684.34	11.096
684.66	11.329
684.98	11.559
685.30	11.754
685.62	11.928
685.94	12.233
686.26	12.409
686.58	12.603
686.90	12.828
687.22	13.015
687.54	13.246
687.86	13.365
688.18	13.569
688.50	13.804
688.82	14.041
689.14	14.268
689.46	14.486
689.78	14.721
690.10	14.963
690.42	15.172
690.74	15.460
691.06	15.713
691.38	15.950
691.70	16.294
692.02	16.495
692.34	16.734
692.66	16.983
692.98	17.235
693.30	17.500
693.62	17.742
693.94	18.062
694.26	18.274
694.57	18.450
694.89	18.741
695.21	18.865
695.53	19.150
695.85	19.317
696.17	19.528
696.49	19.794
696.81	19.953
697.13	20.192
697.44	20.377
697.76	20.632
698.08	20.975
698.40	21.246
698.72	21.609
699.04	21.891
699.36	22.281
699.67	22.672
699.99	23.049
700.31	23.499
700.63	23.915
700.95	24.360
701.27	24.716
701.58	24.965
701.90	25.299
702.22	25.617
702.54	25.919
702.86	26.189
703.17	26.433
703.49	26.626
703.81	26.973
704.13	27.207
704.45	27.450
704.76	27.785
705.08	28.199
705.40	28.522
705.72	28.831
706.03	29.131
706.35	29.393
706.67	29.748
706.99	30.091
707.30	30.364
707.62	30.664
707.94	30.918
708.26	31.180
708.57	31.326
708.89	31.574
709.21	31.826
709.53	32.118
709.84	32.485
710.16	32.715
710.48	32.990
710.79	33.285
711.11	33.513
711.43	33.772
711.74	34.052
712.06	34.446
712.38	34.794
712.69	35.018
713.01	35.287
713.33	35.525
713.64	35.939
713.96	36.199
714.28	36.506
714.59	36.989
714.91	37.463
715.23	37.797
715.54	38.066
715.86	38.376
716.17	38.820
716.49	39.286
716.81	39.635
717.12	39.888
717.44	40.271
717.76	40.639
718.07	40.805
718.39	41.055
718.70	41.350
719.02	41.655
719.33	42.058
719.65	42.224
719.97	42.447
720.28	42.771
720.60	43.150
720.91	43.363
721.23	43.639
721.54	44.024
721.86	44.206
722.17	44.469
722.49	44.856
722.81	44.912
723.12	45.259
723.44	45.389
723.75	45.635
724.07	45.808
724.38	46.088
724.70	46.261
725.01	46.415
725.33	46.728
725.64	47.054
725.96	47.234
726.27	47.507
726.59	47.706
726.90	47.998
727.22	48.121
727.53	48.277
727.84	48.520
728.16	48.680
728.47	48.866
728.79	48.964
729.10	49.006
729.42	49.136
729.73	49.233
730.05	49.345
730.36	49.399
730.67	49.574
730.99	49.721
731.30	49.852
731.62	50.058
731.93	50.151
732.24	50.438
732.56	50.722
732.87	50.933
733.19	51.074
733.50	51.319
733.81	51.477
734.13	51.687
734.44	52.044
734.76	52.095
735.07	52.232
735.38	52.386
735.70	52.519
736.01	52.596
736.32	52.756
736.64	53.057
736.95	53.173
737.26	53.316
737.58	53.432
737.89	53.381
738.20	53.600
738.52	53.731
738.83	53.953
739.14	54.042
739.45	54.167
739.77	54.267
740.08	54.509
740.39	54.689
740.71	55.009
741.02	55.218
741.33	55.292
741.64	55.421
741.96	55.622
742.27	55.725
742.58	55.798
742.90	55.842
743.21	55.698
743.52	55.656
743.83	55.554
744.14	55.477
744.46	55.691
744.77	55.812
745.08	55.731
745.39	55.547
745.71	55.542
746.02	55.442
746.33	55.454
746.64	55.486
746.95	55.428
747.27	55.585
747.58	55.717
747.89	55.516
748.20	55.470
748.51	55.715
748.82	55.652
749.14	55.765
749.45	56.027
749.76	56.194
750.07	56.375
750.38	56.383
750.69	56.319
751.01	56.337
751.32	56.315
751.63	56.481
751.94	56.200
752.25	56.462
752.56	56.425
752.87	56.233
753.18	56.097
753.49	56.152
753.81	56.251
754.12	56.225
754.43	56.269
754.74	56.366
755.05	56.295
755.36	56.526
755.67	56.686
755.98	56.748
756.29	56.849
756.60	56.991
756.91	57.040
757.22	56.967
757.53	57.233
757.84	57.122
758.15	57.191
758.46	57.205
758.77	57.125
759.09	57.011
759.40	57.045
759.71	57.043
760.02	56.917
760.33	56.873
760.64	56.756
760.95	56.666
761.26	56.605
761.57	56.468
761.88	56.486
762.18	56.483
762.49	56.411
762.80	56.393
763.11	56.322
763.42	56.285
763.73	56.229
764.04	56.299
764.35	56.284
764.66	56.262
764.97	56.183
765.28	55.908
765.59	55.704
765.90	55.472
766.21	54.990
766.52	54.820
766.83	54.680
767.14	54.578
767.44	54.334
767.75	54.009
768.06	53.884
768.37	53.599
768.68	53.787
768.99	53.786
769.30	53.869
769.61	53.980
769.91	53.942
770.22	53.573
770.53	53.174
770.84	53.165
771.15	53.354
771.46	53.073
771.77	53.482
772.07	53.210
772.38	53.131
772.69	53.099
773.00	53.245
773.31	53.210
773.61	53.294
773.92	53.500
774.23	53.631
774.54	53.335
774.85	53.293
775.15	53.222
775.46	53.212
775.77	53.273
776.08	53.028
776.39	52.803
776.69	52.704
777.00	52.942
777.31	52.917
777.62	52.738
777.92	52.651
778.23	52.950
778.54	52.756
778.85	52.722
779.15	52.556
779.46	52.735
779.77	52.883
780.07	52.953
780.38	53.115
780.69	53.177
781.00	53.003
781.30	53.101
781.61	52.607
781.92	52.697
782.22	52.770
782.53	52.717
782.84	52.716
783.14	52.793
783.45	52.957
783.76	52.758
784.06	52.661
784.37	52.796
784.68	52.658
784.98	53.170
785.29	53.317
785.60	53.571
785.90	53.834
786.21	53.903
786.51	53.770
786.82	53.827
787.13	54.148
787.43	54.403
787.74	54.576
788.04	54.860
788.35	54.822
788.66	54.858
788.96	54.805
789.27	54.661
789.57	54.503
789.88	54.604
790.19	54.140
790.49	53.870
790.80	53.481
791.10	53.562
791.41	53.411
791.71	53.371
792.02	53.211
792.32	53.066
792.63	53.187
792.93	53.177
793.24	52.988
793.54	53.303
793.85	53.249
794.15	53.412
794.46	53.146
794.76	53.243
795.07	53.085
795.37	53.127
795.68	53.359
795.98	53.688
796.29	54.147
796.59	54.195
796.90	54.139
797.20	54.208
797.51	54.157
797.81	54.089
798.12	54.188
798.42	54.652
798.72	54.846
799.03	54.649
799.33	54.215
799.64	53.807
799.94	54.234
800.25	54.308
800.55	54.286
800.85	54.435
801.16	54.583
801.46	54.024
801.77	53.546
802.07	53.473
802.37	53.501
802.68	53.636
802.98	53.510
803.28	53.425
803.59	53.847
803.89	53.889
804.20	53.802
804.50	53.826
804.80	54.326
805.11	54.495
805.41	54.146
805.71	54.352
806.02	54.404
806.32	54.710
806.62	54.734
806.93	54.575
807.23	54.859
807.53	55.179
807.83	55.339
808.14	55.663
808.44	55.664
808.74	55.602
809.05	55.309
809.35	54.906
809.65	55.356
809.95	55.591
810.26	55.498
810.56	55.314
810.86	55.023
811.16	55.558
811.47	55.524
811.77	55.905
812.07	56.380
812.37	56.467
812.68	56.954
812.98	56.763
813.28	56.680
813.58	56.963
813.88	57.051
814.19	57.646
814.49	57.480
814.79	57.601
815.09	57.798
815.39	57.494
815.70	57.710
816.00	57.802
816.30	57.717
816.60	57.268
816.90	57.213
817.20	57.295
817.50	57.173
817.81	56.621
818.11	56.584
818.41	56.600
818.71	56.556
819.01	56.816
819.31	57.090
819.61	57.409
819.92	57.695
820.22	58.056
820.52	58.301
820.82	58.543
821.12	59.013
821.42	59.388
821.72	59.670
822.02	60.113
822.32	60.469
822.62	60.790
822.92	61.012
823.22	61.263
823.52	61.435
823.83	61.624
824.13	61.692
824.43	61.538
824.73	61.411
825.03	61.329
825.33	61.250
825.63	60.890
825.93	60.592
826.23	60.393
826.53	60.294
826.83	60.012
827.13	59.961
827.43	60.090
827.73	60.546
828.03	60.701
828.33	61.043
828.63	61.110
828.93	61.240
829.23	61.042
829.53	60.794
829.83	60.590
830.13	60.367
830.42	59.870
830.72	59.414
831.02	58.814
831.32	58.656
831.62	58.282
831.92	57.876
832.22	57.894
832.52	58.145
832.82	58.372
833.12	58.418
833.42	58.613
833.72	58.710
834.01	58.843
834.31	59.120
834.61	59.346
834.91	59.849
835.21	60.420
835.51	60.695
835.81	60.714
836.11	60.823
836.40	60.935
836.70	61.063
837.00	60.998
837.30	60.896
837.60	60.939
837.90	60.628
838.19	59.593
838.49	59.026
838.79	58.757
839.09	58.613
839.39	58.271
839.68	58.597
839.98	57.882
840.28	57.650
840.58	57.617
840.88	57.594
841.17	56.827
841.47	57.440
841.77	57.763
842.07	57.762
842.36	57.602
842.66	58.123
842.96	57.209
843.26	57.636
843.55	57.667
843.85	58.079
844.15	56.702
844.45	56.123
844.74	55.911
845.04	55.704
845.34	55.925
845.63	56.220
845.93	56.750
846.23	57.342
846.53	57.831
846.82	58.306
847.12	58.774
847.42	58.407
847.71	59.706
848.01	58.310
848.31	57.951
848.60	57.042
848.90	55.830
849.19	54.497
849.49	53.449
849.79	53.526
850.08	54.305
850.38	51.844
850.68	52.634
850.97	53.292
851.27	55.091
851.56	55.402
851.86	55.109
852.16	56.194
852.45	56.456
852.75	56.222
853.04	55.329
853.34	54.849
853.64	56.974
853.93	56.577
854.23	55.117
854.52	54.640
854.82	55.731
855.11	56.417
855.41	57.617
855.70	57.639
856.00	59.387
856.30	59.534
856.59	59.198
856.89	59.442
857.18	59.774
857.48	60.084
857.77	57.919
858.07	56.602
858.36	54.561
858.66	54.983
858.95	55.032
859.25	55.226
859.54	55.532
859.84	53.740
860.13	51.555
860.42	51.318
860.72	52.650
861.01	54.351
861.31	54.909
861.60	57.664
861.90	57.802
862.19	58.941
862.49	56.666
862.78	56.044
863.07	57.705
863.37	59.672
863.66	59.241
863.96	60.374
864.25	60.598
864.54	60.902
864.84	59.927
865.13	59.130
865.43	57.821
865.72	64.202
866.01	61.254
866.31	57.013
866.60	60.596
866.89	53.249
>>>>>End Spectral Data<<<<<
