OOIBase32 Version 2.0.0.6 Data File
++++++++++++++++++++++++++++++++++++
Date: 01-23-2012, 23:20:23
User: Valued Ocean Optics Customer
Spectrometer Serial Number: USB2E2917
Spectrometer Channel: Master
Integration Time (msec): 5
Spectra Averaged: 10
Boxcar Smoothing: 5
Correct for Electrical Dark: Enabled
Time Normalized: Disabled
Dual-beam Reference: Disabled
Reference Channel: Master
Temperature: Not acquired
Spectrometer Type: S2000
ADC Type: USB2000
Number of Pixels in File: 2048
Graph Title: 
>>>>>Begin Spectral Data<<<<<
180.30	0.000
180.67	0.000
181.03	99.411
181.40	467.739
181.77	3064.297
182.14	75.816
182.51	-424.024
182.88	-113.335
183.25	43.660
183.62	155.019
183.99	345.742
184.36	124.737
184.73	49.793
185.10	-17.206
185.46	-634.515
185.83	106.084
186.20	771.102
186.57	125.319
186.94	100.324
187.31	67.045
187.68	27.550
188.05	29.551
188.42	44.028
188.78	56.703
189.15	181.823
189.52	13.227
189.89	7.353
190.26	34.978
190.63	40.838
191.00	60.345
191.37	62.928
191.73	70.205
192.10	60.910
192.47	63.907
192.84	65.169
193.21	76.312
193.58	74.806
193.94	87.230
194.31	79.204
194.68	70.662
195.05	55.283
195.42	54.364
195.79	38.259
196.15	42.004
196.52	35.462
196.89	35.708
197.26	9.368
197.63	25.378
198.00	33.485
198.36	30.467
198.73	45.413
199.10	42.549
199.47	31.775
199.84	47.459
200.20	28.565
200.57	32.854
200.94	28.566
201.31	37.630
201.68	32.598
202.04	12.531
202.41	11.032
202.78	-11.358
203.15	-22.356
203.51	-12.439
203.88	-14.902
204.25	-13.530
204.62	-37.277
204.98	-43.553
205.35	-54.101
205.72	-77.404
206.09	-52.677
206.46	-95.769
206.82	-68.687
207.19	-57.593
207.56	-106.128
207.92	-83.378
208.29	-82.804
208.66	-54.614
209.03	-62.570
209.39	-44.426
209.76	-56.308
210.13	-111.787
210.50	-70.249
210.86	-48.218
211.23	-52.199
211.60	-28.437
211.96	-37.430
212.33	-35.284
212.70	-29.682
213.07	-33.767
213.43	-49.924
213.80	-21.986
214.17	-7.170
214.53	-5.510
214.90	-16.991
215.27	-18.997
215.63	-28.522
216.00	-31.927
216.37	-30.411
216.74	-42.466
217.10	-26.017
217.47	-29.535
217.84	-21.451
218.20	-13.017
218.57	-7.395
218.94	-2.390
219.30	-6.812
219.67	-2.542
220.04	8.091
220.40	7.469
220.77	6.363
221.13	7.306
221.50	14.871
221.87	15.486
222.23	3.549
222.60	0.374
222.97	0.741
223.33	4.244
223.70	2.049
224.07	-0.952
224.43	-0.402
224.80	4.213
225.16	2.269
225.53	-0.997
225.90	-2.931
226.26	0.458
226.63	1.958
226.99	3.439
227.36	5.081
227.73	6.696
228.09	5.945
228.46	7.418
228.82	8.230
229.19	8.518
229.56	10.387
229.92	11.528
230.29	12.585
230.65	12.014
231.02	10.187
231.38	7.814
231.75	8.057
232.12	7.998
232.48	6.424
232.85	5.562
233.21	5.007
233.58	2.414
233.94	3.053
234.31	2.275
234.68	2.997
235.04	3.595
235.41	5.055
235.77	4.962
236.14	3.883
236.50	4.791
236.87	3.260
237.23	4.479
237.60	4.695
237.96	4.450
238.33	3.844
238.69	3.229
239.06	3.472
239.42	3.812
239.79	2.652
240.15	3.288
240.52	3.179
240.88	3.887
241.25	3.481
241.61	4.024
241.98	3.777
242.34	3.897
242.71	4.301
243.07	4.673
243.44	4.490
243.80	5.101
244.17	5.299
244.53	5.328
244.90	5.210
245.26	5.372
245.63	5.531
245.99	5.750
246.36	5.824
246.72	5.993
247.09	5.583
247.45	5.899
247.81	6.139
248.18	5.787
248.54	5.973
248.91	5.742
249.27	6.008
249.64	5.902
250.00	5.631
250.36	5.425
250.73	5.121
251.09	5.919
251.46	5.664
251.82	5.692
252.19	6.254
252.55	5.934
252.91	6.483
253.28	5.929
253.64	5.399
254.01	5.436
254.37	5.522
254.73	5.972
255.10	5.855
255.46	6.012
255.83	5.889
256.19	5.787
256.55	5.703
256.92	5.847
257.28	5.916
257.65	6.138
258.01	6.276
258.37	6.444
258.74	6.101
259.10	5.879
259.46	5.706
259.83	5.585
260.19	5.525
260.55	5.663
260.92	5.376
261.28	5.198
261.64	5.026
262.01	4.886
262.37	4.695
262.73	4.821
263.10	4.920
263.46	5.173
263.82	5.301
264.19	5.508
264.55	5.263
264.91	5.403
265.28	5.622
265.64	5.500
266.00	5.560
266.37	5.476
266.73	5.383
267.09	5.419
267.46	5.200
267.82	4.831
268.18	4.659
268.54	4.689
268.91	4.580
269.27	4.522
269.63	4.844
270.00	4.852
270.36	4.786
270.72	4.895
271.08	4.743
271.45	4.905
271.81	5.013
272.17	5.006
272.53	5.215
272.90	5.352
273.26	5.522
273.62	5.343
273.98	5.122
274.35	5.131
274.71	4.940
275.07	5.007
275.43	4.704
275.80	4.708
276.16	4.651
276.52	4.427
276.88	4.489
277.25	4.269
277.61	3.922
277.97	3.879
278.33	4.030
278.69	4.092
279.06	4.152
279.42	4.352
279.78	4.364
280.14	4.424
280.50	4.610
280.87	4.530
281.23	4.475
281.59	4.916
281.95	5.138
282.31	5.176
282.68	5.159
283.04	5.023
283.40	5.010
283.76	5.207
284.12	5.362
284.48	5.478
284.85	5.639
285.21	5.803
285.57	5.655
285.93	5.616
286.29	5.409
286.65	5.513
287.02	5.876
287.38	5.901
287.74	5.709
288.10	5.602
288.46	5.450
288.82	5.165
289.18	5.225
289.54	5.165
289.91	5.092
290.27	5.274
290.63	5.304
290.99	5.219
291.35	5.246
291.71	5.420
292.07	5.415
292.43	5.360
292.79	5.461
293.16	5.331
293.52	5.409
293.88	5.576
294.24	5.607
294.60	5.597
294.96	5.398
295.32	5.461
295.68	5.535
296.04	5.587
296.40	5.815
296.76	5.974
297.12	5.953
297.49	5.982
297.85	5.972
298.21	5.970
298.57	5.997
298.93	6.079
299.29	5.971
299.65	5.807
300.01	5.726
300.37	5.535
300.73	5.554
301.09	5.693
301.45	5.816
301.81	5.866
302.17	5.816
302.53	5.697
302.89	5.697
303.25	5.844
303.61	5.935
303.97	5.973
304.33	5.971
304.69	5.916
305.05	5.845
305.41	5.631
305.77	5.546
306.13	5.529
306.49	5.615
306.85	5.732
307.21	5.650
307.57	5.739
307.93	5.758
308.29	5.939
308.65	5.925
309.01	5.944
309.37	6.084
309.73	6.133
310.09	6.330
310.45	6.371
310.81	6.413
311.17	6.493
311.53	6.445
311.89	6.529
312.25	6.383
312.61	6.242
312.96	6.259
313.32	6.288
313.68	6.128
314.04	5.965
314.40	5.981
314.76	5.945
315.12	5.813
315.48	5.779
315.84	5.794
316.20	5.810
316.56	5.909
316.92	5.960
317.27	5.887
317.63	6.055
317.99	6.071
318.35	5.996
318.71	5.988
319.07	6.081
319.43	6.048
319.79	5.991
320.15	5.991
320.50	5.991
320.86	5.818
321.22	5.769
321.58	5.748
321.94	5.697
322.30	5.711
322.66	5.675
323.01	5.549
323.37	5.594
323.73	5.593
324.09	5.566
324.45	5.646
324.81	5.735
325.17	5.812
325.52	5.794
325.88	5.760
326.24	5.810
326.60	5.807
326.96	5.880
327.31	5.784
327.67	5.736
328.03	5.781
328.39	5.750
328.75	5.759
329.11	5.862
329.46	5.945
329.82	6.114
330.18	6.106
330.54	6.132
330.90	6.150
331.25	6.226
331.61	6.283
331.97	6.309
332.33	6.270
332.68	6.225
333.04	6.162
333.40	6.069
333.76	5.909
334.11	5.908
334.47	5.874
334.83	5.919
335.19	5.924
335.54	5.889
335.90	5.792
336.26	5.841
336.62	5.859
336.97	5.733
337.33	5.647
337.69	5.680
338.05	5.614
338.40	5.605
338.76	5.563
339.12	5.543
339.48	5.468
339.83	5.490
340.19	5.433
340.55	5.495
340.90	5.464
341.26	5.520
341.62	5.523
341.97	5.600
342.33	5.650
342.69	5.644
343.04	5.659
343.40	5.636
343.76	5.675
344.12	5.742
344.47	5.740
344.83	5.855
345.19	5.875
345.54	5.853
345.90	5.821
346.26	5.846
346.61	5.897
346.97	5.890
347.32	5.998
347.68	5.983
348.04	5.970
348.39	5.935
348.75	5.963
349.11	5.938
349.46	6.002
349.82	6.036
350.18	5.962
350.53	5.982
350.89	5.972
351.24	5.963
351.60	5.941
351.96	5.905
352.31	5.788
352.67	5.743
353.02	5.732
353.38	5.693
353.74	5.649
354.09	5.615
354.45	5.589
354.80	5.611
355.16	5.596
355.52	5.593
355.87	5.562
356.23	5.669
356.58	5.742
356.94	5.784
357.29	5.799
357.65	5.776
358.00	5.783
358.36	5.706
358.72	5.662
359.07	5.671
359.43	5.729
359.78	5.788
360.14	5.799
360.49	5.715
360.85	5.722
361.20	5.768
361.56	5.790
361.91	5.904
362.27	5.993
362.62	6.073
362.98	6.125
363.33	6.134
363.69	6.148
364.04	6.204
364.40	6.232
364.75	6.178
365.11	6.130
365.46	6.104
365.82	6.065
366.17	6.075
366.53	6.087
366.88	6.064
367.24	6.065
367.59	6.059
367.95	6.082
368.30	6.139
368.66	6.244
369.01	6.275
369.37	6.354
369.72	6.385
370.08	6.433
370.43	6.414
370.78	6.420
371.14	6.396
371.49	6.444
371.85	6.462
372.20	6.501
372.56	6.544
372.91	6.564
373.26	6.586
373.62	6.603
373.97	6.572
374.33	6.583
374.68	6.578
375.03	6.627
375.39	6.584
375.74	6.536
376.10	6.551
376.45	6.563
376.80	6.622
377.16	6.608
377.51	6.639
377.87	6.688
378.22	6.680
378.57	6.701
378.93	6.762
379.28	6.870
379.63	6.927
379.99	6.954
380.34	6.924
380.70	6.904
381.05	6.978
381.40	6.946
381.76	6.981
382.11	7.053
382.46	7.112
382.82	7.100
383.17	7.077
383.52	7.073
383.88	7.094
384.23	7.124
384.58	7.187
384.94	7.130
385.29	7.168
385.64	7.157
385.99	7.173
386.35	7.193
386.70	7.237
387.05	7.239
387.41	7.231
387.76	7.215
388.11	7.241
388.47	7.220
388.82	7.294
389.17	7.292
389.52	7.343
389.88	7.382
390.23	7.402
390.58	7.403
390.93	7.422
391.29	7.494
391.64	7.535
391.99	7.575
392.34	7.619
392.70	7.650
393.05	7.664
393.40	7.654
393.75	7.616
394.11	7.634
394.46	7.610
394.81	7.643
395.16	7.587
395.52	7.579
395.87	7.547
396.22	7.566
396.57	7.556
396.92	7.542
397.28	7.527
397.63	7.514
397.98	7.505
398.33	7.522
398.68	7.528
399.04	7.553
399.39	7.567
399.74	7.577
400.09	7.529
400.44	7.558
400.80	7.573
401.15	7.569
401.50	7.581
401.85	7.593
402.20	7.591
402.55	7.594
402.90	7.598
403.26	7.575
403.61	7.587
403.96	7.627
404.31	7.605
404.66	7.639
405.01	7.649
405.36	7.691
405.72	7.701
406.07	7.700
406.42	7.650
406.77	7.657
407.12	7.664
407.47	7.659
407.82	7.628
408.17	7.590
408.53	7.583
408.88	7.571
409.23	7.539
409.58	7.495
409.93	7.549
410.28	7.591
410.63	7.585
410.98	7.580
411.33	7.555
411.68	7.601
412.03	7.645
412.38	7.625
412.73	7.655
413.09	7.686
413.44	7.699
413.79	7.672
414.14	7.691
414.49	7.712
414.84	7.726
415.19	7.756
415.54	7.754
415.89	7.745
416.24	7.779
416.59	7.791
416.94	7.792
417.29	7.817
417.64	7.834
417.99	7.851
418.34	7.853
418.69	7.874
419.04	7.879
419.39	7.881
419.74	7.895
420.09	7.915
420.44	7.913
420.79	7.909
421.14	7.901
421.49	7.905
421.84	7.887
422.19	7.895
422.54	7.887
422.89	7.884
423.24	7.890
423.59	7.892
423.94	7.866
424.29	7.874
424.64	7.903
424.99	7.918
425.34	7.904
425.68	7.907
426.03	7.905
426.38	7.900
426.73	7.914
427.08	7.902
427.43	7.900
427.78	7.901
428.13	7.905
428.48	7.876
428.83	7.868
429.18	7.865
429.53	7.878
429.87	7.861
430.22	7.850
430.57	7.849
430.92	7.830
431.27	7.832
431.62	7.814
431.97	7.800
432.32	7.798
432.67	7.797
433.01	7.794
433.36	7.775
433.71	7.773
434.06	7.777
434.41	7.762
434.76	7.797
435.11	7.792
435.45	7.814
435.80	7.818
436.15	7.827
436.50	7.846
436.85	7.861
437.20	7.866
437.54	7.879
437.89	7.895
438.24	7.904
438.59	7.902
438.94	7.893
439.29	7.880
439.63	7.897
439.98	7.927
440.33	7.917
440.68	7.928
441.03	7.947
441.37	7.954
441.72	7.966
442.07	7.994
442.42	7.992
442.76	8.033
443.11	8.057
443.46	8.066
443.81	8.077
444.16	8.105
444.50	8.122
444.85	8.139
445.20	8.164
445.55	8.192
445.89	8.204
446.24	8.234
446.59	8.223
446.94	8.250
447.28	8.267
447.63	8.275
447.98	8.275
448.32	8.290
448.67	8.285
449.02	8.304
449.37	8.294
449.71	8.312
450.06	8.323
450.41	8.348
450.75	8.347
451.10	8.344
451.45	8.322
451.79	8.333
452.14	8.324
452.49	8.352
452.84	8.363
453.18	8.372
453.53	8.362
453.88	8.364
454.22	8.371
454.57	8.384
454.92	8.412
455.26	8.443
455.61	8.470
455.95	8.516
456.30	8.518
456.65	8.527
456.99	8.557
457.34	8.584
457.69	8.606
458.03	8.630
458.38	8.654
458.73	8.658
459.07	8.666
459.42	8.654
459.76	8.639
460.11	8.644
460.46	8.630
460.80	8.610
461.15	8.594
461.49	8.566
461.84	8.555
462.19	8.546
462.53	8.548
462.88	8.568
463.22	8.581
463.57	8.586
463.91	8.585
464.26	8.615
464.61	8.621
464.95	8.629
465.30	8.659
465.64	8.671
465.99	8.674
466.33	8.677
466.68	8.680
467.02	8.679
467.37	8.667
467.71	8.664
468.06	8.650
468.41	8.642
468.75	8.632
469.10	8.616
469.44	8.594
469.79	8.576
470.13	8.554
470.48	8.531
470.82	8.514
471.17	8.520
471.51	8.518
471.86	8.506
472.20	8.503
472.55	8.497
472.89	8.496
473.23	8.490
473.58	8.477
473.92	8.485
474.27	8.490
474.61	8.490
474.96	8.499
475.30	8.514
475.65	8.499
475.99	8.500
476.34	8.495
476.68	8.501
477.02	8.515
477.37	8.527
477.71	8.552
478.06	8.570
478.40	8.634
478.75	8.699
479.09	8.791
479.43	8.933
479.78	9.113
480.12	9.305
480.47	9.497
480.81	9.680
481.15	9.886
481.50	10.081
481.84	10.307
482.19	10.540
482.53	10.739
482.87	10.877
483.22	10.901
483.56	10.808
483.90	10.647
484.25	10.435
484.59	10.220
484.94	10.005
485.28	9.820
485.62	9.615
485.97	9.385
486.31	9.194
486.65	9.047
487.00	8.999
487.34	9.028
487.68	9.104
488.03	9.216
488.37	9.328
488.71	9.406
489.06	9.435
489.40	9.446
489.74	9.454
490.09	9.458
490.43	9.473
490.77	9.475
491.11	9.470
491.46	9.474
491.80	9.458
492.14	9.427
492.49	9.443
492.83	9.440
493.17	9.444
493.51	9.461
493.86	9.463
494.20	9.474
494.54	9.502
494.88	9.530
495.23	9.571
495.57	9.643
495.91	9.724
496.25	9.768
496.60	9.832
496.94	9.886
497.28	9.941
497.62	10.007
497.97	10.067
498.31	10.126
498.65	10.211
498.99	10.274
499.33	10.348
499.68	10.425
500.02	10.511
500.36	10.583
500.70	10.659
501.04	10.726
501.39	10.797
501.73	10.881
502.07	10.986
502.41	11.079
502.75	11.189
503.09	11.272
503.44	11.362
503.78	11.420
504.12	11.516
504.46	11.618
504.80	11.732
505.14	11.854
505.49	11.960
505.83	12.039
506.17	12.129
506.51	12.229
506.85	12.340
507.19	12.453
507.53	12.576
507.87	12.687
508.22	12.782
508.56	12.867
508.90	12.945
509.24	13.045
509.58	13.164
509.92	13.267
510.26	13.375
510.60	13.477
510.94	13.581
511.28	13.682
511.63	13.797
511.97	13.920
512.31	14.057
512.65	14.193
512.99	14.320
513.33	14.487
513.67	14.666
514.01	14.847
514.35	15.003
514.69	15.175
515.03	15.337
515.37	15.469
515.71	15.620
516.05	15.741
516.39	15.849
516.73	15.974
517.07	16.054
517.41	16.124
517.75	16.181
518.09	16.280
518.43	16.349
518.77	16.413
519.11	16.508
519.45	16.573
519.79	16.677
520.13	16.772
520.47	16.892
520.81	17.003
521.15	17.135
521.49	17.263
521.83	17.385
522.17	17.506
522.51	17.635
522.85	17.762
523.19	17.910
523.53	18.094
523.87	18.321
524.21	18.550
524.55	18.781
524.89	18.997
525.23	19.197
525.57	19.370
525.91	19.545
526.25	19.718
526.58	19.882
526.92	20.022
527.26	20.110
527.60	20.158
527.94	20.183
528.28	20.177
528.62	20.163
528.96	20.135
529.30	20.100
529.64	20.064
529.97	20.025
530.31	19.958
530.65	19.914
530.99	19.894
531.33	19.914
531.67	19.929
532.01	19.962
532.35	19.972
532.68	19.992
533.02	20.014
533.36	20.008
533.70	20.003
534.04	20.007
534.38	20.001
534.71	20.005
535.05	19.994
535.39	19.984
535.73	19.969
536.07	19.991
536.41	20.014
536.74	20.036
537.08	20.070
537.42	20.143
537.76	20.208
538.10	20.288
538.43	20.355
538.77	20.432
539.11	20.494
539.45	20.555
539.79	20.610
540.12	20.665
540.46	20.703
540.80	20.742
541.14	20.725
541.47	20.709
541.81	20.683
542.15	20.671
542.49	20.652
542.82	20.608
543.16	20.575
543.50	20.549
543.84	20.510
544.17	20.490
544.51	20.465
544.85	20.458
545.18	20.484
545.52	20.510
545.86	20.504
546.20	20.489
546.53	20.508
546.87	20.528
547.21	20.499
547.54	20.464
547.88	20.474
548.22	20.465
548.55	20.461
548.89	20.459
549.23	20.440
549.56	20.438
549.90	20.461
550.24	20.458
550.57	20.463
550.91	20.459
551.25	20.484
551.58	20.485
551.92	20.502
552.26	20.513
552.59	20.493
552.93	20.499
553.27	20.511
553.60	20.475
553.94	20.445
554.27	20.444
554.61	20.469
554.95	20.455
555.28	20.436
555.62	20.416
555.95	20.426
556.29	20.418
556.63	20.402
556.96	20.394
557.30	20.372
557.63	20.363
557.97	20.316
558.31	20.278
558.64	20.267
558.98	20.219
559.31	20.224
559.65	20.209
559.98	20.192
560.32	20.167
560.65	20.104
560.99	20.072
561.33	20.044
561.66	20.012
562.00	19.971
562.33	19.936
562.67	19.906
563.00	19.848
563.34	19.784
563.67	19.726
564.01	19.682
564.34	19.637
564.68	19.611
565.01	19.574
565.35	19.543
565.68	19.528
566.02	19.469
566.35	19.408
566.69	19.343
567.02	19.311
567.36	19.237
567.69	19.179
568.03	19.130
568.36	19.040
568.69	18.960
569.03	18.879
569.36	18.800
569.70	18.750
570.03	18.690
570.37	18.625
570.70	18.544
571.04	18.524
571.37	18.452
571.70	18.409
572.04	18.392
572.37	18.363
572.71	18.297
573.04	18.273
573.37	18.237
573.71	18.219
574.04	18.183
574.38	18.128
574.71	18.076
575.04	18.054
575.38	17.992
575.71	17.911
576.05	17.854
576.38	17.851
576.71	17.786
577.05	17.708
577.38	17.654
577.71	17.620
578.05	17.590
578.38	17.526
578.71	17.444
579.05	17.424
579.38	17.410
579.71	17.373
580.05	17.319
580.38	17.273
580.71	17.245
581.05	17.198
581.38	17.150
581.71	17.117
582.05	17.084
582.38	17.095
582.71	17.055
583.04	17.015
583.38	16.957
583.71	16.892
584.04	16.849
584.38	16.842
584.71	16.816
585.04	16.786
585.37	16.769
585.71	16.761
586.04	16.707
586.37	16.673
586.70	16.675
587.04	16.673
587.37	16.681
587.70	16.675
588.03	16.644
588.37	16.634
588.70	16.605
589.03	16.590
589.36	16.571
589.69	16.548
590.03	16.496
590.36	16.428
590.69	16.366
591.02	16.336
591.35	16.293
591.69	16.257
592.02	16.207
592.35	16.198
592.68	16.154
593.01	16.121
593.35	16.126
593.68	16.130
594.01	16.118
594.34	16.104
594.67	16.095
595.00	16.078
595.34	16.041
595.67	16.009
596.00	15.971
596.33	15.943
596.66	15.899
596.99	15.839
597.32	15.800
597.65	15.778
597.99	15.752
598.32	15.689
598.65	15.634
598.98	15.597
599.31	15.571
599.64	15.571
599.97	15.551
600.30	15.542
600.63	15.518
600.96	15.507
601.30	15.491
601.63	15.495
601.96	15.496
602.29	15.470
602.62	15.472
602.95	15.462
603.28	15.419
603.61	15.376
603.94	15.323
604.27	15.301
604.60	15.252
604.93	15.229
605.26	15.185
605.59	15.147
605.92	15.133
606.25	15.084
606.58	15.056
606.91	15.005
607.24	14.980
607.57	14.990
607.90	14.979
608.23	14.932
608.56	14.867
608.89	14.822
609.22	14.796
609.55	14.751
609.88	14.693
610.21	14.638
610.54	14.603
610.87	14.526
611.20	14.440
611.53	14.363
611.86	14.348
612.19	14.291
612.52	14.229
612.85	14.159
613.18	14.086
613.51	14.030
613.84	13.978
614.17	13.945
614.49	13.963
614.82	13.883
615.15	13.835
615.48	13.763
615.81	13.715
616.14	13.674
616.47	13.622
616.80	13.606
617.13	13.602
617.46	13.570
617.78	13.545
618.11	13.472
618.44	13.469
618.77	13.445
619.10	13.411
619.43	13.415
619.76	13.386
620.09	13.359
620.41	13.344
620.74	13.325
621.07	13.317
621.40	13.280
621.73	13.277
622.06	13.311
622.38	13.295
622.71	13.324
623.04	13.338
623.37	13.372
623.70	13.403
624.02	13.386
624.35	13.403
624.68	13.372
625.01	13.395
625.34	13.413
625.66	13.406
625.99	13.433
626.32	13.436
626.65	13.404
626.98	13.406
627.30	13.380
627.63	13.399
627.96	13.359
628.29	13.367
628.61	13.321
628.94	13.304
629.27	13.266
629.60	13.215
629.92	13.179
630.25	13.160
630.58	13.121
630.91	13.112
631.23	13.059
631.56	13.032
631.89	12.966
632.21	12.947
632.54	12.869
632.87	12.803
633.19	12.751
633.52	12.690
633.85	12.628
634.18	12.584
634.50	12.511
634.83	12.490
635.16	12.427
635.48	12.354
635.81	12.279
636.14	12.211
636.46	12.154
636.79	12.096
637.11	12.003
637.44	11.897
637.77	11.801
638.09	11.728
638.42	11.576
638.75	11.462
639.07	11.404
639.40	11.306
639.73	11.243
640.05	11.144
640.38	11.065
640.70	10.986
641.03	10.969
641.36	10.919
641.68	10.819
642.01	10.779
642.33	10.733
642.66	10.730
642.98	10.680
643.31	10.580
643.64	10.564
643.96	10.482
644.29	10.444
644.61	10.394
644.94	10.316
645.26	10.281
645.59	10.252
645.91	10.239
646.24	10.182
646.56	10.164
646.89	10.201
647.22	10.163
647.54	10.143
647.87	10.143
648.19	10.061
648.52	10.050
648.84	10.044
649.17	10.021
649.49	9.955
649.82	9.888
650.14	9.866
650.47	9.794
650.79	9.742
651.11	9.727
651.44	9.702
651.76	9.713
652.09	9.697
652.41	9.683
652.74	9.628
653.06	9.631
653.39	9.696
653.71	9.671
654.04	9.680
654.36	9.709
654.68	9.739
655.01	9.741
655.33	9.737
655.66	9.672
655.98	9.627
656.30	9.611
656.63	9.619
656.95	9.557
657.28	9.524
657.60	9.459
657.92	9.386
658.25	9.307
658.57	9.266
658.90	9.216
659.22	9.189
659.54	9.116
659.87	9.083
660.19	8.987
660.51	8.953
660.84	8.909
661.16	8.853
661.48	8.814
661.81	8.768
662.13	8.689
662.45	8.681
662.78	8.656
663.10	8.692
663.42	8.687
663.75	8.694
664.07	8.630
664.39	8.598
664.72	8.644
665.04	8.677
665.36	8.726
665.69	8.769
666.01	8.785
666.33	8.805
666.65	8.799
666.98	8.798
667.30	8.864
667.62	8.889
667.94	8.960
668.27	8.987
668.59	9.074
668.91	9.124
669.23	9.184
669.56	9.222
669.88	9.362
670.20	9.436
670.52	9.568
670.85	9.653
671.17	9.756
671.49	9.818
671.81	9.933
672.13	10.025
672.46	10.109
672.78	10.228
673.10	10.383
673.42	10.480
673.74	10.628
674.07	10.747
674.39	10.855
674.71	10.981
675.03	11.211
675.35	11.390
675.67	11.461
676.00	11.618
676.32	11.700
676.64	11.770
676.96	11.887
677.28	12.048
677.60	12.206
677.92	12.378
678.25	12.559
678.57	12.649
678.89	12.776
679.21	12.961
679.53	13.126
679.85	13.295
680.17	13.542
680.49	13.706
680.81	13.924
681.13	14.064
681.46	14.221
681.78	14.441
682.10	14.714
682.42	14.907
682.74	15.156
683.06	15.322
683.38	15.609
683.70	15.880
684.02	16.152
684.34	16.392
684.66	16.637
684.98	16.958
685.30	17.193
685.62	17.358
685.94	17.628
686.26	17.798
686.58	18.059
686.90	18.229
687.22	18.354
687.54	18.587
687.86	18.745
688.18	18.956
688.50	19.133
688.82	19.267
689.14	19.510
689.46	19.735
689.78	19.973
690.10	20.210
690.42	20.457
690.74	20.694
691.06	20.892
691.38	21.142
691.70	21.374
692.02	21.598
692.34	21.911
692.66	22.127
692.98	22.329
693.30	22.606
693.62	22.856
693.94	23.058
694.26	23.221
694.57	23.408
694.89	23.544
695.21	23.734
695.53	23.884
695.85	23.962
696.17	24.150
696.49	24.285
696.81	24.412
697.13	24.535
697.44	24.674
697.76	24.865
698.08	25.089
698.40	25.366
698.72	25.637
699.04	25.908
699.36	26.224
699.67	26.435
699.99	26.787
700.31	27.150
700.63	27.487
700.95	27.927
701.27	28.252
701.58	28.576
701.90	28.765
702.22	29.044
702.54	29.244
702.86	29.504
703.17	29.780
703.49	30.038
703.81	30.229
704.13	30.415
704.45	30.574
704.76	30.839
705.08	31.022
705.40	31.289
705.72	31.447
706.03	31.637
706.35	31.845
706.67	32.005
706.99	32.091
707.30	32.289
707.62	32.525
707.94	32.745
708.26	32.877
708.57	33.008
708.89	33.181
709.21	33.314
709.53	33.529
709.84	33.700
710.16	33.892
710.48	34.157
710.79	34.363
711.11	34.550
711.43	34.664
711.74	34.878
712.06	35.091
712.38	35.272
712.69	35.424
713.01	35.683
713.33	35.838
713.64	36.069
713.96	36.238
714.28	36.443
714.59	36.634
714.91	36.915
715.23	37.189
715.54	37.367
715.86	37.629
716.17	37.924
716.49	38.150
716.81	38.579
717.12	38.812
717.44	39.140
717.76	39.447
718.07	39.744
718.39	39.939
718.70	40.071
719.02	40.209
719.33	40.429
719.65	40.661
719.97	40.697
720.28	40.749
720.60	41.031
720.91	41.096
721.23	41.165
721.54	41.235
721.86	41.436
722.17	41.657
722.49	41.927
722.81	41.900
723.12	42.111
723.44	42.397
723.75	42.631
724.07	42.653
724.38	42.773
724.70	42.937
725.01	43.164
725.33	43.248
725.64	43.377
725.96	43.451
726.27	43.567
726.59	43.626
726.90	43.792
727.22	43.702
727.53	43.849
727.84	43.949
728.16	43.887
728.47	43.924
728.79	43.997
729.10	44.005
729.42	44.109
729.73	44.243
730.05	44.295
730.36	44.205
730.67	44.377
730.99	44.404
731.30	44.401
731.62	44.552
731.93	44.583
732.24	44.639
732.56	44.760
732.87	44.891
733.19	45.078
733.50	45.120
733.81	45.211
734.13	45.316
734.44	45.467
734.76	45.607
735.07	45.666
735.38	45.787
735.70	46.015
736.01	46.079
736.32	46.183
736.64	46.148
736.95	46.216
737.26	46.295
737.58	46.175
737.89	46.199
738.20	46.262
738.52	46.446
738.83	46.480
739.14	46.418
739.45	46.548
739.77	46.449
740.08	46.565
740.39	46.603
740.71	46.722
741.02	46.868
741.33	46.733
741.64	46.686
741.96	46.732
742.27	46.788
742.58	46.869
742.90	46.745
743.21	46.893
743.52	46.971
743.83	47.127
744.14	47.145
744.46	47.307
744.77	47.655
745.08	47.791
745.39	47.753
745.71	47.881
746.02	47.745
746.33	47.815
746.64	47.693
746.95	47.647
747.27	47.703
747.58	47.668
747.89	47.640
748.20	47.450
748.51	47.549
748.82	47.410
749.14	47.263
749.45	47.363
749.76	47.316
750.07	47.538
750.38	47.491
750.69	47.472
751.01	47.365
751.32	47.419
751.63	47.593
751.94	47.518
752.25	47.718
752.56	47.710
752.87	47.490
753.18	47.508
753.49	47.417
753.81	47.544
754.12	47.433
754.43	47.508
754.74	47.348
755.05	47.301
755.36	47.368
755.67	47.331
755.98	47.477
756.29	47.853
756.60	48.130
756.91	48.241
757.22	48.280
757.53	48.618
757.84	48.906
758.15	49.243
758.46	49.397
758.77	49.438
759.09	49.454
759.40	49.525
759.71	49.546
760.02	49.419
760.33	49.398
760.64	49.305
760.95	49.233
761.26	49.092
761.57	48.952
761.88	48.856
762.18	48.885
762.49	48.828
762.80	48.903
763.11	48.887
763.42	48.824
763.73	48.754
764.04	48.694
764.35	48.539
764.66	48.359
764.97	48.228
765.28	47.958
765.59	47.678
765.90	47.516
766.21	47.097
766.52	46.804
766.83	46.679
767.14	46.418
767.44	46.263
767.75	45.872
768.06	45.819
768.37	45.397
768.68	45.521
768.99	45.320
769.30	45.150
769.61	44.962
769.91	44.789
770.22	44.475
770.53	44.292
770.84	44.128
771.15	44.276
771.46	44.145
771.77	44.456
772.07	44.284
772.38	44.225
772.69	44.375
773.00	44.460
773.31	44.361
773.61	44.439
773.92	44.528
774.23	44.559
774.54	44.440
774.85	44.349
775.15	44.047
775.46	43.982
775.77	44.143
776.08	43.955
776.39	43.853
776.69	43.918
777.00	43.986
777.31	44.067
777.62	44.116
777.92	44.068
778.23	44.222
778.54	44.416
778.85	44.445
779.15	44.276
779.46	44.446
779.77	44.448
780.07	44.501
780.38	44.729
780.69	44.522
781.00	44.472
781.30	44.505
781.61	44.383
781.92	44.416
782.22	44.641
782.53	44.591
782.84	44.567
783.14	44.800
783.45	44.956
783.76	44.712
784.06	45.006
784.37	45.246
784.68	45.375
784.98	45.368
785.29	45.537
785.60	45.297
785.90	45.612
786.21	45.572
786.51	45.498
786.82	45.539
787.13	45.792
787.43	45.790
787.74	45.781
788.04	46.124
788.35	46.531
788.66	46.513
788.96	46.924
789.27	46.871
789.57	46.892
789.88	46.868
790.19	46.697
790.49	46.399
790.80	46.210
791.10	46.140
791.41	45.680
791.71	45.516
792.02	45.817
792.32	45.295
792.63	45.529
792.93	45.568
793.24	45.524
793.54	45.757
793.85	45.544
794.15	45.732
794.46	45.706
794.76	46.010
795.07	45.917
795.37	45.545
795.68	45.821
795.98	45.605
796.29	46.028
796.59	46.083
796.90	45.882
797.20	46.167
797.51	46.049
797.81	45.785
798.12	45.874
798.42	45.782
798.72	45.814
799.03	45.851
799.33	45.793
799.64	45.626
799.94	46.197
800.25	46.216
800.55	46.391
800.85	46.928
801.16	47.487
801.46	47.050
801.77	47.346
802.07	47.460
802.37	47.671
802.68	47.536
802.98	47.099
803.28	46.474
803.59	46.683
803.89	46.424
804.20	46.287
804.50	45.848
804.80	45.908
805.11	45.916
805.41	45.879
805.71	46.049
806.02	46.212
806.32	46.463
806.62	46.537
806.93	46.373
807.23	46.900
807.53	46.772
807.83	47.119
808.14	47.709
808.44	47.597
808.74	47.505
809.05	47.170
809.35	47.343
809.65	47.458
809.95	47.645
810.26	47.409
810.56	47.180
810.86	47.668
811.16	47.727
811.47	47.873
811.77	48.070
812.07	48.423
812.37	48.746
812.68	49.374
812.98	49.621
813.28	50.121
813.58	50.724
813.88	50.381
814.19	50.166
814.49	50.363
814.79	49.910
815.09	49.811
815.39	49.804
815.70	49.942
816.00	49.331
816.30	49.390
816.60	49.012
816.90	49.015
817.20	49.457
817.50	49.650
817.81	49.355
818.11	49.307
818.41	49.515
818.71	49.416
819.01	49.477
819.31	49.632
819.61	49.843
819.92	50.068
820.22	50.404
820.52	50.675
820.82	50.816
821.12	51.255
821.42	51.586
821.72	51.771
822.02	52.190
822.32	52.541
822.62	52.931
822.92	53.198
823.22	53.523
823.52	53.667
823.83	53.755
824.13	53.968
824.43	53.746
824.73	53.819
825.03	53.794
825.33	53.764
825.63	53.670
825.93	53.548
826.23	53.319
826.53	53.156
826.83	53.093
827.13	53.267
827.43	53.163
827.73	53.671
828.03	53.670
828.33	54.120
828.63	54.035
828.93	53.992
829.23	53.763
829.53	53.748
829.83	53.271
830.13	52.966
830.42	52.322
830.72	52.245
831.02	51.826
831.32	51.488
831.62	51.256
831.92	51.002
832.22	50.795
832.52	50.845
832.82	51.102
833.12	51.295
833.42	51.303
833.72	51.712
834.01	51.858
834.31	52.097
834.61	52.681
834.91	53.012
835.21	53.210
835.51	53.203
835.81	53.058
836.11	52.844
836.40	53.064
836.70	53.079
837.00	52.870
837.30	52.770
837.60	52.346
837.90	51.922
838.19	51.369
838.49	51.928
838.79	52.783
839.09	53.460
839.39	53.754
839.68	54.059
839.98	53.939
840.28	53.635
840.58	53.447
840.88	53.843
841.17	53.090
841.47	53.224
841.77	53.168
842.07	52.515
842.36	52.267
842.66	51.715
842.96	50.483
843.26	49.937
843.55	49.018
843.85	48.890
844.15	48.374
844.45	48.358
844.74	49.284
845.04	48.494
845.34	47.982
845.63	47.884
845.93	48.125
846.23	48.958
846.53	49.978
846.82	50.518
847.12	50.811
847.42	50.300
847.71	50.465
848.01	48.250
848.31	47.529
848.60	46.918
848.90	45.508
849.19	44.923
849.49	44.013
849.79	43.817
850.08	44.046
850.38	42.672
850.68	42.136
850.97	43.899
851.27	45.180
851.56	44.864
851.86	44.265
852.16	45.067
852.45	44.370
852.75	44.606
853.04	45.036
853.34	45.038
853.64	46.764
853.93	46.860
854.23	46.172
854.52	46.108
854.82	48.166
855.11	48.613
855.41	49.266
855.70	50.571
856.00	50.329
856.30	50.902
856.59	51.183
856.89	50.304
857.18	51.003
857.48	49.230
857.77	47.789
858.07	46.569
858.36	46.529
858.66	46.634
858.95	46.332
859.25	46.357
859.54	44.740
859.84	44.390
860.13	43.932
860.42	43.564
860.72	43.302
861.01	44.072
861.31	45.138
861.60	46.899
861.90	48.031
862.19	48.169
862.49	48.175
862.78	47.483
863.07	47.273
863.37	48.448
863.66	46.736
863.96	49.315
864.25	50.597
864.54	49.976
864.84	48.722
865.13	47.293
865.43	47.417
865.72	61.877
866.01	50.827
866.31	44.315
866.60	47.449
866.89	49.047
>>>>>End Spectral Data<<<<<
