OOIBase32 Version 2.0.0.6 Data File
++++++++++++++++++++++++++++++++++++
Date: 01-24-2012, 17:43:51
User: Valued Ocean Optics Customer
Spectrometer Serial Number: USB2E2917
Spectrometer Channel: Master
Integration Time (msec): 7
Spectra Averaged: 10
Boxcar Smoothing: 5
Correct for Electrical Dark: Enabled
Time Normalized: Disabled
Dual-beam Reference: Disabled
Reference Channel: Master
Temperature: Not acquired
Spectrometer Type: S2000
ADC Type: USB2000
Number of Pixels in File: 2048
Graph Title: 
>>>>>Begin Spectral Data<<<<<
180.30	0.000
180.67	0.000
181.03	-80.134
181.40	30114.286
181.77	-133.829
182.14	-98.403
182.51	-244.601
182.88	178.231
183.25	73.385
183.62	-500.600
183.99	47.304
184.36	-55.925
184.73	-29.598
185.10	-9.408
185.46	11.692
185.83	197.921
186.20	-64.868
186.57	56.616
186.94	-66.123
187.31	47.274
187.68	-51.159
188.05	341.339
188.42	156.361
188.78	55.587
189.15	7.213
189.52	17.556
189.89	8.706
190.26	0.013
190.63	1.321
191.00	0.776
191.37	-12.491
191.73	-17.750
192.10	-27.432
192.47	5.202
192.84	31.554
193.21	41.110
193.58	28.587
193.94	30.828
194.31	30.633
194.68	24.282
195.05	22.740
195.42	28.033
195.79	32.365
196.15	23.818
196.52	9.241
196.89	-14.317
197.26	2.275
197.63	8.004
198.00	-1.155
198.36	-20.058
198.73	-12.491
199.10	-9.030
199.47	-8.200
199.84	2.827
200.20	1.411
200.57	-20.565
200.94	-0.655
201.31	2.380
201.68	2.621
202.04	10.038
202.41	21.216
202.78	20.685
203.15	16.076
203.51	11.847
203.88	14.345
204.25	15.281
204.62	44.517
204.98	41.546
205.35	39.838
205.72	22.316
206.09	33.858
206.46	29.751
206.82	10.554
207.19	24.845
207.56	32.585
207.92	35.798
208.29	33.661
208.66	-3.849
209.03	18.240
209.39	16.477
209.76	37.007
210.13	38.796
210.50	42.923
210.86	46.085
211.23	41.658
211.60	40.880
211.96	49.800
212.33	54.842
212.70	51.895
213.07	34.591
213.43	28.831
213.80	23.135
214.17	28.657
214.53	21.405
214.90	13.645
215.27	19.394
215.63	16.036
216.00	-10.628
216.37	-22.645
216.74	-10.628
217.10	6.169
217.47	14.610
217.84	0.488
218.20	-19.861
218.57	-2.731
218.94	2.438
219.30	-7.565
219.67	-3.315
220.04	6.272
220.40	7.276
220.77	6.740
221.13	0.006
221.50	-3.538
221.87	8.919
222.23	2.950
222.60	0.005
222.97	4.902
223.33	3.063
223.70	2.091
224.07	0.654
224.43	5.354
224.80	3.437
225.16	8.828
225.53	11.122
225.90	6.269
226.26	5.898
226.63	1.862
226.99	3.034
227.36	2.445
227.73	0.479
228.09	-0.762
228.46	-2.301
228.82	-1.519
229.19	-4.181
229.56	-7.834
229.92	-8.336
230.29	-6.545
230.65	-3.511
231.02	-6.190
231.38	-4.162
231.75	-4.012
232.12	-4.799
232.48	-5.060
232.85	-6.719
233.21	-5.035
233.58	-3.549
233.94	-1.931
234.31	-5.007
234.68	-5.531
235.04	-3.507
235.41	-2.932
235.77	-1.639
236.14	-0.064
236.50	1.965
236.87	1.993
237.23	0.742
237.60	-1.489
237.96	-2.916
238.33	-0.742
238.69	-0.962
239.06	-0.795
239.42	-0.926
239.79	-1.448
240.15	-1.420
240.52	-2.511
240.88	-2.472
241.25	-2.566
241.61	-0.615
241.98	-0.166
242.34	-0.204
242.71	0.206
243.07	-0.180
243.44	-0.043
243.80	0.078
244.17	0.278
244.53	0.411
244.90	0.573
245.26	1.311
245.63	0.859
245.99	0.816
246.36	0.395
246.72	0.214
247.09	0.684
247.45	0.492
247.81	0.753
248.18	0.687
248.54	0.618
248.91	0.320
249.27	-0.432
249.64	-0.190
250.00	-0.672
250.36	-0.266
250.73	-0.169
251.09	-1.029
251.46	-1.062
251.82	-0.942
252.19	-1.294
252.55	-1.368
252.91	-1.166
253.28	-0.630
253.64	-0.434
254.01	-0.101
254.37	-0.248
254.73	0.000
255.10	0.692
255.46	0.847
255.83	0.381
256.19	0.270
256.55	0.683
256.92	0.615
257.28	0.667
257.65	0.649
258.01	0.871
258.37	0.961
258.74	0.813
259.10	0.675
259.46	0.663
259.83	0.995
260.19	1.351
260.55	1.394
260.92	1.467
261.28	1.496
261.64	1.529
262.01	1.671
262.37	2.054
262.73	2.132
263.10	1.576
263.46	1.448
263.82	0.922
264.19	0.874
264.55	1.154
264.91	1.457
265.28	1.615
265.64	1.693
266.00	1.177
266.37	0.856
266.73	0.977
267.09	1.303
267.46	1.500
267.82	1.930
268.18	1.845
268.54	1.169
268.91	0.820
269.27	0.414
269.63	0.507
270.00	0.982
270.36	1.196
270.72	0.996
271.08	1.036
271.45	0.796
271.81	0.404
272.17	0.119
272.53	0.496
272.90	0.774
273.26	0.566
273.62	0.538
273.98	0.460
274.35	0.096
274.71	0.265
275.07	0.147
275.43	0.139
275.80	0.278
276.16	0.318
276.52	0.164
276.88	-0.172
277.25	0.161
277.61	-0.184
277.97	-0.533
278.33	-0.410
278.69	-0.454
279.06	-0.647
279.42	-0.600
279.78	-0.771
280.14	-0.644
280.50	-0.663
280.87	-0.343
281.23	-0.365
281.59	-0.297
281.95	-0.091
282.31	-0.128
282.68	-0.177
283.04	0.188
283.40	0.156
283.76	0.222
284.12	0.265
284.48	0.175
284.85	0.056
285.21	-0.031
285.57	0.046
285.93	0.266
286.29	0.282
286.65	0.351
287.02	0.150
287.38	0.115
287.74	0.142
288.10	0.246
288.46	0.393
288.82	0.381
289.18	0.477
289.54	0.444
289.91	0.264
290.27	0.172
290.63	0.017
290.99	0.362
291.35	0.533
291.71	0.806
292.07	0.758
292.43	0.502
292.79	0.600
293.16	0.570
293.52	0.388
293.88	0.341
294.24	0.355
294.60	0.552
294.96	0.145
295.32	0.110
295.68	-0.077
296.04	-0.106
296.40	-0.031
296.76	-0.018
297.12	-0.165
297.49	-0.135
297.85	-0.215
298.21	-0.046
298.57	-0.146
298.93	0.067
299.29	0.004
299.65	0.029
300.01	0.133
300.37	0.287
300.73	0.173
301.09	0.187
301.45	0.366
301.81	0.369
302.17	0.110
302.53	0.134
302.89	0.080
303.25	0.085
303.61	0.164
303.97	0.066
304.33	-0.127
304.69	-0.028
305.05	0.013
305.41	0.137
305.77	0.184
306.13	0.352
306.49	0.203
306.85	0.151
307.21	0.256
307.57	0.119
307.93	0.142
308.29	0.231
308.65	0.091
309.01	0.079
309.37	-0.053
309.73	-0.146
310.09	-0.364
310.45	-0.380
310.81	-0.435
311.17	-0.563
311.53	-0.653
311.89	-0.893
312.25	-1.035
312.61	-1.257
312.96	-1.370
313.32	-1.555
313.68	-1.681
314.04	-1.591
314.40	-1.747
314.76	-1.720
315.12	-1.928
315.48	-2.006
315.84	-1.950
316.20	-1.946
316.56	-1.917
316.92	-1.899
317.27	-2.085
317.63	-2.058
317.99	-2.149
318.35	-1.962
318.71	-2.057
319.07	-1.856
319.43	-1.855
319.79	-1.873
320.15	-1.983
320.50	-1.956
320.86	-2.117
321.22	-1.939
321.58	-1.988
321.94	-1.941
322.30	-1.964
322.66	-1.870
323.01	-2.034
323.37	-2.035
323.73	-2.107
324.09	-2.103
324.45	-2.308
324.81	-2.239
325.17	-2.409
325.52	-2.535
325.88	-2.731
326.24	-2.962
326.60	-3.273
326.96	-3.250
327.31	-3.328
327.67	-3.236
328.03	-3.202
328.39	-3.092
328.75	-3.166
329.11	-3.192
329.46	-3.168
329.82	-2.965
330.18	-2.895
330.54	-2.849
330.90	-2.857
331.25	-2.740
331.61	-2.701
331.97	-2.741
332.33	-2.641
332.68	-2.543
333.04	-2.452
333.40	-2.299
333.76	-2.358
334.11	-2.295
334.47	-2.149
334.83	-2.183
335.19	-2.244
335.54	-2.301
335.90	-2.299
336.26	-2.380
336.62	-2.447
336.97	-2.639
337.33	-2.769
337.69	-2.844
338.05	-2.797
338.40	-2.847
338.76	-2.868
339.12	-2.764
339.48	-2.676
339.83	-2.588
340.19	-2.399
340.55	-2.318
340.90	-2.160
341.26	-1.980
341.62	-1.876
341.97	-1.876
342.33	-1.752
342.69	-1.586
343.04	-1.614
343.40	-1.664
343.76	-1.607
344.12	-1.697
344.47	-1.710
344.83	-1.571
345.19	-1.710
345.54	-1.737
345.90	-1.880
346.26	-1.903
346.61	-1.992
346.97	-2.105
347.32	-2.114
347.68	-2.259
348.04	-2.377
348.39	-2.375
348.75	-2.482
349.11	-2.446
349.46	-2.461
349.82	-2.372
350.18	-2.298
350.53	-2.300
350.89	-2.307
351.24	-2.305
351.60	-2.349
351.96	-2.205
352.31	-2.154
352.67	-2.064
353.02	-2.032
353.38	-1.926
353.74	-1.842
354.09	-1.844
354.45	-1.747
354.80	-1.618
355.16	-1.549
355.52	-1.227
355.87	-1.149
356.23	-1.100
356.58	-1.063
356.94	-1.061
357.29	-0.996
357.65	-0.968
358.00	-1.009
358.36	-1.056
358.72	-1.049
359.07	-1.086
359.43	-1.202
359.78	-1.205
360.14	-1.263
360.49	-1.350
360.85	-1.291
361.20	-1.425
361.56	-1.539
361.91	-1.613
362.27	-1.630
362.62	-1.657
362.98	-1.747
363.33	-1.806
363.69	-1.882
364.04	-1.921
364.40	-1.989
364.75	-2.069
365.11	-2.133
365.46	-2.064
365.82	-2.127
366.17	-2.207
366.53	-2.256
366.88	-2.186
367.24	-2.143
367.59	-2.129
367.95	-2.051
368.30	-1.981
368.66	-1.898
369.01	-1.777
369.37	-1.646
369.72	-1.487
370.08	-1.261
370.43	-1.177
370.78	-1.115
371.14	-1.054
371.49	-0.991
371.85	-0.956
372.20	-0.904
372.56	-0.947
372.91	-0.956
373.26	-1.077
373.62	-1.170
373.97	-1.265
374.33	-1.275
374.68	-1.323
375.03	-1.371
375.39	-1.385
375.74	-1.436
376.10	-1.411
376.45	-1.278
376.80	-1.207
377.16	-1.036
377.51	-0.884
377.87	-0.750
378.22	-0.571
378.57	-0.386
378.93	-0.259
379.28	-0.080
379.63	0.149
379.99	0.320
380.34	0.485
380.70	0.648
381.05	0.785
381.40	0.976
381.76	1.069
382.11	1.099
382.46	1.168
382.82	1.273
383.17	1.281
383.52	1.299
383.88	1.333
384.23	1.273
384.58	1.284
384.94	1.230
385.29	1.097
385.64	1.056
385.99	1.019
386.35	0.986
386.70	0.930
387.05	0.920
387.41	0.904
387.76	0.955
388.11	1.045
388.47	1.114
388.82	1.190
389.17	1.352
389.52	1.497
389.88	1.622
390.23	1.769
390.58	1.970
390.93	2.173
391.29	2.334
391.64	2.425
391.99	2.493
392.34	2.528
392.70	2.561
393.05	2.581
393.40	2.534
393.75	2.559
394.11	2.457
394.46	2.334
394.81	2.159
395.16	2.027
395.52	1.884
395.87	1.689
396.22	1.521
396.57	1.299
396.92	1.029
397.28	0.878
397.63	0.627
397.98	0.462
398.33	0.304
398.68	0.245
399.04	0.160
399.39	0.025
399.74	0.080
400.09	0.084
400.44	0.170
400.80	0.283
401.15	0.335
401.50	0.465
401.85	0.588
402.20	0.705
402.55	0.718
402.90	0.766
403.26	0.847
403.61	0.827
403.96	0.848
404.31	0.845
404.66	0.827
405.01	0.815
405.36	0.780
405.72	0.741
406.07	0.703
406.42	0.688
406.77	0.627
407.12	0.641
407.47	0.621
407.82	0.590
408.17	0.540
408.53	0.523
408.88	0.464
409.23	0.426
409.58	0.362
409.93	0.273
410.28	0.214
410.63	0.207
410.98	0.183
411.33	0.218
411.68	0.273
412.03	0.326
412.38	0.431
412.73	0.663
413.09	0.833
413.44	1.070
413.79	1.347
414.14	1.676
414.49	1.957
414.84	2.223
415.19	2.487
415.54	2.775
415.89	3.083
416.24	3.345
416.59	3.553
416.94	3.756
417.29	3.919
417.64	4.067
417.99	4.198
418.34	4.312
418.69	4.408
419.04	4.498
419.39	4.551
419.74	4.610
420.09	4.664
420.44	4.674
420.79	4.721
421.14	4.743
421.49	4.747
421.84	4.712
422.19	4.670
422.54	4.635
422.89	4.572
423.24	4.476
423.59	4.351
423.94	4.172
424.29	4.041
424.64	3.864
424.99	3.675
425.34	3.502
425.68	3.341
426.03	3.184
426.38	3.014
426.73	2.863
427.08	2.800
427.43	2.777
427.78	2.830
428.13	2.853
428.48	2.907
428.83	2.960
429.18	3.037
429.53	3.096
429.87	3.123
430.22	3.174
430.57	3.194
430.92	3.198
431.27	3.163
431.62	3.110
431.97	3.030
432.32	2.926
432.67	2.872
433.01	2.758
433.36	2.631
433.71	2.578
434.06	2.498
434.41	2.459
434.76	2.454
435.11	2.506
435.45	2.566
435.80	2.670
436.15	2.768
436.50	2.843
436.85	2.967
437.20	3.088
437.54	3.162
437.89	3.223
438.24	3.272
438.59	3.299
438.94	3.247
439.29	3.205
439.63	3.157
439.98	3.142
440.33	3.151
440.68	3.126
441.03	3.154
441.37	3.226
441.72	3.321
442.07	3.461
442.42	3.626
442.76	3.833
443.11	4.016
443.46	4.184
443.81	4.329
444.16	4.448
444.50	4.521
444.85	4.577
445.20	4.558
445.55	4.511
445.89	4.413
446.24	4.267
446.59	4.079
446.94	3.918
447.28	3.715
447.63	3.526
447.98	3.325
448.32	3.186
448.67	3.036
449.02	2.950
449.37	2.924
449.71	2.941
450.06	2.996
450.41	3.097
450.75	3.163
451.10	3.228
451.45	3.240
451.79	3.265
452.14	3.297
452.49	3.285
452.84	3.302
453.18	3.280
453.53	3.301
453.88	3.311
454.22	3.367
454.57	3.470
454.92	3.656
455.26	3.867
455.61	4.055
455.95	4.247
456.30	4.445
456.65	4.631
456.99	4.810
457.34	4.929
457.69	5.035
458.03	5.081
458.38	5.078
458.73	5.006
459.07	4.900
459.42	4.776
459.76	4.578
460.11	4.385
460.46	4.171
460.80	3.911
461.15	3.655
461.49	3.413
461.84	3.202
462.19	3.049
462.53	2.955
462.88	2.909
463.22	2.890
463.57	2.944
463.91	2.982
464.26	3.016
464.61	3.087
464.95	3.153
465.30	3.181
465.64	3.210
465.99	3.158
466.33	3.105
466.68	3.021
467.02	2.967
467.37	2.852
467.71	2.746
468.06	2.645
468.41	2.535
468.75	2.419
469.10	2.265
469.44	2.096
469.79	2.001
470.13	1.893
470.48	1.817
470.82	1.696
471.17	1.639
471.51	1.548
471.86	1.444
472.20	1.340
472.55	1.249
472.89	1.231
473.23	1.206
473.58	1.174
473.92	1.188
474.27	1.176
474.61	1.173
474.96	1.173
475.30	1.153
475.65	1.187
475.99	1.240
476.34	1.283
476.68	1.335
477.02	1.406
477.37	1.501
477.71	1.647
478.06	1.902
478.40	2.339
478.75	2.928
479.09	3.571
479.43	4.156
479.78	4.683
480.12	5.178
480.47	5.622
480.81	6.020
481.15	6.399
481.50	6.720
481.84	7.022
482.19	7.279
482.53	7.437
482.87	7.504
483.22	7.464
483.56	7.344
483.90	7.198
484.25	7.039
484.59	6.882
484.94	6.699
485.28	6.490
485.62	6.242
485.97	5.970
486.31	5.735
486.65	5.549
487.00	5.445
487.34	5.394
487.68	5.343
488.03	5.275
488.37	5.196
488.71	5.112
489.06	5.031
489.40	4.946
489.74	4.855
490.09	4.740
490.43	4.595
490.77	4.408
491.11	4.213
491.46	3.984
491.80	3.737
492.14	3.492
492.49	3.231
492.83	2.969
493.17	2.703
493.51	2.452
493.86	2.231
494.20	2.089
494.54	2.037
494.88	2.047
495.23	2.102
495.57	2.177
495.91	2.204
496.25	2.239
496.60	2.261
496.94	2.254
497.28	2.249
497.62	2.227
497.97	2.180
498.31	2.112
498.65	2.057
498.99	1.986
499.33	1.952
499.68	1.945
500.02	1.912
500.36	1.893
500.70	1.911
501.04	1.910
501.39	1.924
501.73	1.952
502.07	2.017
502.41	2.067
502.75	2.134
503.09	2.202
503.44	2.270
503.78	2.358
504.12	2.457
504.46	2.561
504.80	2.671
505.14	2.786
505.49	2.911
505.83	3.004
506.17	3.097
506.51	3.190
506.85	3.246
507.19	3.304
507.53	3.368
507.87	3.408
508.22	3.437
508.56	3.453
508.90	3.448
509.24	3.407
509.58	3.395
509.92	3.369
510.26	3.331
510.60	3.294
510.94	3.257
511.28	3.203
511.63	3.162
511.97	3.132
512.31	3.139
512.65	3.171
512.99	3.259
513.33	3.373
513.67	3.499
514.01	3.647
514.35	3.860
514.69	4.062
515.03	4.261
515.37	4.434
515.71	4.584
516.05	4.712
516.39	4.793
516.73	4.840
517.07	4.827
517.41	4.798
517.75	4.725
518.09	4.591
518.43	4.432
518.77	4.248
519.11	4.050
519.45	3.864
519.79	3.644
520.13	3.497
520.47	3.394
520.81	3.361
521.15	3.365
521.49	3.403
521.83	3.500
522.17	3.643
522.51	3.837
522.85	4.105
523.19	4.449
523.53	4.869
523.87	5.293
524.21	5.682
524.55	6.014
524.89	6.311
525.23	6.592
525.57	6.822
525.91	7.023
526.25	7.190
526.58	7.312
526.92	7.389
527.26	7.418
527.60	7.381
527.94	7.311
528.28	7.222
528.62	7.097
528.96	6.955
529.30	6.791
529.64	6.631
529.97	6.453
530.31	6.265
530.65	6.084
530.99	5.924
531.33	5.802
531.67	5.715
532.01	5.632
532.35	5.553
532.68	5.452
533.02	5.344
533.36	5.216
533.70	5.078
534.04	4.958
534.38	4.810
534.71	4.651
535.05	4.507
535.39	4.346
535.73	4.223
536.07	4.160
536.41	4.191
536.74	4.300
537.08	4.413
537.42	4.583
537.76	4.767
538.10	4.976
538.43	5.176
538.77	5.355
539.11	5.490
539.45	5.632
539.79	5.739
540.12	5.793
540.46	5.796
540.80	5.772
541.14	5.695
541.47	5.579
541.81	5.428
542.15	5.276
542.49	5.073
542.82	4.880
543.16	4.650
543.50	4.429
543.84	4.195
544.17	4.000
544.51	3.850
544.85	3.720
545.18	3.583
545.52	3.440
545.86	3.246
546.20	3.066
546.53	2.873
546.87	2.682
547.21	2.476
547.54	2.310
547.88	2.142
548.22	1.998
548.55	1.874
548.89	1.817
549.23	1.788
549.56	1.802
549.90	1.840
550.24	1.891
550.57	1.920
550.91	1.985
551.25	2.033
551.58	2.077
551.92	2.071
552.26	2.068
552.59	2.032
552.93	1.982
553.27	1.927
553.60	1.900
553.94	1.882
554.27	1.855
554.61	1.790
554.95	1.778
555.28	1.748
555.62	1.795
555.95	1.817
556.29	1.874
556.63	1.979
556.96	2.053
557.30	2.121
557.63	2.191
557.97	2.271
558.31	2.375
558.64	2.455
558.98	2.508
559.31	2.534
559.65	2.622
559.98	2.682
560.32	2.716
560.65	2.813
560.99	2.948
561.33	3.086
561.66	3.239
562.00	3.409
562.33	3.534
562.67	3.715
563.00	3.927
563.34	4.112
563.67	4.274
564.01	4.455
564.34	4.592
564.68	4.675
565.01	4.767
565.35	4.837
565.68	4.900
566.02	5.004
566.35	5.101
566.69	5.155
567.02	5.241
567.36	5.379
567.69	5.494
568.03	5.612
568.36	5.766
568.69	5.912
569.03	6.100
569.36	6.273
569.70	6.422
570.03	6.571
570.37	6.724
570.70	6.832
571.04	6.933
571.37	7.025
571.70	7.116
572.04	7.197
572.37	7.263
572.71	7.291
573.04	7.324
573.37	7.371
573.71	7.414
574.04	7.430
574.38	7.481
574.71	7.497
575.04	7.495
575.38	7.527
575.71	7.549
576.05	7.546
576.38	7.599
576.71	7.613
577.05	7.608
577.38	7.639
577.71	7.668
578.05	7.673
578.38	7.717
578.71	7.774
579.05	7.785
579.38	7.866
579.71	8.005
580.05	8.106
580.38	8.216
580.71	8.385
581.05	8.483
581.38	8.629
581.71	8.757
582.05	8.878
582.38	9.048
582.71	9.250
583.04	9.410
583.38	9.546
583.71	9.741
584.04	9.957
584.38	10.136
584.71	10.356
585.04	10.572
585.37	10.841
585.71	11.142
586.04	11.430
586.37	11.687
586.70	11.966
587.04	12.219
587.37	12.387
587.70	12.588
588.03	12.774
588.37	12.965
588.70	13.148
589.03	13.278
589.36	13.391
589.69	13.497
590.03	13.587
590.36	13.643
590.69	13.775
591.02	13.924
591.35	14.073
591.69	14.253
592.02	14.440
592.35	14.626
592.68	14.821
593.01	15.056
593.35	15.275
593.68	15.518
594.01	15.751
594.34	15.941
594.67	16.131
595.00	16.289
595.34	16.445
595.67	16.574
596.00	16.679
596.33	16.773
596.66	16.830
596.99	16.856
597.32	16.896
597.65	16.974
597.99	17.009
598.32	17.054
598.65	17.124
598.98	17.230
599.31	17.362
599.64	17.535
599.97	17.686
600.30	17.856
600.63	18.070
600.96	18.278
601.30	18.414
601.63	18.593
601.96	18.738
602.29	18.888
602.62	19.011
602.95	19.118
603.28	19.182
603.61	19.275
603.94	19.299
604.27	19.334
604.60	19.304
604.93	19.355
605.26	19.355
605.59	19.380
605.92	19.369
606.25	19.410
606.58	19.410
606.91	19.473
607.24	19.488
607.57	19.569
607.90	19.559
608.23	19.611
608.56	19.611
608.89	19.634
609.22	19.609
609.55	19.606
609.88	19.563
610.21	19.509
610.54	19.408
610.87	19.350
611.20	19.272
611.53	19.222
611.86	19.148
612.19	19.084
612.52	19.014
612.85	19.012
613.18	18.950
613.51	18.921
613.84	18.915
614.17	18.907
614.49	18.936
614.82	18.945
615.15	18.931
615.48	18.912
615.81	18.910
616.14	18.910
616.47	18.910
616.80	18.954
617.13	18.887
617.46	18.873
617.78	18.849
618.11	18.797
618.44	18.715
618.77	18.691
619.10	18.719
619.43	18.688
619.76	18.679
620.09	18.651
620.41	18.582
620.74	18.578
621.07	18.562
621.40	18.625
621.73	18.670
622.06	18.761
622.38	18.845
622.71	18.891
623.04	19.052
623.37	19.128
623.70	19.215
624.02	19.322
624.35	19.424
624.68	19.566
625.01	19.660
625.34	19.720
625.66	19.773
625.99	19.833
626.32	19.838
626.65	19.773
626.98	19.790
627.30	19.784
627.63	19.768
627.96	19.787
628.29	19.704
628.61	19.677
628.94	19.622
629.27	19.565
629.60	19.531
629.92	19.567
630.25	19.522
630.58	19.518
630.91	19.531
631.23	19.502
631.56	19.446
631.89	19.390
632.21	19.312
632.54	19.253
632.87	19.238
633.19	19.132
633.52	19.025
633.85	18.968
634.18	18.816
634.50	18.691
634.83	18.553
635.16	18.373
635.48	18.298
635.81	18.135
636.14	18.021
636.46	17.800
636.79	17.635
637.11	17.424
637.44	17.281
637.77	17.113
638.09	16.904
638.42	16.825
638.75	16.667
639.07	16.414
639.40	16.239
639.73	16.033
640.05	15.858
640.38	15.700
640.70	15.486
641.03	15.217
641.36	15.089
641.68	14.889
642.01	14.650
642.33	14.528
642.66	14.418
642.98	14.277
643.31	14.159
643.64	14.061
643.96	13.966
644.29	13.933
644.61	13.860
644.94	13.729
645.26	13.656
645.59	13.583
645.91	13.408
646.24	13.324
646.56	13.233
646.89	13.152
647.22	13.062
647.54	12.969
647.87	12.859
648.19	12.750
648.52	12.683
648.84	12.616
649.17	12.529
649.49	12.435
649.82	12.345
650.14	12.261
650.47	12.235
650.79	12.154
651.11	12.054
651.44	11.973
651.76	11.937
652.09	11.837
652.41	11.830
652.74	11.769
653.06	11.802
653.39	11.751
653.71	11.772
654.04	11.761
654.36	11.742
654.68	11.739
655.01	11.737
655.33	11.723
655.66	11.705
655.98	11.632
656.30	11.591
656.63	11.497
656.95	11.461
657.28	11.361
657.60	11.192
657.92	11.051
658.25	10.908
658.57	10.800
658.90	10.624
659.22	10.413
659.54	10.202
659.87	9.953
660.19	9.751
660.51	9.425
660.84	9.126
661.16	8.859
661.48	8.582
661.81	8.318
662.13	8.052
662.45	7.844
662.78	7.712
663.10	7.525
663.42	7.404
663.75	7.281
664.07	7.257
664.39	7.216
664.72	7.183
665.04	7.164
665.36	7.116
665.69	7.046
666.01	6.988
666.33	6.952
666.65	6.924
666.98	6.898
667.30	6.881
667.62	6.883
667.94	6.821
668.27	6.741
668.59	6.663
668.91	6.631
669.23	6.550
669.56	6.566
669.88	6.539
670.20	6.598
670.52	6.618
670.85	6.663
671.17	6.584
671.49	6.624
671.81	6.683
672.13	6.824
672.46	6.958
672.78	7.102
673.10	7.210
673.42	7.236
673.74	7.227
674.07	7.359
674.39	7.445
674.71	7.568
675.03	7.653
675.35	7.869
675.67	7.974
676.00	8.127
676.32	8.330
676.64	8.562
676.96	8.807
677.28	9.005
677.60	9.157
677.92	9.390
678.25	9.657
678.57	9.966
678.89	10.107
679.21	10.381
679.53	10.550
679.85	10.746
680.17	10.927
680.49	11.176
680.81	11.499
681.13	11.828
681.46	12.140
681.78	12.466
682.10	12.804
682.42	13.198
682.74	13.598
683.06	14.178
683.38	14.606
683.70	15.114
684.02	15.664
684.34	16.186
684.66	16.711
684.98	17.309
685.30	17.857
685.62	18.342
685.94	18.898
686.26	19.437
686.58	19.848
686.90	20.491
687.22	20.965
687.54	21.459
687.86	21.908
688.18	22.400
688.50	22.768
688.82	23.336
689.14	23.851
689.46	24.390
689.78	24.932
690.10	25.486
690.42	26.028
690.74	26.640
691.06	27.169
691.38	27.819
691.70	28.504
692.02	29.226
692.34	29.783
692.66	30.472
692.98	31.135
693.30	31.831
693.62	32.577
693.94	33.192
694.26	33.880
694.57	34.532
694.89	35.224
695.21	35.795
695.53	36.302
695.85	36.899
696.17	37.431
696.49	37.942
696.81	38.380
697.13	38.830
697.44	39.377
697.76	39.854
698.08	40.321
698.40	40.707
698.72	41.113
699.04	41.454
699.36	41.849
699.67	42.251
699.99	42.601
700.31	43.018
700.63	43.502
700.95	43.823
701.27	44.154
701.58	44.540
701.90	44.853
702.22	45.143
702.54	45.662
702.86	45.944
703.17	46.282
703.49	46.718
703.81	46.943
704.13	47.105
704.45	47.384
704.76	47.723
705.08	47.997
705.40	48.247
705.72	48.492
706.03	48.777
706.35	49.109
706.67	49.342
706.99	49.513
707.30	49.848
707.62	50.267
707.94	50.486
708.26	50.722
708.57	50.911
708.89	51.158
709.21	51.539
709.53	51.774
709.84	52.049
710.16	52.389
710.48	52.711
710.79	52.998
711.11	53.211
711.43	53.530
711.74	53.783
712.06	54.192
712.38	54.534
712.69	54.703
713.01	54.981
713.33	55.128
713.64	55.444
713.96	55.694
714.28	56.133
714.59	56.473
714.91	56.776
715.23	57.044
715.54	57.308
715.86	57.635
716.17	57.913
716.49	58.247
716.81	58.626
717.12	58.623
717.44	58.873
717.76	58.887
718.07	59.096
718.39	59.201
718.70	59.378
719.02	59.372
719.33	59.433
719.65	59.646
719.97	59.515
720.28	59.569
720.60	59.837
720.91	59.978
721.23	60.066
721.54	60.009
721.86	60.208
722.17	60.295
722.49	60.559
722.81	60.733
723.12	60.885
723.44	61.190
723.75	61.409
724.07	61.355
724.38	61.367
724.70	61.503
725.01	61.607
725.33	61.750
725.64	61.755
725.96	61.781
726.27	61.756
726.59	61.822
726.90	61.904
727.22	62.012
727.53	62.248
727.84	62.381
728.16	62.496
728.47	62.588
728.79	62.541
729.10	62.622
729.42	62.656
729.73	62.770
730.05	62.760
730.36	62.750
730.67	62.613
730.99	62.556
731.30	62.508
731.62	62.569
731.93	62.493
732.24	62.482
732.56	62.431
732.87	62.376
733.19	62.304
733.50	62.266
733.81	62.259
734.13	62.256
734.44	62.250
734.76	62.164
735.07	62.177
735.38	62.363
735.70	62.374
736.01	62.620
736.32	62.786
736.64	62.795
736.95	62.809
737.26	62.804
737.58	62.852
737.89	63.079
738.20	63.112
738.52	62.955
738.83	62.686
739.14	62.840
739.45	62.633
739.77	62.699
740.08	62.765
740.39	62.748
740.71	62.945
741.02	62.921
741.33	62.693
741.64	62.591
741.96	62.535
742.27	62.554
742.58	62.271
742.90	62.149
743.21	62.146
743.52	61.976
743.83	62.007
744.14	61.574
744.46	61.747
744.77	61.739
745.08	61.831
745.39	61.622
745.71	61.597
746.02	61.694
746.33	61.618
746.64	61.245
746.95	61.194
747.27	61.369
747.58	61.527
747.89	61.356
748.20	61.103
748.51	61.063
748.82	61.191
749.14	61.352
749.45	61.485
749.76	61.588
750.07	61.715
750.38	61.734
750.69	61.319
751.01	61.344
751.32	61.265
751.63	61.246
751.94	61.428
752.25	61.500
752.56	61.422
752.87	60.974
753.18	60.984
753.49	60.901
753.81	61.204
754.12	61.385
754.43	61.424
754.74	61.483
755.05	61.971
755.36	62.180
755.67	62.490
755.98	62.764
756.29	63.377
756.60	63.655
756.91	64.112
757.22	64.361
757.53	64.838
757.84	65.261
758.15	65.632
758.46	65.865
758.77	66.113
759.09	66.431
759.40	66.572
759.71	66.693
760.02	66.779
760.33	66.912
760.64	66.836
760.95	66.766
761.26	66.810
761.57	66.683
761.88	66.585
762.18	66.406
762.49	66.200
762.80	65.990
763.11	65.827
763.42	65.740
763.73	65.434
764.04	65.155
764.35	64.906
764.66	64.456
764.97	64.312
765.28	63.799
765.59	63.408
765.90	62.840
766.21	62.552
766.52	62.058
766.83	61.391
767.14	60.709
767.44	60.383
767.75	59.770
768.06	59.163
768.37	58.606
768.68	58.235
768.99	58.295
769.30	58.179
769.61	57.858
769.91	57.572
770.22	57.443
770.53	57.423
770.84	57.034
771.15	57.055
771.46	57.204
771.77	56.976
772.07	57.082
772.38	56.400
772.69	56.284
773.00	56.406
773.31	56.164
773.61	56.206
773.92	56.401
774.23	56.453
774.54	56.371
774.85	56.219
775.15	56.394
775.46	56.313
775.77	56.682
776.08	56.492
776.39	56.072
776.69	56.424
777.00	56.486
777.31	56.285
777.62	56.429
777.92	56.328
778.23	56.194
778.54	55.968
778.85	56.256
779.15	55.922
779.46	56.081
779.77	56.029
780.07	55.604
780.38	55.429
780.69	55.228
781.00	55.322
781.30	55.392
781.61	55.719
781.92	55.841
782.22	55.484
782.53	55.492
782.84	55.279
783.14	55.589
783.45	55.851
783.76	55.966
784.06	56.336
784.37	56.578
784.68	56.863
784.98	56.923
785.29	56.999
785.60	57.414
785.90	57.667
786.21	57.749
786.51	57.924
786.82	58.008
787.13	58.407
787.43	58.464
787.74	58.677
788.04	58.704
788.35	58.656
788.66	58.721
788.96	58.663
789.27	58.483
789.57	58.958
789.88	58.627
790.19	58.832
790.49	58.620
790.80	58.661
791.10	58.270
791.41	57.900
791.71	57.915
792.02	58.091
792.32	57.933
792.63	58.035
792.93	57.919
793.24	58.311
793.54	58.106
793.85	57.819
794.15	57.893
794.46	57.753
794.76	58.082
795.07	58.492
795.37	58.656
795.68	58.910
795.98	59.198
796.29	59.179
796.59	59.155
796.90	59.101
797.20	59.387
797.51	59.055
797.81	58.986
798.12	58.780
798.42	58.295
798.72	57.769
799.03	57.572
799.33	56.983
799.64	56.883
799.94	56.755
800.25	56.894
800.55	56.450
800.85	56.612
801.16	57.205
801.46	57.339
801.77	57.223
802.07	57.287
802.37	57.138
802.68	57.607
802.98	57.441
803.28	57.341
803.59	57.349
803.89	57.732
804.20	57.682
804.50	57.517
804.80	57.666
805.11	57.953
805.41	58.390
805.71	58.668
806.02	58.514
806.32	58.824
806.62	59.077
806.93	58.642
807.23	58.584
807.53	58.760
807.83	58.705
808.14	58.711
808.44	58.748
808.74	58.675
809.05	58.738
809.35	59.090
809.65	58.712
809.95	58.744
810.26	59.254
810.56	59.795
810.86	60.105
811.16	60.632
811.47	60.720
811.77	60.861
812.07	60.760
812.37	61.149
812.68	61.312
812.98	61.653
813.28	62.151
813.58	62.539
813.88	62.097
814.19	62.038
814.49	61.290
814.79	61.464
815.09	61.762
815.39	62.334
815.70	62.150
816.00	62.262
816.30	62.881
816.60	62.484
816.90	62.517
817.20	63.165
817.50	63.219
817.81	63.440
818.11	63.828
818.41	64.081
818.71	64.241
819.01	64.557
819.31	64.639
819.61	64.690
819.92	64.868
820.22	65.230
820.52	65.287
820.82	65.610
821.12	65.970
821.42	66.238
821.72	66.566
822.02	66.923
822.32	67.244
822.62	67.610
822.92	68.013
823.22	68.316
823.52	68.433
823.83	68.696
824.13	68.759
824.43	68.819
824.73	68.825
825.03	68.651
825.33	68.402
825.63	68.182
825.93	67.906
826.23	67.784
826.53	67.856
826.83	67.824
827.13	67.969
827.43	68.052
827.73	68.216
828.03	68.189
828.33	68.326
828.63	68.421
828.93	68.237
829.23	68.237
829.53	67.690
829.83	66.760
830.13	66.368
830.42	65.772
830.72	65.318
831.02	64.810
831.32	64.756
831.62	64.807
831.92	64.809
832.22	64.653
832.52	64.748
832.82	64.725
833.12	65.083
833.42	65.121
833.72	65.209
834.01	65.365
834.31	65.307
834.61	65.355
834.91	65.056
835.21	64.718
835.51	64.948
835.81	64.443
836.11	64.045
836.40	63.836
836.70	63.436
837.00	62.972
837.30	62.916
837.60	62.591
837.90	61.696
838.19	61.124
838.49	61.429
838.79	60.392
839.09	61.097
839.39	61.345
839.68	61.200
839.98	61.149
840.28	60.744
840.58	60.579
840.88	60.283
841.17	60.744
841.47	60.625
841.77	60.335
842.07	61.310
842.36	59.963
842.66	59.087
842.96	57.884
843.26	56.713
843.55	56.128
843.85	54.526
844.15	54.750
844.45	53.110
844.74	52.394
845.04	49.669
845.34	48.325
845.63	48.457
845.93	48.403
846.23	49.714
846.53	50.807
846.82	51.601
847.12	51.911
847.42	51.143
847.71	52.630
848.01	53.054
848.31	53.690
848.60	54.415
848.90	54.375
849.19	53.816
849.49	52.426
849.79	50.109
850.08	50.077
850.38	50.272
850.68	50.209
850.97	48.698
851.27	48.945
851.56	50.788
851.86	49.468
852.16	51.233
852.45	51.974
852.75	52.536
853.04	53.373
853.34	53.132
853.64	52.982
853.93	52.234
854.23	52.586
854.52	52.322
854.82	52.116
855.11	53.240
855.41	53.499
855.70	53.885
856.00	53.484
856.30	54.700
856.59	54.788
856.89	54.872
857.18	57.217
857.48	56.719
857.77	57.277
858.07	55.757
858.36	55.150
858.66	54.018
858.95	54.445
859.25	56.430
859.54	55.445
859.84	55.869
860.13	55.924
860.42	56.539
860.72	57.373
861.01	55.930
861.31	57.035
861.60	56.181
861.90	55.844
862.19	54.871
862.49	54.814
862.78	54.706
863.07	55.046
863.37	55.591
863.66	55.382
863.96	54.777
864.25	55.205
864.54	55.977
864.84	56.587
865.13	55.563
865.43	56.384
865.72	50.651
866.01	64.608
866.31	52.422
866.60	46.997
866.89	56.363
>>>>>End Spectral Data<<<<<
