OOIBase32 Version 2.0.0.6 Data File
++++++++++++++++++++++++++++++++++++
Date: 01-24-2012, 17:44:44
User: Valued Ocean Optics Customer
Spectrometer Serial Number: USB2E2917
Spectrometer Channel: Master
Integration Time (msec): 7
Spectra Averaged: 10
Boxcar Smoothing: 5
Correct for Electrical Dark: Enabled
Time Normalized: Disabled
Dual-beam Reference: Disabled
Reference Channel: Master
Temperature: Not acquired
Spectrometer Type: S2000
ADC Type: USB2000
Number of Pixels in File: 2048
Graph Title: 
>>>>>Begin Spectral Data<<<<<
180.30	0.000
180.67	0.000
181.03	111.979
181.40	81947.619
181.77	-430.979
182.14	269.143
182.51	-367.426
182.88	193.116
183.25	28.906
183.62	20.845
183.99	93.447
184.36	6.952
184.73	68.028
185.10	96.571
185.46	78.416
185.83	-218.341
186.20	-263.183
186.57	166.006
186.94	5.654
187.31	125.755
187.68	-32.893
188.05	140.880
188.42	-7.137
188.78	-48.603
189.15	-17.074
189.52	28.024
189.89	19.453
190.26	12.934
190.63	25.668
191.00	22.781
191.37	15.543
191.73	6.885
192.10	-18.872
192.47	20.547
192.84	36.455
193.21	30.539
193.58	17.193
193.94	11.683
194.31	19.209
194.68	20.835
195.05	10.333
195.42	20.467
195.79	34.220
196.15	41.198
196.52	28.939
196.89	19.164
197.26	26.473
197.63	28.163
198.00	24.614
198.36	6.765
198.73	-14.646
199.10	-11.977
199.47	-4.199
199.84	-3.984
200.20	-10.625
200.57	-30.565
200.94	-28.272
201.31	3.754
201.68	3.884
202.04	13.433
202.41	21.677
202.78	35.559
203.15	39.578
203.51	37.432
203.88	30.840
204.25	39.676
204.62	48.914
204.98	52.314
205.35	45.705
205.72	28.580
206.09	30.134
206.46	24.863
206.82	4.590
207.19	11.007
207.56	18.763
207.92	17.646
208.29	-19.989
208.66	-27.266
209.03	-2.073
209.39	-2.431
209.76	2.476
210.13	0.635
210.50	8.447
210.86	20.394
211.23	19.887
211.60	17.219
211.96	12.448
212.33	26.977
212.70	34.484
213.07	22.715
213.43	18.138
213.80	24.643
214.17	25.258
214.53	17.094
214.90	12.831
215.27	9.193
215.63	11.849
216.00	-1.708
216.37	-1.450
216.74	-6.267
217.10	-19.991
217.47	-16.649
217.84	-55.615
218.20	-57.789
218.57	-43.731
218.94	-21.236
219.30	-20.710
219.67	-10.657
220.04	4.990
220.40	4.025
220.77	2.560
221.13	6.469
221.50	1.456
221.87	9.657
222.23	1.422
222.60	3.157
222.97	-5.949
223.33	-5.829
223.70	-11.091
224.07	-7.883
224.43	-7.806
224.80	-7.989
225.16	-1.583
225.53	0.342
225.90	-3.256
226.26	0.598
226.63	-1.629
226.99	1.945
227.36	0.391
227.73	-1.104
228.09	-2.663
228.46	-0.834
228.82	2.029
229.19	-1.158
229.56	-3.872
229.92	-0.506
230.29	0.733
230.65	5.784
231.02	2.512
231.38	2.366
231.75	2.302
232.12	2.622
232.48	0.637
232.85	-1.046
233.21	1.160
233.58	4.534
233.94	3.986
234.31	-0.031
234.68	-3.214
235.04	1.059
235.41	3.595
235.77	5.009
236.14	4.607
236.50	6.083
236.87	4.522
237.23	3.401
237.60	0.349
237.96	0.672
238.33	1.906
238.69	1.268
239.06	0.886
239.42	1.349
239.79	0.766
240.15	1.551
240.52	0.493
240.88	0.828
241.25	0.408
241.61	2.185
241.98	0.771
242.34	0.912
242.71	0.929
243.07	-0.158
243.44	-0.277
243.80	-0.189
244.17	-0.896
244.53	-0.782
244.90	-1.255
245.26	-0.599
245.63	-0.947
245.99	-0.471
246.36	-0.442
246.72	-0.355
247.09	-0.574
247.45	-1.008
247.81	-1.082
248.18	-0.670
248.54	-0.956
248.91	-0.817
249.27	-1.379
249.64	-1.476
250.00	-2.138
250.36	-2.377
250.73	-2.067
251.09	-1.598
251.46	-1.389
251.82	-0.886
252.19	-1.372
252.55	-0.658
252.91	-0.935
253.28	-0.079
253.64	1.352
254.01	2.187
254.37	2.167
254.73	1.907
255.10	2.382
255.46	2.458
255.83	2.275
256.19	2.233
256.55	1.765
256.92	2.080
257.28	1.698
257.65	1.058
258.01	0.991
258.37	1.064
258.74	0.899
259.10	0.762
259.46	0.488
259.83	0.629
260.19	0.744
260.55	1.155
260.92	1.291
261.28	1.525
261.64	1.856
262.01	2.038
262.37	2.067
262.73	2.127
263.10	1.903
263.46	2.187
263.82	1.763
264.19	1.742
264.55	1.802
264.91	2.011
265.28	1.903
265.64	1.688
266.00	1.041
266.37	1.161
266.73	1.115
267.09	1.263
267.46	1.563
267.82	1.536
268.18	1.789
268.54	1.082
268.91	0.213
269.27	0.203
269.63	0.314
270.00	0.917
270.36	0.905
270.72	0.680
271.08	0.634
271.45	0.261
271.81	0.193
272.17	-0.093
272.53	0.447
272.90	0.755
273.26	0.667
273.62	0.642
273.98	0.377
274.35	0.219
274.71	0.502
275.07	0.616
275.43	0.609
275.80	0.748
276.16	0.247
276.52	-0.053
276.88	-0.031
277.25	0.141
277.61	0.241
277.97	0.420
278.33	0.480
278.69	0.360
279.06	0.002
279.42	0.231
279.78	-0.157
280.14	0.319
280.50	0.261
280.87	0.631
281.23	0.423
281.59	0.406
281.95	0.254
282.31	0.300
282.68	0.570
283.04	0.816
283.40	0.606
283.76	0.886
284.12	0.947
284.48	0.995
284.85	0.696
285.21	0.478
285.57	0.257
285.93	0.365
286.29	0.227
286.65	0.018
287.02	-0.072
287.38	0.029
287.74	0.012
288.10	-0.152
288.46	-0.107
288.82	0.139
289.18	0.397
289.54	0.341
289.91	0.294
290.27	0.397
290.63	0.244
290.99	0.522
291.35	0.693
291.71	0.768
292.07	0.847
292.43	0.739
292.79	0.754
293.16	0.797
293.52	0.927
293.88	0.813
294.24	0.572
294.60	0.782
294.96	0.471
295.32	0.401
295.68	0.235
296.04	0.273
296.40	0.372
296.76	0.263
297.12	0.152
297.49	0.034
297.85	-0.045
298.21	0.136
298.57	-0.027
298.93	0.178
299.29	0.040
299.65	0.125
300.01	0.120
300.37	0.205
300.73	0.249
301.09	0.155
301.45	0.216
301.81	0.279
302.17	0.251
302.53	0.208
302.89	0.134
303.25	0.290
303.61	0.405
303.97	0.204
304.33	-0.055
304.69	-0.169
305.05	-0.192
305.41	-0.157
305.77	-0.125
306.13	-0.143
306.49	-0.250
306.85	-0.204
307.21	-0.276
307.57	-0.429
307.93	-0.329
308.29	-0.263
308.65	-0.254
309.01	-0.266
309.37	-0.372
309.73	-0.384
310.09	-0.491
310.45	-0.403
310.81	-0.659
311.17	-0.712
311.53	-0.719
311.89	-0.844
312.25	-0.920
312.61	-1.124
312.96	-1.137
313.32	-1.095
313.68	-1.270
314.04	-1.201
314.40	-1.433
314.76	-1.332
315.12	-1.451
315.48	-1.577
315.84	-1.570
316.20	-1.613
316.56	-1.737
316.92	-1.687
317.27	-1.882
317.63	-1.864
317.99	-2.042
318.35	-1.855
318.71	-2.099
319.07	-1.981
319.43	-2.011
319.79	-2.118
320.15	-2.414
320.50	-2.404
320.86	-2.637
321.22	-2.636
321.58	-2.656
321.94	-2.629
322.30	-2.714
322.66	-2.581
323.01	-2.832
323.37	-2.855
323.73	-3.053
324.09	-2.934
324.45	-3.095
324.81	-3.098
325.17	-3.313
325.52	-3.451
325.88	-3.662
326.24	-3.756
326.60	-4.006
326.96	-4.082
327.31	-4.383
327.67	-4.292
328.03	-4.421
328.39	-4.357
328.75	-4.500
329.11	-4.435
329.46	-4.508
329.82	-4.381
330.18	-4.382
330.54	-4.367
330.90	-4.292
331.25	-4.034
331.61	-3.997
331.97	-3.974
332.33	-3.949
332.68	-3.764
333.04	-3.611
333.40	-3.489
333.76	-3.594
334.11	-3.629
334.47	-3.635
334.83	-3.709
335.19	-3.761
335.54	-3.767
335.90	-3.724
336.26	-3.690
336.62	-3.814
336.97	-4.094
337.33	-4.117
337.69	-4.105
338.05	-4.080
338.40	-3.984
338.76	-4.027
339.12	-4.070
339.48	-4.056
339.83	-3.998
340.19	-4.029
340.55	-3.965
340.90	-3.913
341.26	-3.809
341.62	-3.757
341.97	-3.794
342.33	-3.773
342.69	-3.681
343.04	-3.670
343.40	-3.710
343.76	-3.784
344.12	-3.689
344.47	-3.638
344.83	-3.511
345.19	-3.656
345.54	-3.682
345.90	-3.653
346.26	-3.616
346.61	-3.689
346.97	-3.705
347.32	-3.820
347.68	-3.924
348.04	-4.043
348.39	-4.076
348.75	-4.100
349.11	-4.149
349.46	-4.159
349.82	-4.164
350.18	-4.209
350.53	-4.124
350.89	-4.113
351.24	-3.892
351.60	-3.825
351.96	-3.730
352.31	-3.745
352.67	-3.673
353.02	-3.530
353.38	-3.366
353.74	-3.294
354.09	-3.189
354.45	-3.134
354.80	-3.054
355.16	-3.042
355.52	-2.762
355.87	-2.689
356.23	-2.567
356.58	-2.517
356.94	-2.481
357.29	-2.477
357.65	-2.309
358.00	-2.314
358.36	-2.232
358.72	-2.183
359.07	-2.138
359.43	-2.131
359.78	-2.086
360.14	-2.090
360.49	-2.091
360.85	-2.040
361.20	-2.044
361.56	-2.206
361.91	-2.198
362.27	-2.200
362.62	-2.159
362.98	-2.236
363.33	-2.274
363.69	-2.282
364.04	-2.252
364.40	-2.325
364.75	-2.311
365.11	-2.346
365.46	-2.209
365.82	-2.180
366.17	-2.211
366.53	-2.113
366.88	-2.005
367.24	-1.921
367.59	-1.817
367.95	-1.754
368.30	-1.537
368.66	-1.408
369.01	-1.150
369.37	-1.018
369.72	-0.819
370.08	-0.549
370.43	-0.457
370.78	-0.284
371.14	-0.089
371.49	0.003
371.85	0.147
372.20	0.240
372.56	0.320
372.91	0.323
373.26	0.323
373.62	0.293
373.97	0.330
374.33	0.400
374.68	0.432
375.03	0.407
375.39	0.493
375.74	0.466
376.10	0.556
376.45	0.691
376.80	0.807
377.16	1.030
377.51	1.292
377.87	1.495
378.22	1.694
378.57	1.910
378.93	2.128
379.28	2.393
379.63	2.761
379.99	3.031
380.34	3.263
380.70	3.525
381.05	3.708
381.40	3.851
381.76	3.973
382.11	4.105
382.46	4.257
382.82	4.326
383.17	4.397
383.52	4.502
383.88	4.551
384.23	4.583
384.58	4.642
384.94	4.681
385.29	4.716
385.64	4.735
385.99	4.784
386.35	4.806
386.70	4.901
387.05	4.961
387.41	5.025
387.76	5.137
388.11	5.274
388.47	5.408
388.82	5.586
389.17	5.790
389.52	6.035
389.88	6.235
390.23	6.432
390.58	6.727
390.93	7.001
391.29	7.211
391.64	7.390
391.99	7.515
392.34	7.633
392.70	7.674
393.05	7.761
393.40	7.758
393.75	7.799
394.11	7.808
394.46	7.705
394.81	7.570
395.16	7.503
395.52	7.361
395.87	7.218
396.22	7.104
396.57	6.978
396.92	6.778
397.28	6.665
397.63	6.494
397.98	6.331
398.33	6.173
398.68	6.120
399.04	5.995
399.39	5.949
399.74	6.046
400.09	6.045
400.44	6.141
400.80	6.249
401.15	6.316
401.50	6.460
401.85	6.581
402.20	6.734
402.55	6.785
402.90	6.865
403.26	6.983
403.61	6.910
403.96	6.956
404.31	6.976
404.66	6.949
405.01	6.924
405.36	6.838
405.72	6.795
406.07	6.681
406.42	6.609
406.77	6.568
407.12	6.509
407.47	6.511
407.82	6.444
408.17	6.348
408.53	6.325
408.88	6.276
409.23	6.256
409.58	6.219
409.93	6.216
410.28	6.202
410.63	6.174
410.98	6.142
411.33	6.127
411.68	6.199
412.03	6.275
412.38	6.348
412.73	6.527
413.09	6.642
413.44	6.809
413.79	6.974
414.14	7.233
414.49	7.448
414.84	7.673
415.19	7.921
415.54	8.128
415.89	8.344
416.24	8.548
416.59	8.704
416.94	8.893
417.29	9.030
417.64	9.175
417.99	9.287
418.34	9.398
418.69	9.479
419.04	9.553
419.39	9.602
419.74	9.676
420.09	9.711
420.44	9.735
420.79	9.729
421.14	9.713
421.49	9.688
421.84	9.640
422.19	9.569
422.54	9.511
422.89	9.419
423.24	9.326
423.59	9.182
423.94	9.028
424.29	8.854
424.64	8.719
424.99	8.583
425.34	8.440
425.68	8.271
426.03	8.128
426.38	7.976
426.73	7.858
427.08	7.774
427.43	7.719
427.78	7.746
428.13	7.753
428.48	7.764
428.83	7.738
429.18	7.775
429.53	7.809
429.87	7.816
430.22	7.837
430.57	7.847
430.92	7.829
431.27	7.784
431.62	7.714
431.97	7.637
432.32	7.519
432.67	7.477
433.01	7.371
433.36	7.266
433.71	7.163
434.06	7.078
434.41	7.041
434.76	7.021
435.11	7.077
435.45	7.135
435.80	7.233
436.15	7.362
436.50	7.447
436.85	7.528
437.20	7.634
437.54	7.734
437.89	7.797
438.24	7.855
438.59	7.888
438.94	7.863
439.29	7.818
439.63	7.789
439.98	7.761
440.33	7.784
440.68	7.817
441.03	7.857
441.37	7.954
441.72	8.056
442.07	8.204
442.42	8.368
442.76	8.532
443.11	8.716
443.46	8.876
443.81	9.026
444.16	9.155
444.50	9.240
444.85	9.325
445.20	9.337
445.55	9.333
445.89	9.262
446.24	9.186
446.59	9.094
446.94	9.007
447.28	8.908
447.63	8.790
447.98	8.672
448.32	8.580
448.67	8.484
449.02	8.469
449.37	8.478
449.71	8.526
450.06	8.598
450.41	8.708
450.75	8.778
451.10	8.851
451.45	8.911
451.79	8.945
452.14	8.992
452.49	9.013
452.84	9.025
453.18	9.040
453.53	9.103
453.88	9.145
454.22	9.203
454.57	9.320
454.92	9.471
455.26	9.683
455.61	9.854
455.95	10.040
456.30	10.226
456.65	10.406
456.99	10.571
457.34	10.702
457.69	10.818
458.03	10.868
458.38	10.873
458.73	10.843
459.07	10.742
459.42	10.656
459.76	10.509
460.11	10.343
460.46	10.159
460.80	9.956
461.15	9.723
461.49	9.529
461.84	9.339
462.19	9.212
462.53	9.166
462.88	9.141
463.22	9.129
463.57	9.197
463.91	9.224
464.26	9.284
464.61	9.348
464.95	9.409
465.30	9.440
465.64	9.486
465.99	9.443
466.33	9.347
466.68	9.277
467.02	9.217
467.37	9.116
467.71	9.066
468.06	8.970
468.41	8.875
468.75	8.774
469.10	8.650
469.44	8.504
469.79	8.440
470.13	8.389
470.48	8.314
470.82	8.250
471.17	8.178
471.51	8.122
471.86	8.046
472.20	7.956
472.55	7.880
472.89	7.865
473.23	7.884
473.58	7.852
473.92	7.859
474.27	7.862
474.61	7.852
474.96	7.870
475.30	7.847
475.65	7.889
475.99	7.961
476.34	7.997
476.68	8.040
477.02	8.114
477.37	8.237
477.71	8.423
478.06	8.736
478.40	9.167
478.75	9.758
479.09	10.372
479.43	10.968
479.78	11.513
480.12	12.070
480.47	12.558
480.81	13.026
481.15	13.449
481.50	13.827
481.84	14.212
482.19	14.576
482.53	14.825
482.87	14.955
483.22	14.915
483.56	14.751
483.90	14.539
484.25	14.360
484.59	14.192
484.94	14.014
485.28	13.796
485.62	13.493
485.97	13.180
486.31	12.926
486.65	12.772
487.00	12.761
487.34	12.862
487.68	12.970
488.03	12.992
488.37	12.978
488.71	12.951
489.06	12.938
489.40	12.929
489.74	12.903
490.09	12.854
490.43	12.769
490.77	12.658
491.11	12.548
491.46	12.412
491.80	12.296
492.14	12.148
492.49	12.004
492.83	11.836
493.17	11.701
493.51	11.582
493.86	11.490
494.20	11.486
494.54	11.540
494.88	11.638
495.23	11.797
495.57	11.956
495.91	12.124
496.25	12.291
496.60	12.471
496.94	12.592
497.28	12.720
497.62	12.822
497.97	12.898
498.31	12.990
498.65	13.127
498.99	13.238
499.33	13.352
499.68	13.487
500.02	13.600
500.36	13.711
500.70	13.882
501.04	14.037
501.39	14.259
501.73	14.487
502.07	14.714
502.41	14.897
502.75	15.068
503.09	15.268
503.44	15.493
503.78	15.763
504.12	16.020
504.46	16.280
504.80	16.525
505.14	16.751
505.49	16.996
505.83	17.255
506.17	17.503
506.51	17.780
506.85	18.040
507.19	18.259
507.53	18.472
507.87	18.708
508.22	18.898
508.56	19.107
508.90	19.323
509.24	19.480
509.58	19.626
509.92	19.813
510.26	19.993
510.60	20.178
510.94	20.341
511.28	20.504
511.63	20.668
511.97	20.878
512.31	21.083
512.65	21.308
512.99	21.596
513.33	21.912
513.67	22.188
514.01	22.477
514.35	22.811
514.69	23.132
515.03	23.485
515.37	23.779
515.71	24.058
516.05	24.321
516.39	24.525
516.73	24.723
517.07	24.874
517.41	25.009
517.75	25.122
518.09	25.177
518.43	25.249
518.77	25.244
519.11	25.277
519.45	25.293
519.79	25.309
520.13	25.348
520.47	25.401
520.81	25.515
521.15	25.680
521.49	25.843
521.83	26.063
522.17	26.313
522.51	26.616
522.85	26.963
523.19	27.387
523.53	27.858
523.87	28.388
524.21	28.904
524.55	29.369
524.89	29.789
525.23	30.190
525.57	30.542
525.91	30.843
526.25	31.096
526.58	31.336
526.92	31.527
527.26	31.673
527.60	31.758
527.94	31.800
528.28	31.798
528.62	31.757
528.96	31.695
529.30	31.599
529.64	31.494
529.97	31.387
530.31	31.259
530.65	31.143
530.99	31.042
531.33	30.972
531.67	30.900
532.01	30.863
532.35	30.843
532.68	30.801
533.02	30.756
533.36	30.717
533.70	30.654
534.04	30.581
534.38	30.518
534.71	30.460
535.05	30.392
535.39	30.346
535.73	30.325
536.07	30.292
536.41	30.346
536.74	30.463
537.08	30.592
537.42	30.763
537.76	30.953
538.10	31.165
538.43	31.367
538.77	31.554
539.11	31.745
539.45	31.905
539.79	32.060
540.12	32.201
540.46	32.285
540.80	32.345
541.14	32.374
541.47	32.350
541.81	32.280
542.15	32.185
542.49	32.097
542.82	31.988
543.16	31.849
543.50	31.706
543.84	31.537
544.17	31.439
544.51	31.354
544.85	31.301
545.18	31.257
545.52	31.207
545.86	31.186
546.20	31.116
546.53	31.019
546.87	30.976
547.21	30.941
547.54	30.884
547.88	30.826
548.22	30.776
548.55	30.740
548.89	30.750
549.23	30.822
549.56	30.834
549.90	30.898
550.24	30.945
550.57	31.010
550.91	31.079
551.25	31.186
551.58	31.243
551.92	31.295
552.26	31.353
552.59	31.388
552.93	31.334
553.27	31.378
553.60	31.416
553.94	31.476
554.27	31.493
554.61	31.547
554.95	31.574
555.28	31.589
555.62	31.640
555.95	31.680
556.29	31.785
556.63	31.898
556.96	31.928
557.30	31.936
557.63	31.943
557.97	32.001
558.31	32.019
558.64	32.060
558.98	32.082
559.31	32.108
559.65	32.161
559.98	32.178
560.32	32.195
560.65	32.253
560.99	32.344
561.33	32.451
561.66	32.509
562.00	32.604
562.33	32.645
562.67	32.743
563.00	32.818
563.34	32.867
563.67	32.910
564.01	33.030
564.34	33.075
564.68	33.138
565.01	33.166
565.35	33.183
565.68	33.200
566.02	33.243
566.35	33.238
566.69	33.258
567.02	33.237
567.36	33.223
567.69	33.189
568.03	33.182
568.36	33.163
568.69	33.134
569.03	33.142
569.36	33.152
569.70	33.147
570.03	33.190
570.37	33.181
570.70	33.153
571.04	33.156
571.37	33.125
571.70	33.138
572.04	33.114
572.37	33.102
572.71	33.068
573.04	33.031
573.37	33.011
573.71	32.932
574.04	32.868
574.38	32.863
574.71	32.809
575.04	32.748
575.38	32.686
575.71	32.616
576.05	32.539
576.38	32.451
576.71	32.354
577.05	32.250
577.38	32.162
577.71	32.082
578.05	31.991
578.38	31.894
578.71	31.792
579.05	31.670
579.38	31.587
579.71	31.566
580.05	31.519
580.38	31.453
580.71	31.385
581.05	31.345
581.38	31.324
581.71	31.301
582.05	31.254
582.38	31.265
582.71	31.304
583.04	31.274
583.38	31.259
583.71	31.275
584.04	31.323
584.38	31.306
584.71	31.317
585.04	31.327
585.37	31.333
585.71	31.433
586.04	31.501
586.37	31.551
586.70	31.678
587.04	31.703
587.37	31.740
587.70	31.767
588.03	31.822
588.37	31.888
588.70	31.920
589.03	31.951
589.36	31.884
589.69	31.866
590.03	31.793
590.36	31.686
590.69	31.657
591.02	31.605
591.35	31.569
591.69	31.537
592.02	31.508
592.35	31.476
592.68	31.449
593.01	31.483
593.35	31.492
593.68	31.527
594.01	31.564
594.34	31.590
594.67	31.605
595.00	31.632
595.34	31.686
595.67	31.669
596.00	31.674
596.33	31.722
596.66	31.676
596.99	31.598
597.32	31.532
597.65	31.506
597.99	31.387
598.32	31.303
598.65	31.173
598.98	31.043
599.31	30.972
599.64	30.910
599.97	30.837
600.30	30.858
600.63	30.884
600.96	30.927
601.30	30.924
601.63	30.942
601.96	30.998
602.29	31.032
602.62	31.051
602.95	31.095
603.28	31.095
603.61	31.047
603.94	30.982
604.27	30.907
604.60	30.810
604.93	30.746
605.26	30.704
605.59	30.603
605.92	30.509
606.25	30.459
606.58	30.321
606.91	30.260
607.24	30.216
607.57	30.177
607.90	30.090
608.23	30.041
608.56	29.962
608.89	29.877
609.22	29.796
609.55	29.691
609.88	29.542
610.21	29.459
610.54	29.327
610.87	29.197
611.20	29.054
611.53	28.935
611.86	28.772
612.19	28.639
612.52	28.510
612.85	28.392
613.18	28.281
613.51	28.191
613.84	28.082
614.17	28.008
614.49	27.939
614.82	27.878
615.15	27.847
615.48	27.807
615.81	27.710
616.14	27.630
616.47	27.563
616.80	27.542
617.13	27.465
617.46	27.379
617.78	27.266
618.11	27.172
618.44	27.033
618.77	26.936
619.10	26.880
619.43	26.828
619.76	26.776
620.09	26.716
620.41	26.636
620.74	26.611
621.07	26.601
621.40	26.612
621.73	26.610
622.06	26.667
622.38	26.717
622.71	26.756
623.04	26.823
623.37	26.906
623.70	26.911
624.02	26.968
624.35	26.999
624.68	27.086
625.01	27.132
625.34	27.196
625.66	27.235
625.99	27.219
626.32	27.162
626.65	27.147
626.98	27.110
627.30	27.130
627.63	27.102
627.96	27.139
628.29	27.056
628.61	27.050
628.94	26.942
629.27	26.901
629.60	26.825
629.92	26.837
630.25	26.735
630.58	26.729
630.91	26.638
631.23	26.557
631.56	26.471
631.89	26.412
632.21	26.265
632.54	26.220
632.87	26.124
633.19	26.077
633.52	25.934
633.85	25.831
634.18	25.618
634.50	25.496
634.83	25.358
635.16	25.123
635.48	24.995
635.81	24.844
636.14	24.646
636.46	24.477
636.79	24.285
637.11	24.039
637.44	23.900
637.77	23.775
638.09	23.584
638.42	23.410
638.75	23.203
639.07	22.919
639.40	22.661
639.73	22.463
640.05	22.168
640.38	21.976
640.70	21.797
641.03	21.534
641.36	21.301
641.68	21.094
642.01	20.875
642.33	20.766
642.66	20.590
642.98	20.481
643.31	20.271
643.64	20.165
643.96	19.993
644.29	19.859
644.61	19.725
644.94	19.593
645.26	19.485
645.59	19.394
645.91	19.253
646.24	19.149
646.56	19.016
646.89	18.950
647.22	18.827
647.54	18.680
647.87	18.614
648.19	18.475
648.52	18.317
648.84	18.201
649.17	18.071
649.49	17.938
649.82	17.842
650.14	17.794
650.47	17.753
650.79	17.635
651.11	17.611
651.44	17.500
651.76	17.478
652.09	17.484
652.41	17.453
652.74	17.396
653.06	17.433
653.39	17.378
653.71	17.350
654.04	17.294
654.36	17.283
654.68	17.282
655.01	17.211
655.33	17.174
655.66	17.118
655.98	17.065
656.30	17.097
656.63	16.967
656.95	16.878
657.28	16.771
657.60	16.701
657.92	16.581
658.25	16.381
658.57	16.305
658.90	16.107
659.22	15.884
659.54	15.690
659.87	15.407
660.19	15.197
660.51	14.922
660.84	14.608
661.16	14.290
661.48	14.051
661.81	13.864
662.13	13.634
662.45	13.446
662.78	13.297
663.10	13.161
663.42	13.029
663.75	12.870
664.07	12.845
664.39	12.810
664.72	12.719
665.04	12.652
665.36	12.572
665.69	12.502
666.01	12.460
666.33	12.426
666.65	12.319
666.98	12.261
667.30	12.291
667.62	12.261
667.94	12.173
668.27	12.161
668.59	12.132
668.91	12.150
669.23	12.143
669.56	12.153
669.88	12.152
670.20	12.154
670.52	12.215
670.85	12.239
671.17	12.279
671.49	12.384
671.81	12.421
672.13	12.537
672.46	12.663
672.78	12.780
673.10	12.908
673.42	13.036
673.74	13.236
674.07	13.418
674.39	13.623
674.71	13.758
675.03	13.880
675.35	14.191
675.67	14.334
676.00	14.500
676.32	14.725
676.64	14.967
676.96	15.199
677.28	15.387
677.60	15.512
677.92	15.715
678.25	16.017
678.57	16.314
678.89	16.478
679.21	16.862
679.53	17.089
679.85	17.353
680.17	17.658
680.49	18.040
680.81	18.493
681.13	18.959
681.46	19.361
681.78	19.714
682.10	20.184
682.42	20.683
682.74	21.120
683.06	21.751
683.38	22.259
683.70	22.898
684.02	23.384
684.34	23.925
684.66	24.452
684.98	25.081
685.30	25.830
685.62	26.416
685.94	26.972
686.26	27.491
686.58	27.907
686.90	28.546
687.22	28.946
687.54	29.507
687.86	29.937
688.18	30.510
688.50	30.948
688.82	31.378
689.14	31.907
689.46	32.464
689.78	33.066
690.10	33.591
690.42	34.119
690.74	34.798
691.06	35.363
691.38	36.075
691.70	36.641
692.02	37.300
692.34	37.765
692.66	38.348
692.98	38.930
693.30	39.461
693.62	40.164
693.94	40.701
694.26	41.166
694.57	41.631
694.89	42.007
695.21	42.386
695.53	42.737
695.85	43.226
696.17	43.568
696.49	43.920
696.81	44.222
697.13	44.599
697.44	44.940
697.76	45.261
698.08	45.680
698.40	46.092
698.72	46.490
699.04	46.909
699.36	47.355
699.67	47.797
699.99	48.214
700.31	48.776
700.63	49.205
700.95	49.682
701.27	50.097
701.58	50.371
701.90	50.660
702.22	50.997
702.54	51.270
702.86	51.422
703.17	51.699
703.49	51.887
703.81	52.035
704.13	52.178
704.45	52.266
704.76	52.476
705.08	52.718
705.40	52.965
705.72	53.101
706.03	53.293
706.35	53.455
706.67	53.503
706.99	53.829
707.30	53.997
707.62	54.248
707.94	54.589
708.26	54.746
708.57	54.821
708.89	55.023
709.21	55.340
709.53	55.550
709.84	55.751
710.16	55.994
710.48	56.122
710.79	56.270
711.11	56.454
711.43	56.562
711.74	56.911
712.06	57.224
712.38	57.444
712.69	57.603
713.01	57.972
713.33	58.167
713.64	58.531
713.96	58.778
714.28	59.262
714.59	59.605
714.91	59.915
715.23	60.113
715.54	60.432
715.86	60.556
716.17	60.773
716.49	60.913
716.81	61.208
717.12	61.197
717.44	61.406
717.76	61.364
718.07	61.404
718.39	61.400
718.70	61.345
719.02	61.477
719.33	61.562
719.65	61.628
719.97	61.456
720.28	61.505
720.60	61.642
720.91	61.618
721.23	61.635
721.54	61.642
721.86	61.724
722.17	61.938
722.49	61.735
722.81	61.918
723.12	62.107
723.44	62.360
723.75	62.607
724.07	62.538
724.38	62.543
724.70	62.667
725.01	62.770
725.33	62.760
725.64	62.780
725.96	62.959
726.27	62.888
726.59	62.896
726.90	63.001
727.22	62.926
727.53	63.228
727.84	63.388
728.16	63.275
728.47	63.190
728.79	63.395
729.10	63.428
729.42	63.441
729.73	63.523
730.05	63.450
730.36	63.400
730.67	63.305
730.99	63.147
731.30	63.017
731.62	63.273
731.93	63.283
732.24	63.114
732.56	62.994
732.87	62.900
733.19	62.881
733.50	62.879
733.81	62.804
734.13	62.687
734.44	62.740
734.76	62.707
735.07	62.573
735.38	62.575
735.70	62.497
736.01	62.569
736.32	62.538
736.64	62.480
736.95	62.316
737.26	62.126
737.58	62.338
737.89	62.245
738.20	62.152
738.52	62.095
738.83	61.915
739.14	61.925
739.45	61.801
739.77	61.816
740.08	61.701
740.39	61.733
740.71	61.948
741.02	61.703
741.33	61.550
741.64	61.442
741.96	61.297
742.27	61.405
742.58	61.249
742.90	61.277
743.21	61.338
743.52	61.110
743.83	61.269
744.14	61.081
744.46	61.054
744.77	61.087
745.08	61.312
745.39	61.147
745.71	60.890
746.02	60.862
746.33	60.643
746.64	60.440
746.95	60.435
747.27	60.137
747.58	60.102
747.89	60.316
748.20	60.094
748.51	59.865
748.82	59.856
749.14	59.878
749.45	59.926
749.76	59.926
750.07	59.958
750.38	60.041
750.69	59.954
751.01	59.849
751.32	59.757
751.63	59.838
751.94	59.994
752.25	60.238
752.56	60.303
752.87	60.044
753.18	60.054
753.49	60.065
753.81	60.123
754.12	60.190
754.43	60.392
754.74	60.261
755.05	60.525
755.36	60.575
755.67	60.671
755.98	60.856
756.29	61.434
756.60	61.756
756.91	62.186
757.22	62.687
757.53	63.120
757.84	63.617
758.15	64.043
758.46	64.347
758.77	64.653
759.09	64.682
759.40	64.945
759.71	65.126
760.02	65.145
760.33	65.145
760.64	65.171
760.95	65.220
761.26	65.009
761.57	64.883
761.88	64.814
762.18	64.674
762.49	64.701
762.80	64.482
763.11	64.292
763.42	64.246
763.73	64.034
764.04	63.634
764.35	63.206
764.66	62.824
764.97	62.554
765.28	62.019
765.59	61.461
765.90	60.987
766.21	60.551
766.52	59.901
766.83	59.178
767.14	58.616
767.44	58.130
767.75	57.625
768.06	57.255
768.37	56.810
768.68	56.334
768.99	56.290
769.30	55.853
769.61	55.522
769.91	55.360
770.22	55.173
770.53	54.871
770.84	54.762
771.15	54.983
771.46	54.945
771.77	54.643
772.07	54.867
772.38	54.476
772.69	54.407
773.00	54.624
773.31	54.444
773.61	54.275
773.92	54.385
774.23	53.892
774.54	53.682
774.85	53.634
775.15	53.792
775.46	53.585
775.77	53.892
776.08	53.765
776.39	53.526
776.69	53.812
777.00	54.003
777.31	53.848
777.62	53.975
777.92	53.988
778.23	53.775
778.54	53.510
778.85	53.634
779.15	53.484
779.46	53.710
779.77	53.613
780.07	53.215
780.38	53.096
780.69	52.943
781.00	53.228
781.30	53.139
781.61	53.181
781.92	53.106
782.22	53.222
782.53	53.118
782.84	52.906
783.14	53.246
783.45	53.427
783.76	53.294
784.06	53.856
784.37	53.966
784.68	54.206
784.98	54.628
785.29	54.883
785.60	54.932
785.90	55.461
786.21	55.802
786.51	55.977
786.82	56.146
787.13	56.649
787.43	56.360
787.74	56.475
788.04	56.396
788.35	56.398
788.66	56.647
788.96	56.745
789.27	56.592
789.57	56.699
789.88	56.281
790.19	56.700
790.49	56.275
790.80	56.542
791.10	56.380
791.41	56.350
791.71	56.432
792.02	56.342
792.32	56.011
792.63	55.988
792.93	55.558
793.24	55.676
793.54	55.143
793.85	55.313
794.15	55.079
794.46	55.461
794.76	55.698
795.07	55.786
795.37	56.001
795.68	56.110
795.98	55.987
796.29	56.332
796.59	56.719
796.90	56.842
797.20	56.936
797.51	57.464
797.81	57.159
798.12	57.054
798.42	56.771
798.72	56.920
799.03	57.255
799.33	57.213
799.64	56.878
799.94	56.695
800.25	56.861
800.55	56.460
800.85	56.100
801.16	56.234
801.46	56.626
801.77	56.430
802.07	55.945
802.37	55.399
802.68	55.833
802.98	56.223
803.28	55.936
803.59	55.868
803.89	56.562
804.20	56.495
804.50	56.603
804.80	56.074
805.11	56.553
805.41	57.000
805.71	57.517
806.02	57.118
806.32	56.887
806.62	57.577
806.93	57.223
807.23	57.084
807.53	57.090
807.83	57.076
808.14	57.244
808.44	57.072
808.74	56.940
809.05	56.600
809.35	57.147
809.65	57.052
809.95	56.953
810.26	57.577
810.56	57.558
810.86	58.042
811.16	58.294
811.47	58.601
811.77	58.854
812.07	58.731
812.37	59.154
812.68	58.989
812.98	59.284
813.28	59.137
813.58	59.005
813.88	59.029
814.19	58.812
814.49	58.908
814.79	58.830
815.09	59.137
815.39	59.506
815.70	59.521
816.00	59.692
816.30	60.166
816.60	60.104
816.90	60.703
817.20	61.268
817.50	61.424
817.81	61.418
818.11	61.848
818.41	61.936
818.71	62.251
819.01	62.765
819.31	63.090
819.61	63.329
819.92	63.649
820.22	63.828
820.52	63.943
820.82	64.319
821.12	64.769
821.42	65.013
821.72	65.410
822.02	65.731
822.32	66.060
822.62	66.366
822.92	66.633
823.22	66.893
823.52	67.042
823.83	67.266
824.13	67.278
824.43	67.177
824.73	67.301
825.03	67.186
825.33	66.942
825.63	66.426
825.93	66.145
826.23	66.041
826.53	66.042
826.83	66.040
827.13	66.006
827.43	65.995
827.73	66.097
828.03	65.962
828.33	65.934
828.63	66.129
828.93	66.291
829.23	66.170
829.53	65.692
829.83	64.760
830.13	64.487
830.42	64.127
830.72	64.065
831.02	63.679
831.32	63.426
831.62	63.136
831.92	63.063
832.22	62.889
832.52	62.904
832.82	63.155
833.12	63.457
833.42	63.568
833.72	63.790
834.01	63.808
834.31	63.955
834.61	63.980
834.91	64.104
835.21	64.163
835.51	64.647
835.81	64.452
836.11	63.732
836.40	63.479
836.70	62.900
837.00	62.286
837.30	62.151
837.60	61.517
837.90	61.378
838.19	60.835
838.49	60.318
838.79	59.267
839.09	59.755
839.39	60.138
839.68	60.187
839.98	60.299
840.28	60.168
840.58	59.749
840.88	59.266
841.17	58.453
841.47	58.251
841.77	58.455
842.07	57.899
842.36	56.439
842.66	55.483
842.96	54.361
843.26	53.881
843.55	53.480
843.85	51.857
844.15	52.990
844.45	53.150
844.74	51.377
845.04	49.082
845.34	50.376
845.63	51.373
845.93	52.077
846.23	51.849
846.53	50.481
846.82	51.035
847.12	51.890
847.42	50.272
847.71	50.699
848.01	52.603
848.31	52.495
848.60	52.809
848.90	52.235
849.19	51.371
849.49	51.246
849.79	51.240
850.08	49.991
850.38	50.255
850.68	50.384
850.97	49.865
851.27	49.590
851.56	52.048
851.86	50.807
852.16	50.606
852.45	50.599
852.75	49.111
853.04	49.579
853.34	49.793
853.64	49.745
853.93	49.372
854.23	49.781
854.52	49.322
854.82	46.534
855.11	46.772
855.41	46.792
855.70	47.632
856.00	49.739
856.30	49.636
856.59	48.471
856.89	47.460
857.18	48.929
857.48	49.039
857.77	50.709
858.07	51.983
858.36	51.436
858.66	51.187
858.95	51.637
859.25	52.481
859.54	52.390
859.84	53.924
860.13	55.170
860.42	55.308
860.72	55.675
861.01	54.792
861.31	54.648
861.60	54.656
861.90	55.079
862.19	53.147
862.49	51.956
862.78	51.733
863.07	51.754
863.37	52.676
863.66	52.755
863.96	52.700
864.25	52.762
864.54	52.562
864.84	52.608
865.13	52.312
865.43	54.249
865.72	53.800
866.01	49.774
866.31	49.388
866.60	50.432
866.89	59.116
>>>>>End Spectral Data<<<<<
