OOIBase32 Version 2.0.0.6 Data File
++++++++++++++++++++++++++++++++++++
Date: 01-24-2012, 17:46:32
User: Valued Ocean Optics Customer
Spectrometer Serial Number: USB2E2917
Spectrometer Channel: Master
Integration Time (msec): 7
Spectra Averaged: 10
Boxcar Smoothing: 5
Correct for Electrical Dark: Enabled
Time Normalized: Disabled
Dual-beam Reference: Disabled
Reference Channel: Master
Temperature: Not acquired
Spectrometer Type: S2000
ADC Type: USB2000
Number of Pixels in File: 2048
Graph Title: 
>>>>>Begin Spectral Data<<<<<
180.30	0.000
180.67	0.000
181.03	20.083
181.40	428542.857
181.77	-217.450
182.14	-337.139
182.51	129.742
182.88	169.705
183.25	33.996
183.62	-208.698
183.99	97.117
184.36	8.130
184.73	23.936
185.10	43.005
185.46	-117.477
185.83	-712.217
186.20	291.773
186.57	81.846
186.94	49.496
187.31	119.247
187.68	-124.789
188.05	169.365
188.42	114.914
188.78	63.993
189.15	46.963
189.52	70.508
189.89	49.269
190.26	39.900
190.63	27.816
191.00	29.358
191.37	8.120
191.73	2.080
192.10	-10.658
192.47	18.462
192.84	20.311
193.21	11.806
193.58	-0.542
193.94	-13.576
194.31	9.131
194.68	3.513
195.05	-15.384
195.42	-7.122
195.79	-8.041
196.15	-2.918
196.52	-17.552
196.89	-30.557
197.26	-21.477
197.63	-26.641
198.00	-18.244
198.36	-34.605
198.73	-28.145
199.10	-44.898
199.47	-17.629
199.84	-9.060
200.20	-3.453
200.57	-20.166
200.94	4.095
201.31	15.278
201.68	13.277
202.04	30.331
202.41	30.981
202.78	25.903
203.15	39.184
203.51	43.413
203.88	45.122
204.25	34.091
204.62	35.946
204.98	26.914
205.35	33.635
205.72	22.622
206.09	11.553
206.46	8.682
206.82	-9.541
207.19	-13.158
207.56	-25.428
207.92	-17.553
208.29	-39.689
208.66	-28.627
209.03	-6.838
209.39	-13.965
209.76	-2.023
210.13	-4.770
210.50	6.433
210.86	27.610
211.23	28.839
211.60	19.788
211.96	14.632
212.33	19.659
212.70	25.791
213.07	21.302
213.43	13.679
213.80	8.999
214.17	14.187
214.53	4.876
214.90	-11.270
215.27	-13.140
215.63	2.714
216.00	-12.658
216.37	-1.946
216.74	-15.697
217.10	-30.179
217.47	-24.323
217.84	-46.488
218.20	-61.357
218.57	-72.229
218.94	-49.884
219.30	-46.979
219.67	-38.016
220.04	-27.692
220.40	-36.686
220.77	-29.342
221.13	-24.298
221.50	-26.950
221.87	-16.408
222.23	-19.926
222.60	-6.782
222.97	-4.085
223.33	0.131
223.70	-2.894
224.07	-5.740
224.43	1.004
224.80	-1.494
225.16	4.239
225.53	3.968
225.90	1.722
226.26	1.807
226.63	-2.923
226.99	-1.009
227.36	-1.828
227.73	-4.496
228.09	-6.578
228.46	-8.595
228.82	-6.335
229.19	-9.344
229.56	-10.776
229.92	-9.011
230.29	-8.343
230.65	-5.167
231.02	-7.188
231.38	-8.031
231.75	-7.316
232.12	-4.378
232.48	-2.313
232.85	-3.380
233.21	-2.615
233.58	0.551
233.94	-0.439
234.31	-2.712
234.68	-2.922
235.04	-0.926
235.41	-0.184
235.77	3.203
236.14	4.074
236.50	5.383
236.87	4.558
237.23	5.029
237.60	2.160
237.96	1.715
238.33	2.493
238.69	2.269
239.06	1.846
239.42	2.417
239.79	0.886
240.15	0.632
240.52	0.464
240.88	0.391
241.25	-0.062
241.61	1.207
241.98	1.770
242.34	2.158
242.71	2.249
243.07	1.939
243.44	1.917
243.80	2.065
244.17	1.615
244.53	1.058
244.90	0.877
245.26	1.175
245.63	0.879
245.99	0.783
246.36	0.357
246.72	0.240
247.09	0.287
247.45	-0.034
247.81	0.074
248.18	0.583
248.54	0.572
248.91	0.525
249.27	0.221
249.64	0.499
250.00	-0.329
250.36	0.247
250.73	0.562
251.09	-0.145
251.46	-0.270
251.82	0.174
252.19	-0.622
252.55	-0.467
252.91	-0.193
253.28	0.853
253.64	1.364
254.01	2.241
254.37	1.982
254.73	1.585
255.10	2.534
255.46	2.550
255.83	1.935
256.19	2.204
256.55	1.996
256.92	2.056
257.28	1.830
257.65	1.391
258.01	1.275
258.37	1.019
258.74	0.956
259.10	0.770
259.46	0.610
259.83	0.784
260.19	0.875
260.55	0.944
260.92	0.846
261.28	0.351
261.64	0.323
262.01	0.415
262.37	0.924
262.73	1.489
263.10	1.388
263.46	1.114
263.82	0.964
264.19	1.296
264.55	1.379
264.91	1.783
265.28	2.047
265.64	1.965
266.00	1.623
266.37	1.536
266.73	1.390
267.09	1.133
267.46	1.861
267.82	1.868
268.18	1.611
268.54	1.289
268.91	0.642
269.27	0.467
269.63	0.820
270.00	1.217
270.36	1.377
270.72	0.793
271.08	1.110
271.45	1.051
271.81	0.684
272.17	0.376
272.53	0.689
272.90	0.957
273.26	1.036
273.62	1.005
273.98	0.538
274.35	0.341
274.71	0.524
275.07	0.218
275.43	0.024
275.80	0.529
276.16	0.367
276.52	0.251
276.88	0.056
277.25	0.183
277.61	-0.025
277.97	0.178
278.33	0.115
278.69	0.354
279.06	0.363
279.42	0.385
279.78	0.122
280.14	0.397
280.50	0.443
280.87	0.929
281.23	0.811
281.59	0.908
281.95	0.836
282.31	0.891
282.68	0.676
283.04	0.933
283.40	0.794
283.76	0.829
284.12	0.951
284.48	0.959
284.85	0.771
285.21	0.739
285.57	0.598
285.93	0.903
286.29	0.938
286.65	1.109
287.02	0.931
287.38	1.174
287.74	1.250
288.10	1.179
288.46	1.137
288.82	1.178
289.18	1.367
289.54	1.491
289.91	1.211
290.27	1.044
290.63	0.803
290.99	0.926
291.35	0.803
291.71	0.740
292.07	0.666
292.43	0.563
292.79	0.544
293.16	0.387
293.52	0.250
293.88	0.427
294.24	0.386
294.60	0.613
294.96	0.315
295.32	0.388
295.68	0.355
296.04	0.216
296.40	0.234
296.76	0.136
297.12	0.138
297.49	0.228
297.85	0.232
298.21	0.427
298.57	0.407
298.93	0.811
299.29	0.691
299.65	0.678
300.01	0.952
300.37	1.071
300.73	1.203
301.09	1.155
301.45	1.158
301.81	0.934
302.17	0.871
302.53	0.738
302.89	0.622
303.25	0.711
303.61	0.832
303.97	0.565
304.33	0.387
304.69	0.337
305.05	0.280
305.41	0.313
305.77	0.327
306.13	0.329
306.49	0.272
306.85	0.247
307.21	0.248
307.57	0.113
307.93	0.264
308.29	0.286
308.65	0.134
309.01	0.081
309.37	0.017
309.73	-0.005
310.09	-0.128
310.45	-0.032
310.81	-0.059
311.17	-0.103
311.53	-0.132
311.89	-0.331
312.25	-0.424
312.61	-0.626
312.96	-0.679
313.32	-0.859
313.68	-1.026
314.04	-1.032
314.40	-1.287
314.76	-1.359
315.12	-1.536
315.48	-1.796
315.84	-1.846
316.20	-1.816
316.56	-1.694
316.92	-1.698
317.27	-1.721
317.63	-1.615
317.99	-1.701
318.35	-1.453
318.71	-1.647
319.07	-1.646
319.43	-1.626
319.79	-1.582
320.15	-1.802
320.50	-1.909
320.86	-2.073
321.22	-2.185
321.58	-2.342
321.94	-2.382
322.30	-2.570
322.66	-2.396
323.01	-2.569
323.37	-2.533
323.73	-2.669
324.09	-2.571
324.45	-2.776
324.81	-2.695
325.17	-2.723
325.52	-2.702
325.88	-3.025
326.24	-3.208
326.60	-3.550
326.96	-3.676
327.31	-3.924
327.67	-3.897
328.03	-4.133
328.39	-4.073
328.75	-4.198
329.11	-4.246
329.46	-4.301
329.82	-3.976
330.18	-4.007
330.54	-3.927
330.90	-3.806
331.25	-3.551
331.61	-3.456
331.97	-3.405
332.33	-3.363
332.68	-3.256
333.04	-3.256
333.40	-3.178
333.76	-3.238
334.11	-3.150
334.47	-3.119
334.83	-3.129
335.19	-3.162
335.54	-3.212
335.90	-3.115
336.26	-3.104
336.62	-3.267
336.97	-3.398
337.33	-3.533
337.69	-3.614
338.05	-3.587
338.40	-3.629
338.76	-3.730
339.12	-3.802
339.48	-3.912
339.83	-3.935
340.19	-3.941
340.55	-3.829
340.90	-3.753
341.26	-3.582
341.62	-3.517
341.97	-3.571
342.33	-3.563
342.69	-3.417
343.04	-3.429
343.40	-3.375
343.76	-3.393
344.12	-3.333
344.47	-3.311
344.83	-3.281
345.19	-3.437
345.54	-3.526
345.90	-3.584
346.26	-3.589
346.61	-3.692
346.97	-3.707
347.32	-3.818
347.68	-3.879
348.04	-4.070
348.39	-4.134
348.75	-4.197
349.11	-4.267
349.46	-4.265
349.82	-4.166
350.18	-4.147
350.53	-4.154
350.89	-4.216
351.24	-4.079
351.60	-4.084
351.96	-3.955
352.31	-3.933
352.67	-3.829
353.02	-3.798
353.38	-3.727
353.74	-3.699
354.09	-3.650
354.45	-3.623
354.80	-3.447
355.16	-3.508
355.52	-3.340
355.87	-3.275
356.23	-3.283
356.58	-3.276
356.94	-3.245
357.29	-3.171
357.65	-3.086
358.00	-3.056
358.36	-2.993
358.72	-3.029
359.07	-3.024
359.43	-3.045
359.78	-3.047
360.14	-3.081
360.49	-3.118
360.85	-3.116
361.20	-3.268
361.56	-3.402
361.91	-3.499
362.27	-3.573
362.62	-3.567
362.98	-3.643
363.33	-3.701
363.69	-3.773
364.04	-3.748
364.40	-3.820
364.75	-3.794
365.11	-3.748
365.46	-3.681
365.82	-3.708
366.17	-3.729
366.53	-3.781
366.88	-3.711
367.24	-3.668
367.59	-3.599
367.95	-3.534
368.30	-3.380
368.66	-3.328
369.01	-3.206
369.37	-3.118
369.72	-2.944
370.08	-2.734
370.43	-2.557
370.78	-2.404
371.14	-2.250
371.49	-2.132
371.85	-2.024
372.20	-1.943
372.56	-1.925
372.91	-1.961
373.26	-2.013
373.62	-2.067
373.97	-2.180
374.33	-2.209
374.68	-2.206
375.03	-2.197
375.39	-2.176
375.74	-2.218
376.10	-2.142
376.45	-1.965
376.80	-1.843
377.16	-1.593
377.51	-1.358
377.87	-1.115
378.22	-0.894
378.57	-0.719
378.93	-0.525
379.28	-0.285
379.63	0.040
379.99	0.265
380.34	0.474
380.70	0.769
381.05	0.933
381.40	1.087
381.76	1.199
382.11	1.296
382.46	1.467
382.82	1.538
383.17	1.558
383.52	1.593
383.88	1.656
384.23	1.672
384.58	1.626
384.94	1.600
385.29	1.593
385.64	1.666
385.99	1.721
386.35	1.751
386.70	1.799
387.05	1.871
387.41	1.943
387.76	2.046
388.11	2.159
388.47	2.362
388.82	2.510
389.17	2.718
389.52	2.894
389.88	3.097
390.23	3.271
390.58	3.543
390.93	3.803
391.29	4.007
391.64	4.121
391.99	4.289
392.34	4.392
392.70	4.482
393.05	4.542
393.40	4.565
393.75	4.533
394.11	4.519
394.46	4.411
394.81	4.309
395.16	4.247
395.52	4.181
395.87	4.008
396.22	3.813
396.57	3.671
396.92	3.441
397.28	3.313
397.63	3.184
397.98	3.044
398.33	2.899
398.68	2.843
399.04	2.777
399.39	2.725
399.74	2.835
400.09	2.970
400.44	3.048
400.80	3.229
401.15	3.326
401.50	3.481
401.85	3.660
402.20	3.841
402.55	3.937
402.90	4.019
403.26	4.112
403.61	4.099
403.96	4.100
404.31	4.162
404.66	4.159
405.01	4.172
405.36	4.104
405.72	4.049
406.07	4.035
406.42	4.009
406.77	4.018
407.12	4.010
407.47	4.031
407.82	3.998
408.17	3.949
408.53	3.922
408.88	3.887
409.23	3.909
409.58	3.871
409.93	3.811
410.28	3.770
410.63	3.704
410.98	3.693
411.33	3.701
411.68	3.782
412.03	3.869
412.38	3.989
412.73	4.169
413.09	4.327
413.44	4.535
413.79	4.762
414.14	5.055
414.49	5.306
414.84	5.532
415.19	5.790
415.54	6.019
415.89	6.251
416.24	6.452
416.59	6.647
416.94	6.817
417.29	6.956
417.64	7.096
417.99	7.172
418.34	7.270
418.69	7.374
419.04	7.423
419.39	7.471
419.74	7.539
420.09	7.578
420.44	7.594
420.79	7.601
421.14	7.592
421.49	7.559
421.84	7.544
422.19	7.500
422.54	7.427
422.89	7.352
423.24	7.257
423.59	7.129
423.94	6.979
424.29	6.808
424.64	6.658
424.99	6.499
425.34	6.370
425.68	6.214
426.03	6.079
426.38	5.951
426.73	5.827
427.08	5.757
427.43	5.701
427.78	5.726
428.13	5.739
428.48	5.778
428.83	5.820
429.18	5.839
429.53	5.852
429.87	5.828
430.22	5.840
430.57	5.839
430.92	5.815
431.27	5.742
431.62	5.651
431.97	5.582
432.32	5.473
432.67	5.385
433.01	5.285
433.36	5.182
433.71	5.113
434.06	5.045
434.41	5.029
434.76	5.018
435.11	5.092
435.45	5.198
435.80	5.294
436.15	5.377
436.50	5.467
436.85	5.565
437.20	5.653
437.54	5.727
437.89	5.780
438.24	5.813
438.59	5.822
438.94	5.775
439.29	5.697
439.63	5.616
439.98	5.576
440.33	5.547
440.68	5.520
441.03	5.546
441.37	5.610
441.72	5.698
442.07	5.807
442.42	5.954
442.76	6.126
443.11	6.277
443.46	6.439
443.81	6.582
444.16	6.690
444.50	6.773
444.85	6.808
445.20	6.787
445.55	6.733
445.89	6.641
446.24	6.527
446.59	6.356
446.94	6.226
447.28	6.043
447.63	5.852
447.98	5.678
448.32	5.514
448.67	5.382
449.02	5.307
449.37	5.246
449.71	5.258
450.06	5.287
450.41	5.368
450.75	5.399
451.10	5.481
451.45	5.520
451.79	5.535
452.14	5.572
452.49	5.559
452.84	5.541
453.18	5.535
453.53	5.537
453.88	5.557
454.22	5.608
454.57	5.727
454.92	5.836
455.26	5.993
455.61	6.167
455.95	6.364
456.30	6.540
456.65	6.737
456.99	6.910
457.34	7.060
457.69	7.157
458.03	7.218
458.38	7.213
458.73	7.168
459.07	7.098
459.42	6.991
459.76	6.805
460.11	6.639
460.46	6.425
460.80	6.192
461.15	5.938
461.49	5.738
461.84	5.541
462.19	5.404
462.53	5.338
462.88	5.293
463.22	5.293
463.57	5.328
463.91	5.373
464.26	5.427
464.61	5.506
464.95	5.549
465.30	5.577
465.64	5.602
465.99	5.560
466.33	5.515
466.68	5.437
467.02	5.371
467.37	5.277
467.71	5.201
468.06	5.108
468.41	5.003
468.75	4.921
469.10	4.775
469.44	4.637
469.79	4.578
470.13	4.489
470.48	4.414
470.82	4.320
471.17	4.251
471.51	4.154
471.86	4.100
472.20	3.994
472.55	3.905
472.89	3.852
473.23	3.796
473.58	3.730
473.92	3.696
474.27	3.696
474.61	3.672
474.96	3.679
475.30	3.657
475.65	3.653
475.99	3.694
476.34	3.715
476.68	3.767
477.02	3.857
477.37	3.973
477.71	4.119
478.06	4.355
478.40	4.772
478.75	5.341
479.09	5.932
479.43	6.503
479.78	7.035
480.12	7.541
480.47	7.998
480.81	8.385
481.15	8.755
481.50	9.095
481.84	9.421
482.19	9.696
482.53	9.875
482.87	9.961
483.22	9.905
483.56	9.754
483.90	9.559
484.25	9.384
484.59	9.225
484.94	9.028
485.28	8.800
485.62	8.523
485.97	8.237
486.31	7.974
486.65	7.788
487.00	7.704
487.34	7.693
487.68	7.693
488.03	7.627
488.37	7.539
488.71	7.463
489.06	7.389
489.40	7.310
489.74	7.219
490.09	7.111
490.43	6.971
490.77	6.792
491.11	6.592
491.46	6.397
491.80	6.178
492.14	5.959
492.49	5.707
492.83	5.446
493.17	5.192
493.51	4.967
493.86	4.774
494.20	4.617
494.54	4.557
494.88	4.559
495.23	4.586
495.57	4.657
495.91	4.693
496.25	4.719
496.60	4.771
496.94	4.776
497.28	4.763
497.62	4.729
497.97	4.686
498.31	4.647
498.65	4.596
498.99	4.541
499.33	4.493
499.68	4.482
500.02	4.464
500.36	4.435
500.70	4.434
501.04	4.423
501.39	4.456
501.73	4.507
502.07	4.538
502.41	4.600
502.75	4.637
503.09	4.699
503.44	4.765
503.78	4.849
504.12	4.929
504.46	5.035
504.80	5.124
505.14	5.223
505.49	5.333
505.83	5.455
506.17	5.520
506.51	5.629
506.85	5.705
507.19	5.755
507.53	5.859
507.87	5.918
508.22	5.941
508.56	5.969
508.90	5.961
509.24	5.954
509.58	5.921
509.92	5.931
510.26	5.903
510.60	5.875
510.94	5.845
511.28	5.785
511.63	5.781
511.97	5.792
512.31	5.831
512.65	5.900
512.99	5.971
513.33	6.110
513.67	6.264
514.01	6.424
514.35	6.612
514.69	6.816
515.03	7.017
515.37	7.193
515.71	7.351
516.05	7.483
516.39	7.584
516.73	7.652
517.07	7.682
517.41	7.663
517.75	7.608
518.09	7.520
518.43	7.398
518.77	7.244
519.11	7.083
519.45	6.911
519.79	6.742
520.13	6.627
520.47	6.523
520.81	6.484
521.15	6.500
521.49	6.545
521.83	6.688
522.17	6.852
522.51	7.051
522.85	7.329
523.19	7.699
523.53	8.129
523.87	8.548
524.21	8.981
524.55	9.346
524.89	9.665
525.23	9.973
525.57	10.205
525.91	10.426
526.25	10.614
526.58	10.765
526.92	10.860
527.26	10.923
527.60	10.917
527.94	10.870
528.28	10.797
528.62	10.711
528.96	10.594
529.30	10.484
529.64	10.357
529.97	10.210
530.31	10.038
530.65	9.897
530.99	9.756
531.33	9.667
531.67	9.623
532.01	9.567
532.35	9.489
532.68	9.429
533.02	9.333
533.36	9.216
533.70	9.104
534.04	9.028
534.38	8.900
534.71	8.784
535.05	8.671
535.39	8.533
535.73	8.449
536.07	8.451
536.41	8.507
536.74	8.656
537.08	8.832
537.42	9.051
537.76	9.257
538.10	9.510
538.43	9.736
538.77	9.952
539.11	10.132
539.45	10.301
539.79	10.427
540.12	10.519
540.46	10.546
540.80	10.554
541.14	10.517
541.47	10.440
541.81	10.338
542.15	10.205
542.49	10.058
542.82	9.913
543.16	9.754
543.50	9.594
543.84	9.410
544.17	9.290
544.51	9.181
544.85	9.111
545.18	9.032
545.52	8.956
545.86	8.881
546.20	8.761
546.53	8.635
546.87	8.517
547.21	8.404
547.54	8.333
547.88	8.220
548.22	8.188
548.55	8.138
548.89	8.149
549.23	8.130
549.56	8.176
549.90	8.284
550.24	8.367
550.57	8.450
550.91	8.531
551.25	8.619
551.58	8.708
551.92	8.739
552.26	8.782
552.59	8.811
552.93	8.852
553.27	8.863
553.60	8.869
553.94	8.947
554.27	9.002
554.61	9.069
554.95	9.119
555.28	9.206
555.62	9.326
555.95	9.433
556.29	9.562
556.63	9.739
556.96	9.879
557.30	10.006
557.63	10.136
557.97	10.255
558.31	10.427
558.64	10.581
558.98	10.691
559.31	10.806
559.65	10.963
559.98	11.119
560.32	11.225
560.65	11.384
560.99	11.581
561.33	11.776
561.66	12.012
562.00	12.185
562.33	12.385
562.67	12.611
563.00	12.838
563.34	13.059
563.67	13.281
564.01	13.532
564.34	13.718
564.68	13.914
565.01	14.089
565.35	14.232
565.68	14.380
566.02	14.552
566.35	14.715
566.69	14.865
567.02	15.009
567.36	15.160
567.69	15.342
568.03	15.552
568.36	15.742
568.69	15.895
569.03	16.077
569.36	16.255
569.70	16.428
570.03	16.597
570.37	16.776
570.70	16.956
571.04	17.134
571.37	17.246
571.70	17.363
572.04	17.486
572.37	17.627
572.71	17.749
573.04	17.920
573.37	18.039
573.71	18.165
574.04	18.288
574.38	18.405
574.71	18.504
575.04	18.591
575.38	18.707
575.71	18.803
576.05	18.878
576.38	18.974
576.71	19.063
577.05	19.138
577.38	19.238
577.71	19.303
578.05	19.355
578.38	19.425
578.71	19.567
579.05	19.661
579.38	19.781
579.71	19.954
580.05	20.117
580.38	20.226
580.71	20.419
581.05	20.570
581.38	20.747
581.71	20.913
582.05	21.090
582.38	21.237
582.71	21.405
583.04	21.572
583.38	21.737
583.71	21.888
584.04	22.089
584.38	22.248
584.71	22.435
585.04	22.651
585.37	22.883
585.71	23.127
586.04	23.329
586.37	23.597
586.70	23.834
587.04	24.023
587.37	24.215
587.70	24.431
588.03	24.585
588.37	24.776
588.70	24.941
589.03	25.037
589.36	25.131
589.69	25.284
590.03	25.360
590.36	25.403
590.69	25.504
591.02	25.635
591.35	25.690
591.69	25.831
592.02	25.936
592.35	26.009
592.68	26.148
593.01	26.298
593.35	26.425
593.68	26.563
594.01	26.717
594.34	26.855
594.67	26.961
595.00	27.103
595.34	27.207
595.67	27.357
596.00	27.449
596.33	27.529
596.66	27.595
596.99	27.613
597.32	27.633
597.65	27.683
597.99	27.665
598.32	27.672
598.65	27.672
598.98	27.718
599.31	27.725
599.64	27.812
599.97	27.892
600.30	27.995
600.63	28.120
600.96	28.253
601.30	28.333
601.63	28.459
601.96	28.569
602.29	28.689
602.62	28.784
602.95	28.814
603.28	28.873
603.61	28.916
603.94	28.887
604.27	28.899
604.60	28.882
604.93	28.899
605.26	28.852
605.59	28.838
605.92	28.748
606.25	28.693
606.58	28.697
606.91	28.685
607.24	28.684
607.57	28.727
607.90	28.680
608.23	28.670
608.56	28.653
608.89	28.663
609.22	28.599
609.55	28.549
609.88	28.512
610.21	28.470
610.54	28.395
610.87	28.300
611.20	28.197
611.53	28.173
611.86	28.085
612.19	28.015
612.52	27.965
612.85	27.956
613.18	27.976
613.51	27.945
613.84	27.882
614.17	27.859
614.49	27.834
614.82	27.790
615.15	27.733
615.48	27.702
615.81	27.654
616.14	27.606
616.47	27.630
616.80	27.587
617.13	27.541
617.46	27.503
617.78	27.453
618.11	27.450
618.44	27.407
618.77	27.390
619.10	27.403
619.43	27.365
619.76	27.328
620.09	27.253
620.41	27.207
620.74	27.220
621.07	27.206
621.40	27.229
621.73	27.243
622.06	27.255
622.38	27.268
622.71	27.247
623.04	27.350
623.37	27.466
623.70	27.513
624.02	27.567
624.35	27.603
624.68	27.671
625.01	27.734
625.34	27.792
625.66	27.865
625.99	27.923
626.32	27.998
626.65	27.988
626.98	27.972
627.30	27.986
627.63	27.977
627.96	27.988
628.29	27.958
628.61	27.912
628.94	27.830
629.27	27.821
629.60	27.753
629.92	27.733
630.25	27.682
630.58	27.674
630.91	27.615
631.23	27.553
631.56	27.453
631.89	27.376
632.21	27.328
632.54	27.263
632.87	27.150
633.19	27.113
633.52	26.939
633.85	26.820
634.18	26.643
634.50	26.508
634.83	26.446
635.16	26.304
635.48	26.189
635.81	26.038
636.14	25.878
636.46	25.720
636.79	25.500
637.11	25.332
637.44	25.207
637.77	25.067
638.09	24.890
638.42	24.738
638.75	24.527
639.07	24.295
639.40	24.018
639.73	23.805
640.05	23.567
640.38	23.391
640.70	23.223
641.03	22.998
641.36	22.784
641.68	22.621
642.01	22.363
642.33	22.281
642.66	22.142
642.98	22.030
643.31	21.930
643.64	21.823
643.96	21.675
644.29	21.542
644.61	21.369
644.94	21.241
645.26	21.089
645.59	21.009
645.91	20.815
646.24	20.737
646.56	20.606
646.89	20.457
647.22	20.367
647.54	20.204
647.87	20.101
648.19	20.004
648.52	19.875
648.84	19.757
649.17	19.595
649.49	19.477
649.82	19.341
650.14	19.297
650.47	19.218
650.79	19.106
651.11	19.098
651.44	18.995
651.76	18.954
652.09	18.915
652.41	18.914
652.74	18.866
653.06	18.847
653.39	18.794
653.71	18.773
654.04	18.761
654.36	18.667
654.68	18.580
655.01	18.480
655.33	18.437
655.66	18.344
655.98	18.232
656.30	18.138
656.63	18.029
656.95	17.930
657.28	17.779
657.60	17.633
657.92	17.527
658.25	17.375
658.57	17.262
658.90	17.012
659.22	16.782
659.54	16.559
659.87	16.300
660.19	16.052
660.51	15.769
660.84	15.402
661.16	15.054
661.48	14.725
661.81	14.383
662.13	14.098
662.45	13.821
662.78	13.574
663.10	13.356
663.42	13.188
663.75	12.976
664.07	12.827
664.39	12.781
664.72	12.677
665.04	12.555
665.36	12.459
665.69	12.270
666.01	12.224
666.33	12.143
666.65	12.032
666.98	11.961
667.30	11.894
667.62	11.756
667.94	11.592
668.27	11.446
668.59	11.309
668.91	11.272
669.23	11.260
669.56	11.180
669.88	11.110
670.20	11.063
670.52	11.003
670.85	10.955
671.17	10.900
671.49	10.872
671.81	10.863
672.13	10.964
672.46	10.970
672.78	10.919
673.10	10.906
673.42	10.841
673.74	10.873
674.07	10.853
674.39	10.922
674.71	10.983
675.03	11.002
675.35	11.141
675.67	11.172
676.00	11.258
676.32	11.477
676.64	11.645
676.96	11.919
677.28	11.978
677.60	12.187
677.92	12.376
678.25	12.603
678.57	12.841
678.89	13.034
679.21	13.255
679.53	13.401
679.85	13.560
680.17	13.740
680.49	13.934
680.81	14.278
681.13	14.618
681.46	14.912
681.78	15.199
682.10	15.571
682.42	15.929
682.74	16.383
683.06	16.930
683.38	17.390
683.70	17.975
684.02	18.558
684.34	19.143
684.66	19.667
684.98	20.306
685.30	20.981
685.62	21.549
685.94	22.214
686.26	22.789
686.58	23.308
686.90	24.011
687.22	24.565
687.54	25.112
687.86	25.646
688.18	26.189
688.50	26.740
688.82	27.340
689.14	27.989
689.46	28.559
689.78	29.191
690.10	29.840
690.42	30.455
690.74	31.083
691.06	31.706
691.38	32.394
691.70	33.088
692.02	33.712
692.34	34.272
692.66	34.831
692.98	35.409
693.30	36.078
693.62	36.752
693.94	37.357
694.26	38.028
694.57	38.670
694.89	39.272
695.21	39.806
695.53	40.293
695.85	40.774
696.17	41.286
696.49	41.774
696.81	42.114
697.13	42.560
697.44	42.978
697.76	43.304
698.08	43.613
698.40	43.937
698.72	44.256
699.04	44.593
699.36	45.022
699.67	45.291
699.99	45.590
700.31	45.898
700.63	46.165
700.95	46.391
701.27	46.716
701.58	47.031
701.90	47.226
702.22	47.516
702.54	47.800
702.86	47.934
703.17	48.190
703.49	48.443
703.81	48.623
704.13	48.797
704.45	48.988
704.76	49.202
705.08	49.445
705.40	49.619
705.72	49.772
706.03	49.903
706.35	50.162
706.67	50.330
706.99	50.522
707.30	50.844
707.62	51.094
707.94	51.257
708.26	51.381
708.57	51.450
708.89	51.664
709.21	51.826
709.53	51.950
709.84	52.060
710.16	52.284
710.48	52.423
710.79	52.568
711.11	52.646
711.43	52.820
711.74	53.050
712.06	53.226
712.38	53.423
712.69	53.569
713.01	53.818
713.33	53.967
713.64	54.248
713.96	54.430
714.28	54.650
714.59	55.013
714.91	55.259
715.23	55.423
715.54	55.752
715.86	55.868
716.17	56.111
716.49	56.291
716.81	56.454
717.12	56.371
717.44	56.490
717.76	56.516
718.07	56.538
718.39	56.512
718.70	56.482
719.02	56.586
719.33	56.524
719.65	56.408
719.97	56.365
720.28	56.383
720.60	56.453
720.91	56.510
721.23	56.529
721.54	56.521
721.86	56.529
722.17	56.662
722.49	56.514
722.81	56.677
723.12	56.902
723.44	56.914
723.75	56.988
724.07	57.045
724.38	57.019
724.70	57.192
725.01	57.117
725.33	57.396
725.64	57.424
725.96	57.455
726.27	57.430
726.59	57.431
726.90	57.632
727.22	57.625
727.53	57.760
727.84	57.827
728.16	57.720
728.47	57.852
728.79	57.690
729.10	57.578
729.42	57.708
729.73	57.873
730.05	57.877
730.36	57.731
730.67	57.678
730.99	57.610
731.30	57.528
731.62	57.558
731.93	57.529
732.24	57.492
732.56	57.417
732.87	57.173
733.19	56.952
733.50	56.902
733.81	56.844
734.13	56.992
734.44	56.855
734.76	56.906
735.07	56.745
735.38	56.530
735.70	56.430
736.01	56.577
736.32	56.641
736.64	56.676
736.95	56.593
737.26	56.430
737.58	56.290
737.89	56.320
738.20	55.913
738.52	55.879
738.83	55.991
739.14	56.099
739.45	56.045
739.77	56.065
740.08	55.923
740.39	55.662
740.71	55.809
741.02	55.686
741.33	55.475
741.64	55.575
741.96	55.620
742.27	55.258
742.58	54.865
742.90	54.637
743.21	54.450
743.52	54.213
743.83	54.215
744.14	54.096
744.46	54.127
744.77	54.224
745.08	54.285
745.39	54.116
745.71	54.072
746.02	54.212
746.33	54.118
746.64	54.107
746.95	54.397
747.27	54.516
747.58	54.570
747.89	54.507
748.20	54.397
748.51	54.428
748.82	54.384
749.14	54.626
749.45	54.636
749.76	54.806
750.07	54.856
750.38	54.435
750.69	54.364
751.01	54.210
751.32	54.135
751.63	53.863
751.94	53.791
752.25	53.917
752.56	53.830
752.87	53.558
753.18	53.321
753.49	53.289
753.81	53.702
754.12	53.791
754.43	53.999
754.74	54.254
755.05	54.681
755.36	55.069
755.67	55.343
755.98	55.646
756.29	56.310
756.60	56.939
756.91	57.196
757.22	57.630
757.53	58.021
757.84	58.570
758.15	58.959
758.46	59.363
758.77	59.740
759.09	60.203
759.40	60.372
759.71	60.575
760.02	60.478
760.33	60.742
760.64	60.694
760.95	60.748
761.26	60.938
761.57	60.908
761.88	60.879
762.18	60.705
762.49	60.452
762.80	60.413
763.11	60.197
763.42	60.241
763.73	60.014
764.04	59.735
764.35	59.474
764.66	58.876
764.97	58.526
765.28	58.010
765.59	57.550
765.90	57.079
766.21	56.366
766.52	55.931
766.83	55.243
767.14	54.469
767.44	54.215
767.75	53.841
768.06	53.358
768.37	52.933
768.68	52.667
768.99	52.775
769.30	52.282
769.61	52.147
769.91	51.878
770.22	51.841
770.53	51.940
770.84	51.600
771.15	51.475
771.46	51.395
771.77	51.060
772.07	50.916
772.38	50.242
772.69	50.392
773.00	50.459
773.31	50.255
773.61	50.006
773.92	49.751
774.23	49.479
774.54	49.218
774.85	49.078
775.15	49.161
775.46	49.192
775.77	49.219
776.08	48.767
776.39	48.516
776.69	48.579
777.00	48.476
777.31	48.485
777.62	48.830
777.92	48.531
778.23	48.440
778.54	48.192
778.85	48.342
779.15	48.443
779.46	48.885
779.77	49.170
780.07	49.109
780.38	49.449
780.69	49.587
781.00	49.465
781.30	49.952
781.61	50.070
781.92	50.162
782.22	50.071
782.53	50.029
782.84	49.936
783.14	50.055
783.45	50.404
783.76	50.178
784.06	50.283
784.37	50.639
784.68	50.683
784.98	50.766
785.29	51.111
785.60	51.117
785.90	51.446
786.21	51.964
786.51	52.187
786.82	51.911
787.13	52.561
787.43	52.636
787.74	52.744
788.04	52.638
788.35	52.950
788.66	53.321
788.96	53.505
789.27	53.308
789.57	53.291
789.88	52.886
790.19	53.397
790.49	52.875
790.80	52.737
791.10	52.446
791.41	52.548
791.71	52.418
792.02	51.877
792.32	51.657
792.63	51.946
792.93	51.708
793.24	51.990
793.54	51.649
793.85	51.884
794.15	51.967
794.46	51.916
794.76	51.873
795.07	52.215
795.37	52.616
795.68	52.722
795.98	52.473
796.29	52.681
796.59	52.755
796.90	52.668
797.20	52.443
797.51	52.551
797.81	52.724
798.12	52.854
798.42	52.563
798.72	52.283
799.03	52.422
799.33	52.660
799.64	52.347
799.94	52.230
800.25	52.381
800.55	52.181
800.85	52.158
801.16	52.052
801.46	52.178
801.77	52.033
802.07	51.700
802.37	51.320
802.68	50.971
802.98	51.253
803.28	51.577
803.59	51.888
803.89	52.396
804.20	52.753
804.50	53.001
804.80	52.722
805.11	53.025
805.41	53.521
805.71	53.739
806.02	53.979
806.32	53.987
806.62	53.757
806.93	52.942
807.23	52.557
807.53	52.484
807.83	52.647
808.14	53.104
808.44	52.799
808.74	52.848
809.05	53.218
809.35	53.385
809.65	53.311
809.95	53.671
810.26	54.990
810.56	55.511
810.86	55.584
811.16	56.005
811.47	56.010
811.77	56.660
812.07	56.807
812.37	57.063
812.68	57.117
812.98	57.528
813.28	57.443
813.58	56.913
813.88	56.925
814.19	57.217
814.49	56.859
814.79	56.748
815.09	56.835
815.39	57.479
815.70	57.362
816.00	57.604
816.30	57.783
816.60	57.733
816.90	58.292
817.20	58.570
817.50	58.551
817.81	58.595
818.11	58.929
818.41	59.211
818.71	59.299
819.01	59.737
819.31	59.970
819.61	60.184
819.92	60.526
820.22	60.796
820.52	61.011
820.82	61.331
821.12	61.695
821.42	62.031
821.72	62.317
822.02	62.702
822.32	62.962
822.62	63.223
822.92	63.557
823.22	63.801
823.52	63.890
823.83	63.982
824.13	64.048
824.43	64.086
824.73	64.003
825.03	63.908
825.33	63.496
825.63	63.271
825.93	63.185
826.23	62.985
826.53	62.925
826.83	62.950
827.13	63.132
827.43	63.071
827.73	63.077
828.03	63.136
828.33	63.015
828.63	63.301
828.93	63.327
829.23	63.087
829.53	62.394
829.83	61.508
830.13	61.146
830.42	60.418
830.72	60.174
831.02	59.867
831.32	59.602
831.62	59.734
831.92	59.824
832.22	59.580
832.52	59.676
832.82	59.833
833.12	60.386
833.42	60.575
833.72	61.049
834.01	61.261
834.31	61.223
834.61	61.436
834.91	61.498
835.21	61.441
835.51	61.773
835.81	61.352
836.11	61.378
836.40	60.682
836.70	59.824
837.00	58.983
837.30	58.476
837.60	58.486
837.90	57.643
838.19	56.884
838.49	56.111
838.79	55.361
839.09	56.328
839.39	56.482
839.68	56.899
839.98	57.009
840.28	56.863
840.58	57.089
840.88	56.277
841.17	56.683
841.47	56.364
841.77	56.504
842.07	56.283
842.36	54.660
842.66	53.614
842.96	52.090
843.26	51.781
843.55	51.372
843.85	48.601
844.15	48.653
844.45	47.037
844.74	46.465
845.04	44.824
845.34	43.945
845.63	44.529
845.93	44.531
846.23	43.280
846.53	43.283
846.82	43.072
847.12	43.887
847.42	44.564
847.71	45.978
848.01	45.814
848.31	46.891
848.60	47.649
848.90	46.710
849.19	46.679
849.49	47.149
849.79	45.859
850.08	45.382
850.38	45.453
850.68	44.576
850.97	42.731
851.27	42.606
851.56	43.343
851.86	42.932
852.16	43.878
852.45	42.980
852.75	43.768
853.04	44.049
853.34	44.005
853.64	42.854
853.93	43.240
854.23	44.245
854.52	44.962
854.82	43.994
855.11	44.092
855.41	43.224
855.70	44.092
856.00	44.827
856.30	43.769
856.59	43.939
856.89	44.893
857.18	44.275
857.48	44.663
857.77	44.981
858.07	45.670
858.36	46.254
858.66	46.974
858.95	47.415
859.25	47.259
859.54	48.057
859.84	48.632
860.13	48.848
860.42	48.862
860.72	49.701
861.01	48.743
861.31	46.469
861.60	47.023
861.90	47.621
862.19	45.966
862.49	45.856
862.78	46.756
863.07	47.416
863.37	48.112
863.66	50.236
863.96	49.520
864.25	50.682
864.54	53.433
864.84	52.694
865.13	52.159
865.43	54.464
865.72	55.899
866.01	64.675
866.31	49.462
866.60	46.448
866.89	56.940
>>>>>End Spectral Data<<<<<
