OOIBase32 Version 2.0.0.6 Data File
++++++++++++++++++++++++++++++++++++
Date: 01-24-2012, 17:46:45
User: Valued Ocean Optics Customer
Spectrometer Serial Number: USB2E2917
Spectrometer Channel: Master
Integration Time (msec): 7
Spectra Averaged: 10
Boxcar Smoothing: 5
Correct for Electrical Dark: Enabled
Time Normalized: Disabled
Dual-beam Reference: Disabled
Reference Channel: Master
Temperature: Not acquired
Spectrometer Type: S2000
ADC Type: USB2000
Number of Pixels in File: 2048
Graph Title: 
>>>>>Begin Spectral Data<<<<<
180.30	0.000
180.67	0.000
181.03	46.223
181.40	-247590.476
181.77	-108.496
182.14	247.088
182.51	-180.298
182.88	132.644
183.25	148.736
183.62	468.353
183.99	45.751
184.36	-143.655
184.73	-67.498
185.10	109.661
185.46	21.449
185.83	3.313
186.20	-97.619
186.57	158.015
186.94	-45.026
187.31	52.561
187.68	-185.572
188.05	184.013
188.42	62.039
188.78	-12.151
189.15	8.535
189.52	23.575
189.89	1.332
190.26	-15.022
190.63	-25.163
191.00	-17.467
191.37	-25.368
191.73	-31.804
192.10	-27.434
192.47	-1.567
192.84	15.103
193.21	-15.767
193.58	-1.563
193.94	12.115
194.31	29.038
194.68	34.941
195.05	32.039
195.42	30.374
195.79	42.816
196.15	33.952
196.52	27.796
196.89	15.177
197.26	27.355
197.63	23.392
198.00	27.095
198.36	2.782
198.73	-7.884
199.10	-16.105
199.47	-3.051
199.84	1.115
200.20	28.725
200.57	26.862
200.94	39.577
201.31	49.121
201.68	46.724
202.04	35.235
202.41	39.333
202.78	38.338
203.15	46.469
203.51	38.431
203.88	41.098
204.25	32.661
204.62	39.896
204.98	33.846
205.35	20.148
205.72	15.974
206.09	23.556
206.46	36.419
206.82	31.779
207.19	21.656
207.56	17.040
207.92	9.133
208.29	-25.507
208.66	-40.359
209.03	-14.734
209.39	-18.572
209.76	-27.532
210.13	-42.843
210.50	-33.120
210.86	-12.959
211.23	-3.822
211.60	3.465
211.96	-8.830
212.33	6.007
212.70	15.694
213.07	9.489
213.43	10.172
213.80	10.015
214.17	20.613
214.53	15.756
214.90	5.134
215.27	-6.559
215.63	1.918
216.00	3.182
216.37	3.406
216.74	1.663
217.10	0.426
217.47	-1.653
217.84	-19.184
218.20	-31.184
218.57	-31.607
218.94	-3.893
219.30	4.620
219.67	-13.185
220.04	-6.331
220.40	-12.363
220.77	-8.799
221.13	-9.789
221.50	-9.159
221.87	4.749
222.23	-0.712
222.60	0.484
222.97	-2.379
223.33	2.365
223.70	12.455
224.07	9.814
224.43	13.772
224.80	4.804
225.16	8.368
225.53	9.011
225.90	4.085
226.26	4.651
226.63	4.255
226.99	3.848
227.36	0.182
227.73	-2.127
228.09	-4.486
228.46	-6.425
228.82	-1.631
229.19	-3.144
229.56	-5.598
229.92	-3.908
230.29	-1.386
230.65	0.144
231.02	-2.068
231.38	-0.607
231.75	0.947
232.12	1.540
232.48	1.677
232.85	0.024
233.21	1.457
233.58	-0.230
233.94	-0.317
234.31	-3.357
234.68	-4.662
235.04	-0.582
235.41	0.053
235.77	-0.447
236.14	0.970
236.50	2.312
236.87	2.506
237.23	1.683
237.60	1.905
237.96	1.857
238.33	2.000
238.69	1.232
239.06	0.261
239.42	0.937
239.79	1.595
240.15	1.288
240.52	0.996
240.88	0.008
241.25	-0.265
241.61	0.431
241.98	0.674
242.34	1.472
242.71	1.865
243.07	2.296
243.44	2.280
243.80	2.217
244.17	2.198
244.53	2.310
244.90	2.610
245.26	3.036
245.63	2.976
245.99	2.625
246.36	2.153
246.72	2.203
247.09	1.897
247.45	1.539
247.81	1.540
248.18	1.864
248.54	1.671
248.91	1.504
249.27	1.237
249.64	1.175
250.00	1.098
250.36	1.220
250.73	1.231
251.09	1.565
251.46	1.881
251.82	1.989
252.19	1.425
252.55	1.477
252.91	1.337
253.28	1.759
253.64	2.538
254.01	2.776
254.37	2.801
254.73	2.569
255.10	2.760
255.46	3.060
255.83	3.187
256.19	3.174
256.55	3.103
256.92	3.215
257.28	3.118
257.65	2.759
258.01	2.864
258.37	2.925
258.74	3.064
259.10	3.077
259.46	2.844
259.83	2.571
260.19	2.823
260.55	3.127
260.92	3.144
261.28	2.863
261.64	3.173
262.01	3.382
262.37	3.592
262.73	3.516
263.10	2.975
263.46	2.835
263.82	3.234
264.19	2.957
264.55	2.933
264.91	3.417
265.28	3.732
265.64	3.446
266.00	3.145
266.37	3.281
266.73	3.220
267.09	3.120
267.46	3.438
267.82	3.237
268.18	3.231
268.54	2.932
268.91	2.284
269.27	2.198
269.63	2.445
270.00	2.641
270.36	2.566
270.72	2.218
271.08	2.404
271.45	2.241
271.81	1.921
272.17	1.813
272.53	1.906
272.90	2.101
273.26	1.837
273.62	1.864
273.98	1.585
274.35	1.392
274.71	1.992
275.07	2.256
275.43	2.386
275.80	2.718
276.16	2.524
276.52	2.569
276.88	2.693
277.25	2.916
277.61	2.685
277.97	2.795
278.33	2.954
278.69	2.774
279.06	2.652
279.42	2.593
279.78	2.425
280.14	2.692
280.50	2.588
280.87	2.988
281.23	3.125
281.59	3.160
281.95	3.254
282.31	3.280
282.68	3.293
283.04	3.463
283.40	3.483
283.76	3.429
284.12	3.539
284.48	3.487
284.85	3.173
285.21	3.005
285.57	3.085
285.93	3.190
286.29	3.083
286.65	2.957
287.02	2.659
287.38	2.730
287.74	2.696
288.10	2.653
288.46	2.841
288.82	3.046
289.18	3.114
289.54	2.931
289.91	2.677
290.27	2.551
290.63	2.560
290.99	2.673
291.35	2.549
291.71	2.479
292.07	2.495
292.43	2.205
292.79	2.387
293.16	2.511
293.52	2.453
293.88	2.509
294.24	2.520
294.60	2.596
294.96	2.506
295.32	2.567
295.68	2.793
296.04	2.674
296.40	2.688
296.76	2.254
297.12	2.132
297.49	2.134
297.85	2.230
298.21	2.314
298.57	2.320
298.93	2.443
299.29	2.208
299.65	2.231
300.01	2.433
300.37	2.601
300.73	2.748
301.09	2.610
301.45	2.633
301.81	2.396
302.17	2.354
302.53	2.225
302.89	1.972
303.25	2.220
303.61	2.242
303.97	1.957
304.33	1.929
304.69	1.957
305.05	1.964
305.41	2.004
305.77	2.032
306.13	2.080
306.49	2.068
306.85	2.245
307.21	2.326
307.57	2.089
307.93	2.129
308.29	2.024
308.65	1.890
309.01	1.866
309.37	1.759
309.73	1.668
310.09	1.583
310.45	1.544
310.81	1.372
311.17	1.141
311.53	1.151
311.89	1.025
312.25	0.975
312.61	0.855
312.96	0.883
313.32	0.902
313.68	0.846
314.04	0.864
314.40	0.645
314.76	0.662
315.12	0.602
315.48	0.425
315.84	0.466
316.20	0.352
316.56	0.290
316.92	0.327
317.27	0.130
317.63	0.182
317.99	-0.044
318.35	0.157
318.71	0.042
319.07	0.048
319.43	-0.027
319.79	-0.241
320.15	-0.395
320.50	-0.408
320.86	-0.558
321.22	-0.496
321.58	-0.460
321.94	-0.341
322.30	-0.406
322.66	-0.367
323.01	-0.477
323.37	-0.317
323.73	-0.352
324.09	-0.271
324.45	-0.453
324.81	-0.509
325.17	-0.670
325.52	-0.926
325.88	-1.201
326.24	-1.355
326.60	-1.609
326.96	-1.627
327.31	-1.785
327.67	-1.743
328.03	-1.859
328.39	-1.827
328.75	-1.881
329.11	-1.851
329.46	-1.838
329.82	-1.623
330.18	-1.646
330.54	-1.580
330.90	-1.637
331.25	-1.529
331.61	-1.343
331.97	-1.413
332.33	-1.391
332.68	-1.230
333.04	-1.179
333.40	-1.109
333.76	-1.136
334.11	-0.950
334.47	-0.790
334.83	-0.799
335.19	-0.910
335.54	-1.068
335.90	-0.923
336.26	-0.904
336.62	-1.059
336.97	-1.167
337.33	-1.161
337.69	-1.373
338.05	-1.459
338.40	-1.627
338.76	-1.700
339.12	-1.718
339.48	-1.727
339.83	-1.761
340.19	-1.679
340.55	-1.693
340.90	-1.712
341.26	-1.613
341.62	-1.535
341.97	-1.588
342.33	-1.529
342.69	-1.439
343.04	-1.459
343.40	-1.499
343.76	-1.519
344.12	-1.588
344.47	-1.574
344.83	-1.560
345.19	-1.696
345.54	-1.741
345.90	-1.817
346.26	-1.840
346.61	-1.926
346.97	-2.010
347.32	-2.090
347.68	-2.234
348.04	-2.349
348.39	-2.341
348.75	-2.398
349.11	-2.520
349.46	-2.470
349.82	-2.464
350.18	-2.514
350.53	-2.574
350.89	-2.631
351.24	-2.494
351.60	-2.416
351.96	-2.378
352.31	-2.446
352.67	-2.348
353.02	-2.258
353.38	-2.165
353.74	-2.155
354.09	-1.973
354.45	-1.870
354.80	-1.736
355.16	-1.795
355.52	-1.688
355.87	-1.548
356.23	-1.493
356.58	-1.523
356.94	-1.557
357.29	-1.544
357.65	-1.496
358.00	-1.649
358.36	-1.636
358.72	-1.602
359.07	-1.619
359.43	-1.621
359.78	-1.661
360.14	-1.751
360.49	-1.820
360.85	-1.842
361.20	-2.049
361.56	-2.160
361.91	-2.206
362.27	-2.315
362.62	-2.377
362.98	-2.504
363.33	-2.610
363.69	-2.698
364.04	-2.751
364.40	-2.852
364.75	-2.913
365.11	-2.876
365.46	-2.841
365.82	-2.895
366.17	-2.973
366.53	-3.030
366.88	-2.947
367.24	-2.940
367.59	-2.927
367.95	-2.847
368.30	-2.747
368.66	-2.682
369.01	-2.645
369.37	-2.527
369.72	-2.430
370.08	-2.255
370.43	-2.202
370.78	-2.143
371.14	-2.076
371.49	-2.124
371.85	-2.081
372.20	-2.060
372.56	-2.075
372.91	-2.121
373.26	-2.278
373.62	-2.438
373.97	-2.541
374.33	-2.577
374.68	-2.637
375.03	-2.739
375.39	-2.721
375.74	-2.860
376.10	-2.863
376.45	-2.798
376.80	-2.789
377.16	-2.577
377.51	-2.377
377.87	-2.271
378.22	-2.134
378.57	-2.055
378.93	-1.944
379.28	-1.773
379.63	-1.545
379.99	-1.362
380.34	-1.243
380.70	-1.058
381.05	-1.028
381.40	-0.978
381.76	-0.923
382.11	-0.870
382.46	-0.736
382.82	-0.733
383.17	-0.791
383.52	-0.817
383.88	-0.895
384.23	-1.013
384.58	-1.097
384.94	-1.213
385.29	-1.271
385.64	-1.327
385.99	-1.448
386.35	-1.582
386.70	-1.607
387.05	-1.633
387.41	-1.662
387.76	-1.655
388.11	-1.572
388.47	-1.488
388.82	-1.383
389.17	-1.295
389.52	-1.192
389.88	-1.043
390.23	-0.926
390.58	-0.710
390.93	-0.552
391.29	-0.405
391.64	-0.317
391.99	-0.245
392.34	-0.258
392.70	-0.299
393.05	-0.286
393.40	-0.337
393.75	-0.394
394.11	-0.509
394.46	-0.689
394.81	-0.857
395.16	-1.035
395.52	-1.220
395.87	-1.525
396.22	-1.762
396.57	-1.977
396.92	-2.298
397.28	-2.517
397.63	-2.800
397.98	-3.011
398.33	-3.266
398.68	-3.404
399.04	-3.532
399.39	-3.672
399.74	-3.612
400.09	-3.597
400.44	-3.585
400.80	-3.493
401.15	-3.449
401.50	-3.328
401.85	-3.174
402.20	-3.036
402.55	-2.992
402.90	-2.953
403.26	-2.865
403.61	-2.889
403.96	-2.851
404.31	-2.807
404.66	-2.804
405.01	-2.802
405.36	-2.875
405.72	-2.967
406.07	-3.027
406.42	-3.097
406.77	-3.132
407.12	-3.197
407.47	-3.207
407.82	-3.265
408.17	-3.314
408.53	-3.351
408.88	-3.426
409.23	-3.429
409.58	-3.456
409.93	-3.504
410.28	-3.506
410.63	-3.554
410.98	-3.563
411.33	-3.536
411.68	-3.449
412.03	-3.398
412.38	-3.277
412.73	-3.058
413.09	-2.894
413.44	-2.687
413.79	-2.416
414.14	-2.136
414.49	-1.836
414.84	-1.545
415.19	-1.253
415.54	-0.991
415.89	-0.691
416.24	-0.425
416.59	-0.193
416.94	0.026
417.29	0.228
417.64	0.402
417.99	0.554
418.34	0.670
418.69	0.777
419.04	0.863
419.39	0.955
419.74	1.033
420.09	1.089
420.44	1.099
420.79	1.120
421.14	1.129
421.49	1.113
421.84	1.090
422.19	1.061
422.54	1.021
422.89	0.953
423.24	0.832
423.59	0.702
423.94	0.528
424.29	0.376
424.64	0.237
424.99	0.050
425.34	-0.104
425.68	-0.271
426.03	-0.409
426.38	-0.558
426.73	-0.694
427.08	-0.718
427.43	-0.735
427.78	-0.640
428.13	-0.576
428.48	-0.522
428.83	-0.445
429.18	-0.368
429.53	-0.302
429.87	-0.267
430.22	-0.213
430.57	-0.163
430.92	-0.168
431.27	-0.200
431.62	-0.275
431.97	-0.360
432.32	-0.453
432.67	-0.546
433.01	-0.646
433.36	-0.773
433.71	-0.879
434.06	-0.955
434.41	-0.988
434.76	-1.002
435.11	-0.942
435.45	-0.879
435.80	-0.735
436.15	-0.622
436.50	-0.506
436.85	-0.403
437.20	-0.270
437.54	-0.178
437.89	-0.121
438.24	-0.095
438.59	-0.097
438.94	-0.155
439.29	-0.221
439.63	-0.322
439.98	-0.389
440.33	-0.438
440.68	-0.482
441.03	-0.483
441.37	-0.456
441.72	-0.380
442.07	-0.268
442.42	-0.132
442.76	0.023
443.11	0.169
443.46	0.306
443.81	0.430
444.16	0.523
444.50	0.561
444.85	0.562
445.20	0.522
445.55	0.412
445.89	0.275
446.24	0.096
446.59	-0.111
446.94	-0.315
447.28	-0.552
447.63	-0.817
447.98	-1.052
448.32	-1.251
448.67	-1.443
449.02	-1.546
449.37	-1.608
449.71	-1.625
450.06	-1.601
450.41	-1.550
450.75	-1.528
451.10	-1.485
451.45	-1.454
451.79	-1.441
452.14	-1.428
452.49	-1.451
452.84	-1.463
453.18	-1.480
453.53	-1.473
453.88	-1.451
454.22	-1.393
454.57	-1.238
454.92	-1.056
455.26	-0.840
455.61	-0.638
455.95	-0.420
456.30	-0.196
456.65	-0.002
456.99	0.194
457.34	0.347
457.69	0.469
458.03	0.545
458.38	0.560
458.73	0.504
459.07	0.409
459.42	0.278
459.76	0.100
460.11	-0.086
460.46	-0.285
460.80	-0.539
461.15	-0.803
461.49	-1.020
461.84	-1.204
462.19	-1.362
462.53	-1.416
462.88	-1.447
463.22	-1.415
463.57	-1.345
463.91	-1.283
464.26	-1.205
464.61	-1.093
464.95	-0.985
465.30	-0.910
465.64	-0.874
465.99	-0.900
466.33	-0.941
466.68	-1.006
467.02	-1.048
467.37	-1.113
467.71	-1.182
468.06	-1.262
468.41	-1.354
468.75	-1.452
469.10	-1.600
469.44	-1.739
469.79	-1.803
470.13	-1.870
470.48	-1.927
470.82	-2.026
471.17	-2.083
471.51	-2.134
471.86	-2.223
472.20	-2.323
472.55	-2.400
472.89	-2.416
473.23	-2.427
473.58	-2.438
473.92	-2.424
474.27	-2.410
474.61	-2.391
474.96	-2.372
475.30	-2.383
475.65	-2.325
475.99	-2.245
476.34	-2.180
476.68	-2.109
477.02	-2.014
477.37	-1.880
477.71	-1.705
478.06	-1.384
478.40	-0.881
478.75	-0.263
479.09	0.402
479.43	1.025
479.78	1.591
480.12	2.087
480.47	2.539
480.81	2.945
481.15	3.307
481.50	3.621
481.84	3.904
482.19	4.134
482.53	4.294
482.87	4.376
483.22	4.368
483.56	4.303
483.90	4.214
484.25	4.106
484.59	3.995
484.94	3.854
485.28	3.701
485.62	3.509
485.97	3.298
486.31	3.115
486.65	2.968
487.00	2.875
487.34	2.805
487.68	2.743
488.03	2.674
488.37	2.586
488.71	2.513
489.06	2.444
489.40	2.374
489.74	2.305
490.09	2.206
490.43	2.076
490.77	1.896
491.11	1.703
491.46	1.503
491.80	1.279
492.14	1.049
492.49	0.806
492.83	0.551
493.17	0.290
493.51	0.046
493.86	-0.171
494.20	-0.295
494.54	-0.336
494.88	-0.319
495.23	-0.266
495.57	-0.203
495.91	-0.157
496.25	-0.110
496.60	-0.084
496.94	-0.070
497.28	-0.077
497.62	-0.084
497.97	-0.171
498.31	-0.231
498.65	-0.266
498.99	-0.308
499.33	-0.346
499.68	-0.354
500.02	-0.373
500.36	-0.396
500.70	-0.394
501.04	-0.374
501.39	-0.345
501.73	-0.285
502.07	-0.224
502.41	-0.169
502.75	-0.136
503.09	-0.048
503.44	0.039
503.78	0.124
504.12	0.239
504.46	0.364
504.80	0.480
505.14	0.592
505.49	0.726
505.83	0.850
506.17	0.937
506.51	1.069
506.85	1.146
507.19	1.214
507.53	1.302
507.87	1.375
508.22	1.416
508.56	1.444
508.90	1.454
509.24	1.454
509.58	1.449
509.92	1.462
510.26	1.462
510.60	1.454
510.94	1.431
511.28	1.420
511.63	1.409
511.97	1.424
512.31	1.459
512.65	1.539
512.99	1.668
513.33	1.823
513.67	2.004
514.01	2.191
514.35	2.434
514.69	2.695
515.03	2.930
515.37	3.141
515.71	3.342
516.05	3.511
516.39	3.634
516.73	3.693
517.07	3.729
517.41	3.730
517.75	3.691
518.09	3.598
518.43	3.474
518.77	3.337
519.11	3.199
519.45	3.038
519.79	2.887
520.13	2.792
520.47	2.736
520.81	2.745
521.15	2.803
521.49	2.885
521.83	3.039
522.17	3.239
522.51	3.468
522.85	3.767
523.19	4.164
523.53	4.628
523.87	5.081
524.21	5.526
524.55	5.894
524.89	6.246
525.23	6.552
525.57	6.812
525.91	7.047
526.25	7.250
526.58	7.413
526.92	7.523
527.26	7.587
527.60	7.602
527.94	7.572
528.28	7.524
528.62	7.429
528.96	7.346
529.30	7.244
529.64	7.139
529.97	7.023
530.31	6.896
530.65	6.778
530.99	6.667
531.33	6.592
531.67	6.546
532.01	6.518
532.35	6.479
532.68	6.420
533.02	6.346
533.36	6.234
533.70	6.120
534.04	6.024
534.38	5.917
534.71	5.807
535.05	5.696
535.39	5.594
535.73	5.510
536.07	5.497
536.41	5.580
536.74	5.733
537.08	5.923
537.42	6.139
537.76	6.349
538.10	6.581
538.43	6.817
538.77	7.014
539.11	7.184
539.45	7.334
539.79	7.459
540.12	7.527
540.46	7.546
540.80	7.534
541.14	7.476
541.47	7.396
541.81	7.282
542.15	7.140
542.49	6.978
542.82	6.813
543.16	6.627
543.50	6.439
543.84	6.240
544.17	6.100
544.51	5.983
544.85	5.890
545.18	5.767
545.52	5.646
545.86	5.508
546.20	5.370
546.53	5.207
546.87	5.062
547.21	4.896
547.54	4.764
547.88	4.607
548.22	4.491
548.55	4.413
548.89	4.387
549.23	4.364
549.56	4.395
549.90	4.432
550.24	4.495
550.57	4.523
550.91	4.588
551.25	4.632
551.58	4.674
551.92	4.655
552.26	4.625
552.59	4.584
552.93	4.540
553.27	4.476
553.60	4.445
553.94	4.411
554.27	4.438
554.61	4.416
554.95	4.416
555.28	4.409
555.62	4.487
555.95	4.535
556.29	4.611
556.63	4.707
556.96	4.763
557.30	4.848
557.63	4.892
557.97	4.944
558.31	5.020
558.64	5.085
558.98	5.122
559.31	5.128
559.65	5.153
559.98	5.195
560.32	5.229
560.65	5.326
560.99	5.423
561.33	5.556
561.66	5.664
562.00	5.793
562.33	5.872
562.67	6.039
563.00	6.211
563.34	6.375
563.67	6.503
564.01	6.606
564.34	6.687
564.68	6.762
565.01	6.832
565.35	6.891
565.68	6.919
566.02	7.001
566.35	7.025
566.69	7.045
567.02	7.109
567.36	7.179
567.69	7.306
568.03	7.379
568.36	7.477
568.69	7.565
569.03	7.666
569.36	7.788
569.70	7.878
570.03	7.992
570.37	8.071
570.70	8.111
571.04	8.173
571.37	8.185
571.70	8.238
572.04	8.256
572.37	8.292
572.71	8.284
573.04	8.309
573.37	8.323
573.71	8.278
574.04	8.284
574.38	8.290
574.71	8.243
575.04	8.208
575.38	8.208
575.71	8.180
576.05	8.104
576.38	8.067
576.71	8.001
577.05	7.924
577.38	7.936
577.71	7.887
578.05	7.808
578.38	7.810
578.71	7.819
579.05	7.762
579.38	7.735
579.71	7.755
580.05	7.779
580.38	7.781
580.71	7.848
581.05	7.841
581.38	7.856
581.71	7.950
582.05	7.985
582.38	8.039
582.71	8.131
583.04	8.225
583.38	8.343
583.71	8.447
584.04	8.591
584.38	8.680
584.71	8.824
585.04	9.004
585.37	9.135
585.71	9.327
586.04	9.517
586.37	9.687
586.70	9.882
587.04	10.015
587.37	10.144
587.70	10.273
588.03	10.391
588.37	10.497
588.70	10.565
589.03	10.591
589.36	10.618
589.69	10.625
590.03	10.626
590.36	10.594
590.69	10.603
591.02	10.584
591.35	10.592
591.69	10.684
592.02	10.740
592.35	10.850
592.68	11.023
593.01	11.145
593.35	11.287
593.68	11.425
594.01	11.542
594.34	11.655
594.67	11.785
595.00	11.889
595.34	11.943
595.67	12.009
596.00	11.979
596.33	11.927
596.66	11.904
596.99	11.821
597.32	11.706
597.65	11.639
597.99	11.537
598.32	11.503
598.65	11.415
598.98	11.372
599.31	11.389
599.64	11.465
599.97	11.569
600.30	11.702
600.63	11.859
600.96	12.033
601.30	12.178
601.63	12.288
601.96	12.398
602.29	12.502
602.62	12.572
602.95	12.611
603.28	12.625
603.61	12.628
603.94	12.571
604.27	12.528
604.60	12.475
604.93	12.465
605.26	12.452
605.59	12.423
605.92	12.372
606.25	12.395
606.58	12.400
606.91	12.451
607.24	12.522
607.57	12.561
607.90	12.549
608.23	12.571
608.56	12.562
608.89	12.548
609.22	12.510
609.55	12.488
609.88	12.424
610.21	12.330
610.54	12.227
610.87	12.106
611.20	12.036
611.53	11.958
611.86	11.903
612.19	11.808
612.52	11.783
612.85	11.783
613.18	11.769
613.51	11.736
613.84	11.778
614.17	11.806
614.49	11.773
614.82	11.760
615.15	11.748
615.48	11.725
615.81	11.759
616.14	11.781
616.47	11.768
616.80	11.772
617.13	11.765
617.46	11.744
617.78	11.710
618.11	11.722
618.44	11.702
618.77	11.715
619.10	11.739
619.43	11.681
619.76	11.637
620.09	11.593
620.41	11.573
620.74	11.598
621.07	11.591
621.40	11.625
621.73	11.713
622.06	11.840
622.38	11.979
622.71	12.082
623.04	12.228
623.37	12.375
623.70	12.516
624.02	12.635
624.35	12.739
624.68	12.835
625.01	12.970
625.34	13.037
625.66	13.065
625.99	13.064
626.32	13.028
626.65	13.007
626.98	13.004
627.30	12.980
627.63	12.960
627.96	12.915
628.29	12.889
628.61	12.814
628.94	12.736
629.27	12.691
629.60	12.713
629.92	12.778
630.25	12.718
630.58	12.686
630.91	12.669
631.23	12.650
631.56	12.643
631.89	12.634
632.21	12.621
632.54	12.654
632.87	12.614
633.19	12.538
633.52	12.462
633.85	12.468
634.18	12.393
634.50	12.338
634.83	12.298
635.16	12.198
635.48	12.168
635.81	12.071
636.14	11.937
636.46	11.869
636.79	11.832
637.11	11.673
637.44	11.621
637.77	11.590
638.09	11.495
638.42	11.489
638.75	11.434
639.07	11.338
639.40	11.268
639.73	11.262
640.05	11.167
640.38	11.059
640.70	11.075
641.03	11.003
641.36	10.992
641.68	10.981
642.01	10.865
642.33	10.921
642.66	10.863
642.98	10.922
643.31	10.896
643.64	10.933
643.96	10.995
644.29	11.017
644.61	11.008
644.94	10.986
645.26	11.011
645.59	11.049
645.91	11.015
646.24	11.108
646.56	11.088
646.89	11.103
647.22	11.100
647.54	11.058
647.87	11.073
648.19	11.063
648.52	11.054
648.84	11.047
649.17	11.012
649.49	10.950
649.82	10.851
650.14	10.845
650.47	10.841
650.79	10.826
651.11	10.821
651.44	10.791
651.76	10.822
652.09	10.807
652.41	10.765
652.74	10.819
653.06	10.861
653.39	10.918
653.71	10.980
654.04	11.086
654.36	11.122
654.68	11.186
655.01	11.200
655.33	11.258
655.66	11.299
655.98	11.348
656.30	11.349
656.63	11.335
656.95	11.351
657.28	11.268
657.60	11.153
657.92	11.080
658.25	10.988
658.57	10.916
658.90	10.775
659.22	10.617
659.54	10.469
659.87	10.268
660.19	10.095
660.51	9.886
660.84	9.666
661.16	9.479
661.48	9.352
661.81	9.157
662.13	9.029
662.45	8.875
662.78	8.766
663.10	8.689
663.42	8.678
663.75	8.617
664.07	8.608
664.39	8.691
664.72	8.621
665.04	8.573
665.36	8.552
665.69	8.563
666.01	8.563
666.33	8.582
666.65	8.591
666.98	8.601
667.30	8.702
667.62	8.694
667.94	8.583
668.27	8.588
668.59	8.535
668.91	8.553
669.23	8.485
669.56	8.489
669.88	8.493
670.20	8.436
670.52	8.384
670.85	8.252
671.17	8.192
671.49	8.194
671.81	8.211
672.13	8.234
672.46	8.213
672.78	8.212
673.10	8.178
673.42	8.102
673.74	8.155
674.07	8.233
674.39	8.334
674.71	8.415
675.03	8.537
675.35	8.700
675.67	8.852
676.00	9.041
676.32	9.242
676.64	9.462
676.96	9.715
677.28	9.809
677.60	9.878
677.92	10.054
678.25	10.217
678.57	10.384
678.89	10.439
679.21	10.605
679.53	10.627
679.85	10.631
680.17	10.680
680.49	10.760
680.81	10.952
681.13	11.092
681.46	11.196
681.78	11.320
682.10	11.450
682.42	11.592
682.74	11.756
683.06	12.040
683.38	12.238
683.70	12.481
684.02	12.763
684.34	13.025
684.66	13.314
684.98	13.648
685.30	13.937
685.62	14.096
685.94	14.353
686.26	14.498
686.58	14.654
686.90	15.013
687.22	15.221
687.54	15.306
687.86	15.320
688.18	15.505
688.50	15.518
688.82	15.639
689.14	15.754
689.46	15.895
689.78	16.032
690.10	16.177
690.42	16.224
690.74	16.319
691.06	16.508
691.38	16.746
691.70	16.906
692.02	17.087
692.34	17.200
692.66	17.370
692.98	17.491
693.30	17.794
693.62	17.974
693.94	18.237
694.26	18.537
694.57	18.755
694.89	19.077
695.21	19.275
695.53	19.524
695.85	19.783
696.17	20.016
696.49	20.258
696.81	20.310
697.13	20.544
697.44	20.635
697.76	20.682
698.08	20.733
698.40	20.680
698.72	20.631
699.04	20.539
699.36	20.418
699.67	20.351
699.99	20.225
700.31	20.104
700.63	19.898
700.95	19.781
701.27	19.678
701.58	19.588
701.90	19.629
702.22	19.638
702.54	19.743
702.86	19.801
703.17	19.808
703.49	19.895
703.81	20.033
704.13	20.098
704.45	20.226
704.76	20.382
705.08	20.583
705.40	20.565
705.72	20.595
706.03	20.599
706.35	20.689
706.67	20.738
706.99	20.806
707.30	20.833
707.62	20.923
707.94	20.985
708.26	21.105
708.57	21.014
708.89	21.197
709.21	21.320
709.53	21.422
709.84	21.549
710.16	21.703
710.48	21.763
710.79	21.896
711.11	21.993
711.43	22.016
711.74	22.024
712.06	22.269
712.38	22.435
712.69	22.563
713.01	22.751
713.33	22.783
713.64	23.003
713.96	23.211
714.28	23.459
714.59	23.776
714.91	24.057
715.23	24.320
715.54	24.460
715.86	24.438
716.17	24.532
716.49	24.650
716.81	24.816
717.12	24.747
717.44	24.708
717.76	24.601
718.07	24.528
718.39	24.416
718.70	24.265
719.02	24.115
719.33	23.954
719.65	23.912
719.97	23.782
720.28	23.693
720.60	23.736
720.91	23.686
721.23	23.734
721.54	23.662
721.86	23.670
722.17	23.789
722.49	23.908
722.81	24.070
723.12	24.064
723.44	24.119
723.75	24.244
724.07	24.215
724.38	24.298
724.70	24.277
725.01	24.281
725.33	24.386
725.64	24.409
725.96	24.532
726.27	24.675
726.59	24.777
726.90	24.914
727.22	24.879
727.53	24.974
727.84	24.926
728.16	25.003
728.47	25.006
728.79	25.016
729.10	24.916
729.42	24.837
729.73	24.703
730.05	24.686
730.36	24.500
730.67	24.375
730.99	24.261
731.30	24.139
731.62	23.983
731.93	23.913
732.24	23.712
732.56	23.448
732.87	23.258
733.19	23.063
733.50	22.842
733.81	22.680
734.13	22.556
734.44	22.426
734.76	22.430
735.07	22.407
735.38	22.187
735.70	21.991
736.01	21.968
736.32	21.765
736.64	21.780
736.95	21.770
737.26	21.662
737.58	21.671
737.89	21.514
738.20	21.273
738.52	21.048
738.83	20.912
739.14	20.896
739.45	20.875
739.77	20.914
740.08	20.587
740.39	20.305
740.71	20.249
741.02	19.894
741.33	19.715
741.64	19.623
741.96	19.421
742.27	19.230
742.58	18.842
742.90	18.569
743.21	18.362
743.52	18.199
743.83	18.179
744.14	18.154
744.46	18.317
744.77	18.480
745.08	18.470
745.39	18.565
745.71	18.602
746.02	18.844
746.33	19.026
746.64	19.020
746.95	19.075
747.27	19.210
747.58	19.239
747.89	19.361
748.20	19.212
748.51	19.127
748.82	19.085
749.14	19.341
749.45	19.398
749.76	19.256
750.07	19.280
750.38	19.245
750.69	19.140
751.01	19.255
751.32	19.284
751.63	19.340
751.94	19.614
752.25	19.734
752.56	19.499
752.87	19.259
753.18	19.174
753.49	19.259
753.81	19.502
754.12	19.582
754.43	19.756
754.74	19.875
755.05	20.419
755.36	20.795
755.67	21.420
755.98	22.118
756.29	23.000
756.60	23.980
756.91	25.020
757.22	25.950
757.53	26.764
757.84	27.495
758.15	28.234
758.46	28.901
758.77	29.566
759.09	30.105
759.40	30.689
759.71	31.095
760.02	31.353
760.33	31.483
760.64	31.655
760.95	31.933
761.26	31.871
761.57	31.910
761.88	31.867
762.18	31.656
762.49	31.424
762.80	31.145
763.11	30.899
763.42	30.628
763.73	30.258
764.04	29.846
764.35	29.191
764.66	28.677
764.97	27.820
765.28	26.852
765.59	26.028
765.90	25.215
766.21	24.355
766.52	23.294
766.83	22.390
767.14	21.237
767.44	20.307
767.75	19.711
768.06	19.087
768.37	18.584
768.68	18.101
768.99	18.006
769.30	17.351
769.61	16.874
769.91	16.775
770.22	16.211
770.53	16.183
770.84	15.812
771.15	15.428
771.46	15.063
771.77	15.072
772.07	14.931
772.38	14.215
772.69	14.389
773.00	14.502
773.31	14.188
773.61	14.391
773.92	14.523
774.23	14.643
774.54	14.390
774.85	14.609
775.15	14.540
775.46	14.516
775.77	14.874
776.08	14.751
776.39	14.477
776.69	14.810
777.00	15.020
777.31	14.767
777.62	14.780
777.92	14.943
778.23	14.946
778.54	14.993
778.85	15.201
779.15	15.504
779.46	15.838
779.77	15.752
780.07	15.501
780.38	15.392
780.69	15.466
781.00	15.531
781.30	15.834
781.61	15.719
781.92	15.806
782.22	15.844
782.53	15.735
782.84	15.826
783.14	16.390
783.45	16.785
783.76	16.971
784.06	17.301
784.37	17.697
784.68	18.043
784.98	18.625
785.29	19.404
785.60	19.667
785.90	20.145
786.21	20.089
786.51	20.512
786.82	20.867
787.13	21.469
787.43	21.922
787.74	22.035
788.04	21.998
788.35	21.854
788.66	21.448
788.96	21.767
789.27	21.377
789.57	21.624
789.88	21.280
790.19	21.106
790.49	20.558
790.80	20.523
791.10	20.646
791.41	20.594
791.71	20.858
792.02	21.189
792.32	20.960
792.63	21.230
792.93	20.981
793.24	21.440
793.54	21.628
793.85	21.728
794.15	21.752
794.46	21.558
794.76	21.745
795.07	22.160
795.37	22.140
795.68	22.423
795.98	22.714
796.29	23.065
796.59	23.086
796.90	23.014
797.20	23.233
797.51	23.222
797.81	23.286
798.12	23.212
798.42	22.951
798.72	22.920
799.03	22.932
799.33	22.658
799.64	22.643
799.94	22.341
800.25	22.502
800.55	22.448
800.85	22.077
801.16	21.997
801.46	22.096
801.77	21.647
802.07	21.513
802.37	21.000
802.68	21.308
802.98	21.452
803.28	21.496
803.59	21.575
803.89	21.815
804.20	22.049
804.50	22.219
804.80	22.591
805.11	22.944
805.41	23.163
805.71	23.631
806.02	23.146
806.32	23.237
806.62	23.605
806.93	23.276
807.23	23.197
807.53	23.665
807.83	24.440
808.14	24.474
808.44	24.438
808.74	24.543
809.05	24.660
809.35	25.314
809.65	25.221
809.95	25.284
810.26	25.903
810.56	26.162
810.86	26.217
811.16	25.909
811.47	26.207
811.77	26.815
812.07	27.446
812.37	27.704
812.68	27.907
812.98	28.704
813.28	28.885
813.58	28.877
813.88	29.027
814.19	29.182
814.49	29.002
814.79	28.726
815.09	28.692
815.39	29.037
815.70	29.578
816.00	29.624
816.30	29.770
816.60	29.906
816.90	30.450
817.20	31.137
817.50	31.743
817.81	32.582
818.11	33.635
818.41	34.336
818.71	34.842
819.01	35.243
819.31	35.847
819.61	36.189
819.92	36.564
820.22	36.848
820.52	37.041
820.82	37.338
821.12	37.606
821.42	37.841
821.72	38.034
822.02	38.238
822.32	38.391
822.62	38.505
822.92	38.636
823.22	38.787
823.52	38.851
823.83	38.937
824.13	38.868
824.43	38.878
824.73	38.752
825.03	38.730
825.33	38.473
825.63	38.332
825.93	38.161
826.23	38.133
826.53	38.038
826.83	37.971
827.13	37.915
827.43	37.814
827.73	37.644
828.03	37.551
828.33	37.176
828.63	36.961
828.93	36.705
829.23	36.258
829.53	35.629
829.83	34.955
830.13	34.654
830.42	34.410
830.72	34.478
831.02	34.325
831.32	34.144
831.62	34.484
831.92	34.821
832.22	34.933
832.52	35.002
832.82	34.992
833.12	35.189
833.42	35.218
833.72	35.269
834.01	35.042
834.31	35.118
834.61	35.060
834.91	34.764
835.21	34.425
835.51	34.381
835.81	34.346
836.11	33.882
836.40	33.491
836.70	33.140
837.00	31.901
837.30	31.661
837.60	31.219
837.90	30.612
838.19	29.820
838.49	29.658
838.79	28.747
839.09	28.527
839.39	28.430
839.68	27.970
839.98	27.764
840.28	28.271
840.58	27.472
840.88	26.384
841.17	26.219
841.47	26.321
841.77	25.883
842.07	25.950
842.36	24.458
842.66	23.460
842.96	21.769
843.26	20.619
843.55	18.815
843.85	18.748
844.15	18.060
844.45	16.146
844.74	15.597
845.04	13.629
845.34	13.166
845.63	14.787
845.93	15.457
846.23	16.084
846.53	14.833
846.82	15.949
847.12	16.750
847.42	17.976
847.71	18.506
848.01	18.689
848.31	19.502
848.60	18.537
848.90	16.357
849.19	15.927
849.49	14.834
849.79	14.547
850.08	13.345
850.38	12.467
850.68	11.690
850.97	11.200
851.27	10.507
851.56	12.255
851.86	12.628
852.16	13.684
852.45	12.610
852.75	12.278
853.04	12.989
853.34	14.176
853.64	14.422
853.93	12.915
854.23	13.934
854.52	13.573
854.82	11.930
855.11	11.550
855.41	11.530
855.70	13.198
856.00	14.629
856.30	14.643
856.59	13.992
856.89	12.554
857.18	13.122
857.48	12.904
857.77	15.063
858.07	14.169
858.36	15.367
858.66	14.582
858.95	13.507
859.25	13.213
859.54	12.741
859.84	12.610
860.13	13.823
860.42	15.199
860.72	16.494
861.01	14.223
861.31	13.517
861.60	14.674
861.90	16.275
862.19	17.274
862.49	18.076
862.78	18.269
863.07	19.073
863.37	20.874
863.66	21.001
863.96	19.901
864.25	20.799
864.54	21.813
864.84	20.775
865.13	19.865
865.43	21.930
865.72	23.017
866.01	12.031
866.31	23.123
866.60	13.052
866.89	41.402
>>>>>End Spectral Data<<<<<
