OOIBase32 Version 2.0.0.6 Data File
++++++++++++++++++++++++++++++++++++
Date: 01-23-2012, 23:06:00
User: Valued Ocean Optics Customer
Spectrometer Serial Number: USB2E2917
Spectrometer Channel: Master
Integration Time (msec): 5
Spectra Averaged: 10
Boxcar Smoothing: 5
Correct for Electrical Dark: Enabled
Time Normalized: Disabled
Dual-beam Reference: Disabled
Reference Channel: Master
Temperature: Not acquired
Spectrometer Type: S2000
ADC Type: USB2000
Number of Pixels in File: 2048
Graph Title: 
>>>>>Begin Spectral Data<<<<<
180.30	0.000
180.67	0.000
181.03	108.635
181.40	738.718
181.77	-7302.294
182.14	-2.471
182.51	-300.618
182.88	221.094
183.25	33.252
183.62	95.359
183.99	148.711
184.36	73.312
184.73	109.917
185.10	174.225
185.46	-37.506
185.83	-56.937
186.20	1031.593
186.57	242.906
186.94	33.234
187.31	35.455
187.68	42.459
188.05	24.052
188.42	52.978
188.78	110.208
189.15	354.351
189.52	-85.957
189.89	-27.041
190.26	-13.716
190.63	7.866
191.00	24.765
191.37	30.069
191.73	43.732
192.10	42.742
192.47	43.765
192.84	42.814
193.21	47.611
193.58	51.763
193.94	58.797
194.31	48.970
194.68	50.206
195.05	33.732
195.42	24.196
195.79	12.621
196.15	28.280
196.52	17.526
196.89	10.049
197.26	10.383
197.63	26.049
198.00	44.001
198.36	36.798
198.73	23.153
199.10	39.721
199.47	31.540
199.84	15.009
200.20	-15.816
200.57	-7.467
200.94	-7.867
201.31	-6.637
201.68	-24.051
202.04	-26.185
202.41	-29.019
202.78	-39.629
203.15	-49.146
203.51	-16.988
203.88	-24.140
204.25	-8.116
204.62	-28.730
204.98	-27.246
205.35	-28.275
205.72	-20.105
206.09	-41.930
206.46	-70.004
206.82	-46.450
207.19	-68.196
207.56	-155.780
207.92	-120.945
208.29	-147.500
208.66	-73.606
209.03	-77.968
209.39	-56.322
209.76	-62.886
210.13	-112.336
210.50	-75.432
210.86	-76.731
211.23	-91.136
211.60	-46.551
211.96	-52.827
212.33	-38.727
212.70	-50.549
213.07	-46.552
213.43	-72.936
213.80	-71.572
214.17	-30.541
214.53	-8.195
214.90	3.343
215.27	15.611
215.63	11.367
216.00	19.372
216.37	16.607
216.74	9.786
217.10	3.662
217.47	-1.164
217.84	3.019
218.20	-0.176
218.57	-2.529
218.94	3.416
219.30	1.566
219.67	-4.398
220.04	-3.495
220.40	-3.889
220.77	-2.647
221.13	4.604
221.50	3.063
221.87	-0.506
222.23	-4.254
222.60	-14.571
222.97	-20.399
223.33	-15.598
223.70	-9.375
224.07	-7.212
224.43	-6.409
224.80	-2.640
225.16	-5.004
225.53	-2.190
225.90	-3.601
226.26	-1.425
226.63	1.730
226.99	1.777
227.36	1.858
227.73	2.645
228.09	1.557
228.46	3.398
228.82	2.305
229.19	2.969
229.56	1.915
229.92	4.289
230.29	4.695
230.65	3.880
231.02	2.302
231.38	0.840
231.75	-0.216
232.12	-0.446
232.48	-3.322
232.85	-3.545
233.21	-4.294
233.58	-4.469
233.94	-3.839
234.31	-3.800
234.68	-4.154
235.04	-2.026
235.41	-1.092
235.77	0.308
236.14	0.798
236.50	2.515
236.87	3.037
237.23	4.134
237.60	3.791
237.96	3.017
238.33	2.061
238.69	1.937
239.06	1.398
239.42	1.024
239.79	-0.004
240.15	0.192
240.52	0.061
240.88	0.419
241.25	-0.413
241.61	0.072
241.98	-0.029
242.34	0.483
242.71	0.664
243.07	0.896
243.44	1.104
243.80	1.244
244.17	1.230
244.53	1.039
244.90	0.863
245.26	1.038
245.63	0.866
245.99	0.516
246.36	0.201
246.72	0.359
247.09	0.013
247.45	0.025
247.81	0.287
248.18	-0.007
248.54	0.351
248.91	-0.138
249.27	-0.237
249.64	0.033
250.00	0.505
250.36	0.476
250.73	0.157
251.09	0.453
251.46	0.045
251.82	-0.401
252.19	-0.377
252.55	-1.004
252.91	-0.185
253.28	0.173
253.64	-0.082
254.01	-0.345
254.37	0.390
254.73	0.795
255.10	1.008
255.46	1.800
255.83	1.909
256.19	1.964
256.55	1.941
256.92	1.841
257.28	1.766
257.65	1.785
258.01	1.958
258.37	1.811
258.74	1.606
259.10	1.421
259.46	1.026
259.83	0.946
260.19	0.838
260.55	0.783
260.92	0.640
261.28	0.421
261.64	0.343
262.01	0.242
262.37	0.197
262.73	0.183
263.10	0.256
263.46	0.301
263.82	0.208
264.19	0.376
264.55	0.077
264.91	-0.068
265.28	0.028
265.64	0.053
266.00	0.143
266.37	0.279
266.73	0.279
267.09	0.394
267.46	0.582
267.82	0.692
268.18	1.051
268.54	1.351
268.91	1.457
269.27	1.486
269.63	1.564
270.00	1.378
270.36	1.245
270.72	1.298
271.08	1.288
271.45	1.339
271.81	1.257
272.17	0.895
272.53	0.883
272.90	0.805
273.26	0.903
273.62	0.663
273.98	0.618
274.35	0.411
274.71	0.431
275.07	0.393
275.43	0.321
275.80	0.253
276.16	0.296
276.52	0.213
276.88	0.420
277.25	0.185
277.61	0.338
277.97	0.625
278.33	0.948
278.69	0.777
279.06	0.720
279.42	0.738
279.78	1.021
280.14	0.980
280.50	1.043
280.87	0.894
281.23	1.051
281.59	1.105
281.95	1.000
282.31	1.035
282.68	1.047
283.04	1.073
283.40	1.206
283.76	1.146
284.12	1.283
284.48	1.255
284.85	1.285
285.21	1.347
285.57	1.293
285.93	1.302
286.29	1.121
286.65	1.231
287.02	1.541
287.38	1.284
287.74	1.206
288.10	1.115
288.46	1.188
288.82	1.146
289.18	1.135
289.54	1.145
289.91	1.125
290.27	1.181
290.63	1.224
290.99	1.025
291.35	1.146
291.71	1.273
292.07	1.170
292.43	1.159
292.79	1.258
293.16	1.126
293.52	1.225
293.88	1.388
294.24	1.433
294.60	1.255
294.96	1.249
295.32	1.349
295.68	1.322
296.04	1.386
296.40	1.482
296.76	1.525
297.12	1.489
297.49	1.368
297.85	1.163
298.21	1.124
298.57	1.147
298.93	1.206
299.29	1.002
299.65	0.967
300.01	0.943
300.37	0.879
300.73	0.926
301.09	0.968
301.45	1.051
301.81	1.243
302.17	1.322
302.53	1.303
302.89	1.212
303.25	1.417
303.61	1.450
303.97	1.400
304.33	1.388
304.69	1.295
305.05	1.237
305.41	1.198
305.77	1.155
306.13	1.107
306.49	1.125
306.85	1.141
307.21	1.101
307.57	1.163
307.93	1.187
308.29	1.338
308.65	1.409
309.01	1.434
309.37	1.450
309.73	1.462
310.09	1.592
310.45	1.718
310.81	1.707
311.17	1.634
311.53	1.600
311.89	1.696
312.25	1.574
312.61	1.442
312.96	1.581
313.32	1.667
313.68	1.579
314.04	1.385
314.40	1.330
314.76	1.257
315.12	1.302
315.48	1.243
315.84	1.163
316.20	1.087
316.56	1.190
316.92	1.090
317.27	1.000
317.63	1.017
317.99	1.087
318.35	1.041
318.71	1.070
319.07	1.105
319.43	1.122
319.79	1.225
320.15	1.263
320.50	1.213
320.86	1.256
321.22	1.228
321.58	1.310
321.94	1.301
322.30	1.367
322.66	1.380
323.01	1.244
323.37	1.189
323.73	1.193
324.09	1.135
324.45	1.144
324.81	1.081
325.17	1.197
325.52	1.129
325.88	1.084
326.24	1.061
326.60	1.071
326.96	1.090
327.31	1.037
327.67	0.876
328.03	0.873
328.39	0.801
328.75	0.867
329.11	0.846
329.46	0.871
329.82	0.918
330.18	0.889
330.54	0.862
330.90	0.887
331.25	0.977
331.61	1.156
331.97	1.271
332.33	1.401
332.68	1.361
333.04	1.279
333.40	1.249
333.76	1.158
334.11	1.151
334.47	1.162
334.83	1.163
335.19	1.138
335.54	1.074
335.90	1.062
336.26	1.001
336.62	0.919
336.97	0.935
337.33	0.931
337.69	1.021
338.05	1.000
338.40	0.990
338.76	1.050
339.12	1.081
339.48	0.966
339.83	0.938
340.19	0.856
340.55	0.951
340.90	0.899
341.26	0.839
341.62	0.812
341.97	0.893
342.33	0.968
342.69	0.953
343.04	0.953
343.40	0.917
343.76	0.861
344.12	1.035
344.47	1.047
344.83	1.141
345.19	1.173
345.54	1.196
345.90	1.123
346.26	1.121
346.61	1.072
346.97	1.060
347.32	1.154
347.68	1.181
348.04	1.064
348.39	0.992
348.75	1.010
349.11	1.027
349.46	0.934
349.82	0.943
350.18	0.867
350.53	0.918
350.89	0.909
351.24	0.838
351.60	0.791
351.96	0.872
352.31	0.913
352.67	0.826
353.02	0.750
353.38	0.833
353.74	0.787
354.09	0.804
354.45	0.772
354.80	0.748
355.16	0.781
355.52	0.790
355.87	0.658
356.23	0.635
356.58	0.673
356.94	0.777
357.29	0.785
357.65	0.852
358.00	0.837
358.36	0.844
358.72	0.889
359.07	0.918
359.43	0.960
359.78	1.035
360.14	1.042
360.49	1.002
360.85	0.966
361.20	0.894
361.56	0.871
361.91	0.898
362.27	0.902
362.62	0.912
362.98	0.938
363.33	0.913
363.69	0.904
364.04	0.954
364.40	0.960
364.75	0.933
365.11	0.952
365.46	0.926
365.82	0.943
366.17	0.954
366.53	0.961
366.88	0.963
367.24	1.002
367.59	0.991
367.95	0.942
368.30	0.961
368.66	1.012
369.01	0.992
369.37	1.035
369.72	1.052
370.08	1.100
370.43	1.084
370.78	1.067
371.14	1.031
371.49	1.037
371.85	1.055
372.20	1.075
372.56	1.032
372.91	1.057
373.26	1.052
373.62	0.989
373.97	0.969
374.33	0.968
374.68	0.974
375.03	1.009
375.39	0.983
375.74	0.961
376.10	0.927
376.45	0.972
376.80	1.006
377.16	1.002
377.51	1.031
377.87	1.065
378.22	1.034
378.57	1.033
378.93	1.052
379.28	1.110
379.63	1.124
379.99	1.206
380.34	1.218
380.70	1.212
381.05	1.246
381.40	1.264
381.76	1.222
382.11	1.246
382.46	1.287
382.82	1.305
383.17	1.250
383.52	1.227
383.88	1.161
384.23	1.128
384.58	1.134
384.94	1.142
385.29	1.131
385.64	1.170
385.99	1.217
386.35	1.208
386.70	1.173
387.05	1.184
387.41	1.206
387.76	1.208
388.11	1.219
388.47	1.202
388.82	1.205
389.17	1.208
389.52	1.208
389.88	1.206
390.23	1.212
390.58	1.241
390.93	1.258
391.29	1.250
391.64	1.296
391.99	1.322
392.34	1.351
392.70	1.310
393.05	1.297
393.40	1.268
393.75	1.251
394.11	1.231
394.46	1.177
394.81	1.190
395.16	1.190
395.52	1.134
395.87	1.108
396.22	1.097
396.57	1.081
396.92	1.074
397.28	1.052
397.63	1.012
397.98	1.009
398.33	1.030
398.68	0.987
399.04	0.995
399.39	1.004
399.74	1.012
400.09	0.986
400.44	1.016
400.80	1.032
401.15	1.042
401.50	1.056
401.85	1.051
402.20	1.036
402.55	1.071
402.90	1.056
403.26	1.052
403.61	1.040
403.96	1.043
404.31	1.026
404.66	1.012
405.01	1.004
405.36	0.995
405.72	0.990
406.07	1.004
406.42	0.955
406.77	0.956
407.12	0.936
407.47	0.943
407.82	0.955
408.17	0.943
408.53	0.943
408.88	0.936
409.23	0.932
409.58	0.912
409.93	0.917
410.28	0.949
410.63	0.942
410.98	0.944
411.33	0.946
411.68	0.958
412.03	0.995
412.38	0.989
412.73	1.018
413.09	1.036
413.44	1.069
413.79	1.065
414.14	1.077
414.49	1.127
414.84	1.177
415.19	1.192
415.54	1.227
415.89	1.236
416.24	1.276
416.59	1.305
416.94	1.335
417.29	1.350
417.64	1.357
417.99	1.386
418.34	1.391
418.69	1.398
419.04	1.411
419.39	1.412
419.74	1.423
420.09	1.426
420.44	1.416
420.79	1.419
421.14	1.419
421.49	1.444
421.84	1.440
422.19	1.447
422.54	1.445
422.89	1.426
423.24	1.402
423.59	1.383
423.94	1.374
424.29	1.371
424.64	1.360
424.99	1.349
425.34	1.322
425.68	1.300
426.03	1.254
426.38	1.245
426.73	1.252
427.08	1.251
427.43	1.267
427.78	1.266
428.13	1.259
428.48	1.259
428.83	1.251
429.18	1.258
429.53	1.253
429.87	1.254
430.22	1.236
430.57	1.257
430.92	1.267
431.27	1.265
431.62	1.248
431.97	1.249
432.32	1.235
432.67	1.233
433.01	1.215
433.36	1.209
433.71	1.211
434.06	1.211
434.41	1.170
434.76	1.180
435.11	1.164
435.45	1.172
435.80	1.175
436.15	1.193
436.50	1.221
436.85	1.239
437.20	1.237
437.54	1.239
437.89	1.247
438.24	1.269
438.59	1.251
438.94	1.258
439.29	1.249
439.63	1.263
439.98	1.243
440.33	1.218
440.68	1.221
441.03	1.240
441.37	1.260
441.72	1.273
442.07	1.266
442.42	1.284
442.76	1.291
443.11	1.303
443.46	1.305
443.81	1.323
444.16	1.339
444.50	1.331
444.85	1.315
445.20	1.311
445.55	1.301
445.89	1.301
446.24	1.292
446.59	1.274
446.94	1.255
447.28	1.237
447.63	1.214
447.98	1.192
448.32	1.179
448.67	1.179
449.02	1.143
449.37	1.114
449.71	1.112
450.06	1.104
450.41	1.112
450.75	1.112
451.10	1.098
451.45	1.079
451.79	1.073
452.14	1.064
452.49	1.063
452.84	1.076
453.18	1.076
453.53	1.054
453.88	1.044
454.22	1.051
454.57	1.072
454.92	1.084
455.26	1.121
455.61	1.143
455.95	1.176
456.30	1.195
456.65	1.222
456.99	1.248
457.34	1.272
457.69	1.285
458.03	1.290
458.38	1.296
458.73	1.297
459.07	1.273
459.42	1.253
459.76	1.222
460.11	1.199
460.46	1.163
460.80	1.132
461.15	1.113
461.49	1.081
461.84	1.061
462.19	1.028
462.53	1.023
462.88	1.032
463.22	1.024
463.57	1.024
463.91	1.020
464.26	1.033
464.61	1.030
464.95	1.013
465.30	1.022
465.64	1.018
465.99	1.028
466.33	1.012
466.68	1.000
467.02	0.998
467.37	0.999
467.71	0.980
468.06	0.979
468.41	0.959
468.75	0.965
469.10	0.970
469.44	0.950
469.79	0.928
470.13	0.894
470.48	0.888
470.82	0.877
471.17	0.879
471.51	0.882
471.86	0.855
472.20	0.851
472.55	0.849
472.89	0.838
473.23	0.828
473.58	0.823
473.92	0.837
474.27	0.828
474.61	0.808
474.96	0.806
475.30	0.806
475.65	0.801
475.99	0.806
476.34	0.797
476.68	0.778
477.02	0.801
477.37	0.814
477.71	0.852
478.06	0.890
478.40	0.971
478.75	1.031
479.09	1.112
479.43	1.206
479.78	1.283
480.12	1.363
480.47	1.446
480.81	1.513
481.15	1.574
481.50	1.640
481.84	1.703
482.19	1.754
482.53	1.801
482.87	1.833
483.22	1.827
483.56	1.807
483.90	1.772
484.25	1.719
484.59	1.674
484.94	1.631
485.28	1.574
485.62	1.522
485.97	1.468
486.31	1.416
486.65	1.371
487.00	1.351
487.34	1.345
487.68	1.343
488.03	1.348
488.37	1.345
488.71	1.338
489.06	1.326
489.40	1.318
489.74	1.300
490.09	1.291
490.43	1.272
490.77	1.240
491.11	1.200
491.46	1.169
491.80	1.133
492.14	1.081
492.49	1.055
492.83	1.023
493.17	0.971
493.51	0.928
493.86	0.878
494.20	0.837
494.54	0.826
494.88	0.839
495.23	0.835
495.57	0.848
495.91	0.872
496.25	0.870
496.60	0.863
496.94	0.862
497.28	0.863
497.62	0.868
497.97	0.861
498.31	0.848
498.65	0.837
498.99	0.817
499.33	0.809
499.68	0.802
500.02	0.795
500.36	0.797
500.70	0.802
501.04	0.797
501.39	0.781
501.73	0.791
502.07	0.815
502.41	0.827
502.75	0.860
503.09	0.866
503.44	0.876
503.78	0.884
504.12	0.890
504.46	0.906
504.80	0.930
505.14	0.970
505.49	0.998
505.83	1.013
506.17	1.024
506.51	1.038
506.85	1.071
507.19	1.088
507.53	1.109
507.87	1.138
508.22	1.148
508.56	1.162
508.90	1.164
509.24	1.183
509.58	1.190
509.92	1.217
510.26	1.216
510.60	1.227
510.94	1.250
511.28	1.253
511.63	1.276
511.97	1.305
512.31	1.321
512.65	1.358
512.99	1.396
513.33	1.458
513.67	1.513
514.01	1.603
514.35	1.667
514.69	1.735
515.03	1.816
515.37	1.885
515.71	1.947
516.05	2.023
516.39	2.080
516.73	2.126
517.07	2.155
517.41	2.178
517.75	2.199
518.09	2.218
518.43	2.228
518.77	2.231
519.11	2.245
519.45	2.260
519.79	2.277
520.13	2.286
520.47	2.317
520.81	2.365
521.15	2.437
521.49	2.493
521.83	2.561
522.17	2.642
522.51	2.742
522.85	2.839
523.19	2.971
523.53	3.119
523.87	3.276
524.21	3.419
524.55	3.548
524.89	3.648
525.23	3.763
525.57	3.861
525.91	3.954
526.25	4.035
526.58	4.110
526.92	4.158
527.26	4.189
527.60	4.206
527.94	4.229
528.28	4.239
528.62	4.252
528.96	4.249
529.30	4.249
529.64	4.255
529.97	4.251
530.31	4.242
530.65	4.243
530.99	4.262
531.33	4.290
531.67	4.302
532.01	4.327
532.35	4.337
532.68	4.353
533.02	4.361
533.36	4.356
533.70	4.366
534.04	4.375
534.38	4.384
534.71	4.374
535.05	4.357
535.39	4.365
535.73	4.373
536.07	4.405
536.41	4.433
536.74	4.478
537.08	4.522
537.42	4.578
537.76	4.637
538.10	4.694
538.43	4.749
538.77	4.806
539.11	4.845
539.45	4.884
539.79	4.914
540.12	4.948
540.46	4.960
540.80	4.966
541.14	4.961
541.47	4.937
541.81	4.923
542.15	4.906
542.49	4.884
542.82	4.854
543.16	4.831
543.50	4.816
543.84	4.781
544.17	4.756
544.51	4.749
544.85	4.723
545.18	4.713
545.52	4.685
545.86	4.659
546.20	4.649
546.53	4.629
546.87	4.597
547.21	4.571
547.54	4.544
547.88	4.536
548.22	4.499
548.55	4.478
548.89	4.479
549.23	4.482
549.56	4.489
549.90	4.522
550.24	4.546
550.57	4.566
550.91	4.548
551.25	4.552
551.58	4.533
551.92	4.535
552.26	4.538
552.59	4.532
552.93	4.530
553.27	4.516
553.60	4.459
553.94	4.416
554.27	4.384
554.61	4.385
554.95	4.357
555.28	4.357
555.62	4.335
555.95	4.327
556.29	4.319
556.63	4.289
556.96	4.285
557.30	4.272
557.63	4.264
557.97	4.244
558.31	4.200
558.64	4.182
558.98	4.165
559.31	4.173
559.65	4.142
559.98	4.108
560.32	4.084
560.65	4.052
560.99	4.059
561.33	4.034
561.66	4.027
562.00	4.045
562.33	4.044
562.67	4.037
563.00	4.005
563.34	3.998
563.67	3.986
564.01	3.971
564.34	3.970
564.68	3.935
565.01	3.922
565.35	3.881
565.68	3.841
566.02	3.814
566.35	3.766
566.69	3.729
567.02	3.705
567.36	3.675
567.69	3.665
568.03	3.644
568.36	3.614
568.69	3.595
569.03	3.583
569.36	3.565
569.70	3.533
570.03	3.531
570.37	3.518
570.70	3.488
571.04	3.470
571.37	3.429
571.70	3.394
572.04	3.376
572.37	3.350
572.71	3.320
573.04	3.281
573.37	3.266
573.71	3.210
574.04	3.157
574.38	3.130
574.71	3.095
575.04	3.061
575.38	3.022
575.71	2.974
576.05	2.926
576.38	2.895
576.71	2.854
577.05	2.802
577.38	2.781
577.71	2.745
578.05	2.692
578.38	2.631
578.71	2.608
579.05	2.561
579.38	2.494
579.71	2.438
580.05	2.392
580.38	2.367
580.71	2.332
581.05	2.301
581.38	2.296
581.71	2.282
582.05	2.272
582.38	2.261
582.71	2.248
583.04	2.266
583.38	2.281
583.71	2.291
584.04	2.305
584.38	2.312
584.71	2.314
585.04	2.323
585.37	2.328
585.71	2.337
586.04	2.337
586.37	2.365
586.70	2.397
587.04	2.407
587.37	2.406
587.70	2.391
588.03	2.397
588.37	2.405
588.70	2.392
589.03	2.382
589.36	2.388
589.69	2.356
590.03	2.316
590.36	2.280
590.69	2.241
591.02	2.211
591.35	2.181
591.69	2.155
592.02	2.138
592.35	2.133
592.68	2.138
593.01	2.113
593.35	2.125
593.68	2.140
594.01	2.159
594.34	2.152
594.67	2.178
595.00	2.180
595.34	2.176
595.67	2.131
596.00	2.114
596.33	2.071
596.66	2.052
596.99	2.029
597.32	1.974
597.65	1.926
597.99	1.888
598.32	1.813
598.65	1.764
598.98	1.725
599.31	1.738
599.64	1.740
599.97	1.765
600.30	1.767
600.63	1.775
600.96	1.792
601.30	1.787
601.63	1.831
601.96	1.846
602.29	1.851
602.62	1.841
602.95	1.834
603.28	1.824
603.61	1.783
603.94	1.747
604.27	1.713
604.60	1.681
604.93	1.665
605.26	1.620
605.59	1.593
605.92	1.579
606.25	1.578
606.58	1.565
606.91	1.510
607.24	1.515
607.57	1.518
607.90	1.482
608.23	1.450
608.56	1.431
608.89	1.397
609.22	1.381
609.55	1.338
609.88	1.287
610.21	1.215
610.54	1.176
610.87	1.105
611.20	1.033
611.53	0.998
611.86	0.947
612.19	0.865
612.52	0.813
612.85	0.777
613.18	0.757
613.51	0.713
613.84	0.700
614.17	0.684
614.49	0.689
614.82	0.688
615.15	0.665
615.48	0.691
615.81	0.681
616.14	0.677
616.47	0.633
616.80	0.584
617.13	0.583
617.46	0.557
617.78	0.531
618.11	0.469
618.44	0.432
618.77	0.419
619.10	0.364
619.43	0.390
619.76	0.365
620.09	0.387
620.41	0.406
620.74	0.407
621.07	0.431
621.40	0.474
621.73	0.508
622.06	0.554
622.38	0.558
622.71	0.615
623.04	0.619
623.37	0.671
623.70	0.689
624.02	0.723
624.35	0.761
624.68	0.768
625.01	0.775
625.34	0.818
625.66	0.816
625.99	0.851
626.32	0.851
626.65	0.859
626.98	0.842
627.30	0.819
627.63	0.776
627.96	0.720
628.29	0.687
628.61	0.666
628.94	0.620
629.27	0.577
629.60	0.516
629.92	0.491
630.25	0.452
630.58	0.417
630.91	0.408
631.23	0.391
631.56	0.391
631.89	0.373
632.21	0.336
632.54	0.289
632.87	0.268
633.19	0.254
633.52	0.199
633.85	0.166
634.18	0.130
634.50	0.046
634.83	0.013
635.16	-0.043
635.48	-0.068
635.81	-0.129
636.14	-0.172
636.46	-0.190
636.79	-0.227
637.11	-0.263
637.44	-0.324
637.77	-0.373
638.09	-0.415
638.42	-0.465
638.75	-0.485
639.07	-0.502
639.40	-0.507
639.73	-0.523
640.05	-0.555
640.38	-0.549
640.70	-0.593
641.03	-0.580
641.36	-0.582
641.68	-0.533
642.01	-0.495
642.33	-0.514
642.66	-0.569
642.98	-0.552
643.31	-0.535
643.64	-0.548
643.96	-0.539
644.29	-0.475
644.61	-0.440
644.94	-0.415
645.26	-0.391
645.59	-0.334
645.91	-0.292
646.24	-0.246
646.56	-0.257
646.89	-0.249
647.22	-0.246
647.54	-0.249
647.87	-0.260
648.19	-0.297
648.52	-0.290
648.84	-0.307
649.17	-0.382
649.49	-0.379
649.82	-0.368
650.14	-0.348
650.47	-0.354
650.79	-0.310
651.11	-0.329
651.44	-0.316
651.76	-0.313
652.09	-0.282
652.41	-0.263
652.74	-0.222
653.06	-0.226
653.39	-0.206
653.71	-0.172
654.04	-0.167
654.36	-0.166
654.68	-0.122
655.01	-0.078
655.33	-0.021
655.66	-0.034
655.98	0.005
656.30	-0.002
656.63	0.026
656.95	0.064
657.28	0.071
657.60	0.094
657.92	0.071
658.25	0.030
658.57	0.023
658.90	-0.003
659.22	-0.031
659.54	-0.065
659.87	-0.056
660.19	-0.090
660.51	-0.168
660.84	-0.247
661.16	-0.303
661.48	-0.301
661.81	-0.274
662.13	-0.288
662.45	-0.305
662.78	-0.308
663.10	-0.305
663.42	-0.286
663.75	-0.240
664.07	-0.246
664.39	-0.215
664.72	-0.179
665.04	-0.191
665.36	-0.166
665.69	-0.200
666.01	-0.137
666.33	-0.048
666.65	-0.021
666.98	0.052
667.30	0.124
667.62	0.238
667.94	0.312
668.27	0.418
668.59	0.543
668.91	0.627
669.23	0.741
669.56	0.830
669.88	0.878
670.20	0.927
670.52	0.981
670.85	0.998
671.17	1.053
671.49	1.129
671.81	1.204
672.13	1.300
672.46	1.389
672.78	1.454
673.10	1.567
673.42	1.679
673.74	1.823
674.07	1.890
674.39	2.071
674.71	2.154
675.03	2.349
675.35	2.492
675.67	2.561
676.00	2.653
676.32	2.746
676.64	2.800
676.96	2.938
677.28	3.039
677.60	3.171
677.92	3.263
678.25	3.412
678.57	3.457
678.89	3.509
679.21	3.622
679.53	3.724
679.85	3.814
680.17	3.901
680.49	3.948
680.81	4.037
681.13	4.049
681.46	4.092
681.78	4.133
682.10	4.252
682.42	4.334
682.74	4.468
683.06	4.529
683.38	4.680
683.70	4.807
684.02	4.894
684.34	5.039
684.66	5.204
684.98	5.308
685.30	5.385
685.62	5.402
685.94	5.493
686.26	5.471
686.58	5.495
686.90	5.509
687.22	5.466
687.54	5.439
687.86	5.339
688.18	5.272
688.50	5.238
688.82	5.187
689.14	5.141
689.46	5.086
689.78	5.037
690.10	5.036
690.42	5.010
690.74	5.072
691.06	5.111
691.38	5.128
691.70	5.188
692.02	5.173
692.34	5.254
692.66	5.333
692.98	5.337
693.30	5.427
693.62	5.503
693.94	5.591
694.26	5.626
694.57	5.725
694.89	5.882
695.21	5.976
695.53	6.141
695.85	6.218
696.17	6.335
696.49	6.554
696.81	6.710
697.13	6.853
697.44	7.022
697.76	7.197
698.08	7.373
698.40	7.542
698.72	7.709
699.04	7.891
699.36	8.155
699.67	8.335
699.99	8.508
700.31	8.738
700.63	8.980
700.95	9.220
701.27	9.457
701.58	9.647
701.90	9.815
702.22	10.107
702.54	10.340
702.86	10.503
703.17	10.712
703.49	10.913
703.81	11.128
704.13	11.288
704.45	11.426
704.76	11.674
705.08	11.966
705.40	12.232
705.72	12.439
706.03	12.692
706.35	12.925
706.67	13.237
706.99	13.496
707.30	13.815
707.62	14.113
707.94	14.423
708.26	14.604
708.57	14.834
708.89	15.124
709.21	15.369
709.53	15.602
709.84	15.952
710.16	16.257
710.48	16.510
710.79	16.776
711.11	17.127
711.43	17.411
711.74	17.718
712.06	18.061
712.38	18.324
712.69	18.661
713.01	19.004
713.33	19.326
713.64	19.716
713.96	20.138
714.28	20.499
714.59	20.851
714.91	21.286
715.23	21.764
715.54	22.075
715.86	22.538
716.17	22.950
716.49	23.405
716.81	23.820
717.12	24.143
717.44	24.482
717.76	24.928
718.07	25.265
718.39	25.572
718.70	25.892
719.02	26.241
719.33	26.504
719.65	26.747
719.97	26.906
720.28	27.207
720.60	27.601
720.91	27.988
721.23	28.272
721.54	28.679
721.86	28.995
722.17	29.289
722.49	29.653
722.81	29.990
723.12	30.424
723.44	30.915
723.75	31.195
724.07	31.471
724.38	31.718
724.70	32.090
725.01	32.385
725.33	32.702
725.64	33.089
725.96	33.484
726.27	33.708
726.59	33.942
726.90	34.230
727.22	34.390
727.53	34.631
727.84	34.955
728.16	35.043
728.47	35.231
728.79	35.592
729.10	35.749
729.42	35.896
729.73	36.211
730.05	36.403
730.36	36.521
730.67	36.795
730.99	37.021
731.30	37.064
731.62	37.331
731.93	37.592
732.24	37.682
732.56	37.899
732.87	38.106
733.19	38.288
733.50	38.468
733.81	38.548
734.13	38.773
734.44	38.932
734.76	39.162
735.07	39.303
735.38	39.410
735.70	39.697
736.01	39.952
736.32	40.166
736.64	40.406
736.95	40.672
737.26	40.966
737.58	41.260
737.89	41.460
738.20	41.724
738.52	41.863
738.83	41.970
739.14	42.071
739.45	42.120
739.77	42.286
740.08	42.429
740.39	42.765
740.71	42.992
741.02	43.107
741.33	43.268
741.64	43.409
741.96	43.559
742.27	43.721
742.58	43.772
742.90	44.019
743.21	44.032
743.52	44.184
743.83	43.968
744.14	44.063
744.46	44.170
744.77	44.251
745.08	44.290
745.39	44.449
745.71	44.547
746.02	44.588
746.33	44.486
746.64	44.591
746.95	44.607
747.27	44.795
747.58	44.795
747.89	44.849
748.20	44.686
748.51	44.797
748.82	44.760
749.14	44.842
749.45	44.957
749.76	45.188
750.07	45.351
750.38	45.250
750.69	45.163
751.01	45.234
751.32	45.182
751.63	45.357
751.94	45.289
752.25	45.270
752.56	45.246
752.87	45.234
753.18	45.086
753.49	45.048
753.81	45.142
754.12	45.307
754.43	45.372
754.74	45.279
755.05	45.361
755.36	45.576
755.67	45.719
755.98	45.911
756.29	45.853
756.60	46.173
756.91	46.166
757.22	46.293
757.53	46.308
757.84	46.468
758.15	46.744
758.46	46.954
758.77	46.933
759.09	47.002
759.40	46.919
759.71	46.975
760.02	46.842
760.33	46.841
760.64	46.642
760.95	46.665
761.26	46.518
761.57	46.431
761.88	46.274
762.18	46.252
762.49	46.112
762.80	46.106
763.11	46.155
763.42	46.125
763.73	46.094
764.04	46.230
764.35	46.191
764.66	46.081
764.97	46.032
765.28	45.987
765.59	45.777
765.90	45.560
766.21	45.273
766.52	44.921
766.83	44.594
767.14	44.470
767.44	44.107
767.75	43.819
768.06	43.689
768.37	43.359
768.68	43.120
768.99	43.020
769.30	43.089
769.61	43.036
769.91	42.923
770.22	42.804
770.53	42.461
770.84	42.561
771.15	42.489
771.46	42.334
771.77	42.481
772.07	42.357
772.38	42.438
772.69	42.489
773.00	42.516
773.31	42.817
773.61	42.931
773.92	43.137
774.23	42.979
774.54	43.003
774.85	42.948
775.15	42.623
775.46	42.752
775.77	42.637
776.08	42.466
776.39	42.336
776.69	42.265
777.00	42.314
777.31	42.258
777.62	42.074
777.92	41.861
778.23	42.201
778.54	42.296
778.85	42.093
779.15	42.061
779.46	42.181
779.77	42.414
780.07	42.369
780.38	42.539
780.69	42.351
781.00	42.683
781.30	42.843
781.61	42.427
781.92	42.523
782.22	42.837
782.53	42.995
782.84	43.219
783.14	43.303
783.45	43.150
783.76	43.128
784.06	43.173
784.37	43.180
784.68	43.095
784.98	43.622
785.29	43.826
785.60	43.689
785.90	43.730
786.21	43.511
786.51	43.404
786.82	43.800
787.13	43.891
787.43	44.094
787.74	44.452
788.04	44.628
788.35	44.562
788.66	44.543
788.96	44.800
789.27	44.789
789.57	44.817
789.88	44.920
790.19	44.493
790.49	44.343
790.80	44.250
791.10	43.843
791.41	43.997
791.71	43.883
792.02	43.787
792.32	43.448
792.63	43.281
792.93	43.390
793.24	43.231
793.54	43.249
793.85	42.967
794.15	43.188
794.46	43.093
794.76	42.911
795.07	43.074
795.37	43.279
795.68	43.474
795.98	43.624
796.29	43.771
796.59	43.928
796.90	44.319
797.20	44.564
797.51	44.508
797.81	44.385
798.12	44.390
798.42	44.160
798.72	44.142
799.03	44.275
799.33	44.446
799.64	44.125
799.94	44.383
800.25	43.948
800.55	43.843
800.85	43.977
801.16	44.207
801.46	44.141
801.77	44.443
802.07	44.374
802.37	44.083
802.68	43.888
802.98	44.078
803.28	43.472
803.59	43.895
803.89	44.252
804.20	44.462
804.50	44.550
804.80	44.582
805.11	44.374
805.41	44.434
805.71	44.434
806.02	44.532
806.32	44.432
806.62	44.882
806.93	44.682
807.23	44.749
807.53	44.689
807.83	45.014
808.14	45.127
808.44	45.183
808.74	44.966
809.05	45.023
809.35	44.991
809.65	45.588
809.95	45.777
810.26	45.652
810.56	45.451
810.86	45.517
811.16	45.224
811.47	45.647
811.77	46.445
812.07	46.689
812.37	46.950
812.68	47.221
812.98	47.283
813.28	47.596
813.58	48.518
813.88	48.344
814.19	48.971
814.49	49.391
814.79	49.347
815.09	49.271
815.39	49.620
815.70	49.917
816.00	49.973
816.30	49.514
816.60	48.977
816.90	48.321
817.20	48.269
817.50	47.767
817.81	47.449
818.11	47.356
818.41	47.137
818.71	47.073
819.01	47.110
819.31	47.186
819.61	47.417
819.92	47.767
820.22	48.117
820.52	48.425
820.82	48.632
821.12	48.957
821.42	49.226
821.72	49.428
822.02	49.753
822.32	50.072
822.62	50.349
822.92	50.610
823.22	50.817
823.52	50.980
823.83	51.088
824.13	51.237
824.43	51.100
824.73	51.240
825.03	51.321
825.33	51.421
825.63	51.304
825.93	51.225
826.23	51.193
826.53	51.034
826.83	50.913
827.13	51.119
827.43	51.067
827.73	51.610
828.03	51.641
828.33	52.025
828.63	51.840
828.93	51.960
829.23	52.018
829.53	51.797
829.83	51.529
830.13	51.138
830.42	50.251
830.72	50.096
831.02	49.685
831.32	49.428
831.62	48.950
831.92	48.887
832.22	48.799
832.52	48.789
832.82	49.064
833.12	49.249
833.42	49.469
833.72	49.899
834.01	49.983
834.31	50.126
834.61	50.267
834.91	50.832
835.21	50.941
835.51	50.979
835.81	51.058
836.11	51.021
836.40	51.211
836.70	51.339
837.00	51.266
837.30	51.049
837.60	51.002
837.90	51.314
838.19	50.896
838.49	50.570
838.79	50.432
839.09	50.422
839.39	50.313
839.68	50.155
839.98	49.615
840.28	49.246
840.58	49.954
840.88	49.380
841.17	48.423
841.47	47.854
841.77	47.972
842.07	48.720
842.36	49.017
842.66	48.072
842.96	46.890
843.26	46.602
843.55	46.720
843.85	44.492
844.15	44.982
844.45	44.800
844.74	45.271
845.04	44.306
845.34	42.931
845.63	42.727
845.93	44.405
846.23	45.290
846.53	45.162
846.82	44.803
847.12	46.312
847.42	45.621
847.71	45.060
848.01	44.829
848.31	45.746
848.60	45.240
848.90	44.879
849.19	45.171
849.49	45.253
849.79	47.872
850.08	47.859
850.38	46.787
850.68	47.023
850.97	49.273
851.27	48.983
851.56	49.836
851.86	51.860
852.16	52.650
852.45	51.434
852.75	52.807
853.04	53.154
853.34	53.777
853.64	54.285
853.93	52.430
854.23	50.964
854.52	51.001
854.82	50.505
855.11	49.440
855.41	49.641
855.70	50.381
856.00	48.171
856.30	45.635
856.59	46.725
856.89	49.614
857.18	51.067
857.48	50.687
857.77	48.822
858.07	48.782
858.36	47.552
858.66	45.659
858.95	45.230
859.25	46.019
859.54	47.434
859.84	45.355
860.13	42.927
860.42	43.610
860.72	43.739
861.01	45.431
861.31	46.732
861.60	48.505
861.90	50.628
862.19	51.108
862.49	51.272
862.78	49.985
863.07	50.698
863.37	49.514
863.66	48.278
863.96	50.140
864.25	50.267
864.54	50.103
864.84	49.486
865.13	47.962
865.43	48.174
865.72	49.962
866.01	62.792
866.31	49.095
866.60	42.652
866.89	54.950
>>>>>End Spectral Data<<<<<
