OOIBase32 Version 2.0.0.6 Data File
++++++++++++++++++++++++++++++++++++
Date: 01-23-2012, 23:06:13
User: Valued Ocean Optics Customer
Spectrometer Serial Number: USB2E2917
Spectrometer Channel: Master
Integration Time (msec): 5
Spectra Averaged: 10
Boxcar Smoothing: 5
Correct for Electrical Dark: Enabled
Time Normalized: Disabled
Dual-beam Reference: Disabled
Reference Channel: Master
Temperature: Not acquired
Spectrometer Type: S2000
ADC Type: USB2000
Number of Pixels in File: 2048
Graph Title: 
>>>>>Begin Spectral Data<<<<<
180.30	0.000
180.67	0.000
181.03	55.437
181.40	467.469
181.77	937.920
182.14	116.474
182.51	-628.095
182.88	77.830
183.25	0.403
183.62	7.547
183.99	246.195
184.36	-23.666
184.73	129.838
185.10	-88.346
185.46	-522.852
185.83	-75.028
186.20	-103.966
186.57	-54.261
186.94	101.269
187.31	41.766
187.68	35.460
188.05	122.817
188.42	136.425
188.78	196.898
189.15	666.319
189.52	-120.674
189.89	-34.400
190.26	-6.189
190.63	-4.635
191.00	6.080
191.37	11.395
191.73	36.315
192.10	39.588
192.47	41.291
192.84	47.518
193.21	56.247
193.58	50.489
193.94	58.908
194.31	60.013
194.68	71.853
195.05	61.256
195.42	62.612
195.79	52.384
196.15	72.514
196.52	71.565
196.89	69.805
197.26	53.703
197.63	56.037
198.00	29.885
198.36	31.336
198.73	16.138
199.10	23.359
199.47	22.231
199.84	15.187
200.20	-5.136
200.57	-8.211
200.94	-20.044
201.31	-15.455
201.68	-33.559
202.04	-8.030
202.41	-21.291
202.78	-39.488
203.15	-41.092
203.51	-40.635
203.88	-42.271
204.25	-29.200
204.62	-37.656
204.98	-22.600
205.35	-33.608
205.72	-21.073
206.09	-29.956
206.46	-69.737
206.82	-26.571
207.19	-19.468
207.56	-65.064
207.92	-53.249
208.29	-70.423
208.66	-23.198
209.03	-37.643
209.39	-14.429
209.76	-12.040
210.13	-35.269
210.50	-17.078
210.86	-23.343
211.23	-45.767
211.60	-23.312
211.96	-18.974
212.33	-14.300
212.70	-31.621
213.07	-32.195
213.43	-58.279
213.80	-54.662
214.17	-22.648
214.53	-11.764
214.90	-10.365
215.27	-0.656
215.63	2.725
216.00	8.823
216.37	5.616
216.74	-8.989
217.10	-9.703
217.47	-10.284
217.84	-8.439
218.20	-19.188
218.57	-13.324
218.94	-9.637
219.30	-13.809
219.67	-14.897
220.04	-17.337
220.40	-16.535
220.77	-15.333
221.13	-8.131
221.50	-12.153
221.87	-9.455
222.23	-3.943
222.60	-16.407
222.97	-14.823
223.33	-9.480
223.70	-6.626
224.07	-6.462
224.43	-7.285
224.80	-3.344
225.16	-5.344
225.53	-2.593
225.90	-6.817
226.26	-5.312
226.63	-2.483
226.99	-1.648
227.36	-1.266
227.73	-1.444
228.09	-1.586
228.46	1.097
228.82	1.258
229.19	-0.182
229.56	-1.107
229.92	2.184
230.29	2.889
230.65	1.491
231.02	-1.872
231.38	-4.322
231.75	-6.949
232.12	-8.429
232.48	-12.125
232.85	-13.213
233.21	-11.442
233.58	-11.096
233.94	-11.506
234.31	-12.096
234.68	-10.235
235.04	-6.743
235.41	-5.787
235.77	-3.872
236.14	-2.037
236.50	0.506
236.87	0.468
237.23	0.944
237.60	0.817
237.96	0.855
238.33	0.136
238.69	-0.602
239.06	-1.537
239.42	-1.396
239.79	-1.750
240.15	-1.652
240.52	-1.822
240.88	-1.026
241.25	-0.884
241.61	-0.530
241.98	-1.002
242.34	-0.869
242.71	-0.465
243.07	-0.005
243.44	-0.085
243.80	-0.005
244.17	0.013
244.53	-0.187
244.90	-0.318
245.26	-0.352
245.63	-0.636
245.99	-0.771
246.36	-0.697
246.72	-0.704
247.09	-0.889
247.45	-0.606
247.81	-0.245
248.18	-0.407
248.54	-0.428
248.91	-0.937
249.27	-0.787
249.64	-0.373
250.00	-0.174
250.36	-0.755
250.73	-0.938
251.09	-0.815
251.46	-1.166
251.82	-1.130
252.19	-1.052
252.55	-0.796
252.91	0.149
253.28	-0.164
253.64	-1.112
254.01	-0.934
254.37	-0.153
254.73	0.661
255.10	1.006
255.46	1.213
255.83	1.012
256.19	1.113
256.55	0.926
256.92	0.856
257.28	0.857
257.65	1.315
258.01	1.373
258.37	1.087
258.74	0.563
259.10	0.326
259.46	0.038
259.83	-0.076
260.19	-0.264
260.55	-0.322
260.92	-0.414
261.28	-0.417
261.64	-0.485
262.01	-0.616
262.37	-0.386
262.73	0.091
263.10	0.174
263.46	0.497
263.82	0.529
264.19	0.713
264.55	0.358
264.91	0.089
265.28	0.072
265.64	-0.092
266.00	-0.308
266.37	-0.288
266.73	-0.382
267.09	-0.334
267.46	-0.465
267.82	-0.728
268.18	-0.700
268.54	-0.429
268.91	-0.333
269.27	-0.202
269.63	-0.039
270.00	0.176
270.36	0.021
270.72	0.125
271.08	0.055
271.45	0.147
271.81	0.329
272.17	0.078
272.53	0.172
272.90	0.232
273.26	0.045
273.62	-0.124
273.98	-0.288
274.35	-0.394
274.71	-0.347
275.07	-0.003
275.43	0.062
275.80	0.152
276.16	0.268
276.52	0.164
276.88	0.099
277.25	-0.130
277.61	-0.292
277.97	-0.324
278.33	-0.064
278.69	-0.412
279.06	-0.606
279.42	-0.804
279.78	-0.809
280.14	-0.766
280.50	-0.692
280.87	-0.702
281.23	-0.498
281.59	-0.218
281.95	0.045
282.31	0.137
282.68	0.197
283.04	-0.020
283.40	0.153
283.76	0.268
284.12	0.432
284.48	0.511
284.85	0.575
285.21	0.607
285.57	0.526
285.93	0.460
286.29	0.355
286.65	0.482
287.02	0.903
287.38	0.828
287.74	0.631
288.10	0.527
288.46	0.461
288.82	0.272
289.18	0.222
289.54	0.179
289.91	0.099
290.27	0.146
290.63	0.176
290.99	-0.068
291.35	-0.031
291.71	0.187
292.07	0.063
292.43	0.108
292.79	0.351
293.16	0.395
293.52	0.512
293.88	0.656
294.24	0.614
294.60	0.525
294.96	0.458
295.32	0.491
295.68	0.344
296.04	0.420
296.40	0.374
296.76	0.346
297.12	0.385
297.49	0.221
297.85	0.021
298.21	-0.032
298.57	-0.281
298.93	-0.167
299.29	-0.376
299.65	-0.355
300.01	-0.365
300.37	-0.342
300.73	-0.260
301.09	-0.323
301.45	-0.305
301.81	-0.191
302.17	-0.064
302.53	0.037
302.89	-0.079
303.25	0.044
303.61	0.145
303.97	0.052
304.33	0.113
304.69	-0.009
305.05	-0.055
305.41	-0.129
305.77	-0.061
306.13	-0.117
306.49	0.012
306.85	0.156
307.21	0.218
307.57	0.205
307.93	0.205
308.29	0.291
308.65	0.397
309.01	0.396
309.37	0.499
309.73	0.420
310.09	0.497
310.45	0.521
310.81	0.457
311.17	0.341
311.53	0.252
311.89	0.381
312.25	0.242
312.61	0.147
312.96	0.180
313.32	0.220
313.68	0.171
314.04	0.063
314.40	0.031
314.76	-0.105
315.12	-0.099
315.48	-0.144
315.84	-0.241
316.20	-0.189
316.56	-0.227
316.92	-0.220
317.27	-0.303
317.63	-0.244
317.99	-0.250
318.35	-0.267
318.71	-0.127
319.07	0.042
319.43	0.048
319.79	0.170
320.15	0.169
320.50	0.239
320.86	0.314
321.22	0.305
321.58	0.284
321.94	0.223
322.30	0.192
322.66	0.105
323.01	0.032
323.37	0.037
323.73	-0.018
324.09	-0.028
324.45	0.015
324.81	-0.054
325.17	0.004
325.52	-0.038
325.88	-0.044
326.24	0.015
326.60	0.047
326.96	-0.028
327.31	-0.108
327.67	-0.173
328.03	-0.264
328.39	-0.285
328.75	-0.296
329.11	-0.177
329.46	-0.060
329.82	0.067
330.18	0.030
330.54	-0.007
330.90	-0.017
331.25	0.086
331.61	0.209
331.97	0.252
332.33	0.250
332.68	0.347
333.04	0.215
333.40	0.101
333.76	0.072
334.11	0.157
334.47	0.147
334.83	0.127
335.19	0.084
335.54	0.004
335.90	0.004
336.26	-0.048
336.62	-0.241
336.97	-0.273
337.33	-0.258
337.69	-0.312
338.05	-0.470
338.40	-0.463
338.76	-0.405
339.12	-0.304
339.48	-0.319
339.83	-0.290
340.19	-0.261
340.55	-0.138
340.90	-0.171
341.26	-0.131
341.62	-0.201
341.97	-0.195
342.33	-0.197
342.69	-0.180
343.04	-0.238
343.40	-0.338
343.76	-0.464
344.12	-0.485
344.47	-0.485
344.83	-0.358
345.19	-0.275
345.54	-0.157
345.90	-0.106
346.26	-0.020
346.61	-0.035
346.97	-0.055
347.32	0.091
347.68	0.158
348.04	0.135
348.39	0.112
348.75	0.085
349.11	-0.031
349.46	-0.119
349.82	-0.101
350.18	-0.177
350.53	-0.191
350.89	-0.223
351.24	-0.298
351.60	-0.278
351.96	-0.201
352.31	-0.217
352.67	-0.246
353.02	-0.268
353.38	-0.252
353.74	-0.228
354.09	-0.209
354.45	-0.150
354.80	-0.093
355.16	-0.040
355.52	-0.046
355.87	-0.105
356.23	-0.063
356.58	-0.022
356.94	0.042
357.29	0.083
357.65	0.108
358.00	0.109
358.36	0.036
358.72	0.041
359.07	0.038
359.43	0.081
359.78	0.147
360.14	0.116
360.49	0.034
360.85	0.012
361.20	-0.014
361.56	-0.075
361.91	-0.072
362.27	-0.069
362.62	-0.082
362.98	-0.054
363.33	-0.079
363.69	-0.142
364.04	-0.056
364.40	-0.001
364.75	0.014
365.11	0.012
365.46	-0.021
365.82	0.027
366.17	0.064
366.53	0.081
366.88	0.034
367.24	0.026
367.59	0.043
367.95	-0.010
368.30	-0.056
368.66	-0.065
369.01	-0.074
369.37	0.025
369.72	0.043
370.08	0.066
370.43	0.073
370.78	0.079
371.14	0.088
371.49	0.065
371.85	0.051
372.20	0.093
372.56	0.109
372.91	0.126
373.26	0.096
373.62	0.019
373.97	0.023
374.33	0.034
374.68	0.055
375.03	0.073
375.39	0.071
375.74	0.089
376.10	0.065
376.45	0.091
376.80	0.136
377.16	0.109
377.51	0.166
377.87	0.176
378.22	0.132
378.57	0.097
378.93	0.097
379.28	0.171
379.63	0.155
379.99	0.213
380.34	0.195
380.70	0.186
381.05	0.213
381.40	0.173
381.76	0.169
382.11	0.218
382.46	0.278
382.82	0.283
383.17	0.255
383.52	0.266
383.88	0.254
384.23	0.260
384.58	0.280
384.94	0.287
385.29	0.328
385.64	0.356
385.99	0.382
386.35	0.361
386.70	0.357
387.05	0.318
387.41	0.299
387.76	0.261
388.11	0.239
388.47	0.178
388.82	0.176
389.17	0.156
389.52	0.137
389.88	0.147
390.23	0.145
390.58	0.160
390.93	0.198
391.29	0.213
391.64	0.258
391.99	0.305
392.34	0.337
392.70	0.317
393.05	0.328
393.40	0.327
393.75	0.280
394.11	0.294
394.46	0.262
394.81	0.277
395.16	0.278
395.52	0.254
395.87	0.238
396.22	0.258
396.57	0.276
396.92	0.218
397.28	0.185
397.63	0.173
397.98	0.163
398.33	0.166
398.68	0.134
399.04	0.124
399.39	0.107
399.74	0.080
400.09	0.060
400.44	0.052
400.80	0.087
401.15	0.095
401.50	0.095
401.85	0.082
402.20	0.066
402.55	0.081
402.90	0.067
403.26	0.068
403.61	0.047
403.96	0.041
404.31	0.058
404.66	0.043
405.01	0.028
405.36	0.039
405.72	0.033
406.07	0.024
406.42	-0.013
406.77	-0.004
407.12	-0.014
407.47	0.001
407.82	-0.017
408.17	-0.056
408.53	-0.039
408.88	-0.048
409.23	-0.050
409.58	-0.085
409.93	-0.078
410.28	-0.059
410.63	-0.086
410.98	-0.082
411.33	-0.084
411.68	-0.045
412.03	-0.007
412.38	0.002
412.73	0.045
413.09	0.061
413.44	0.105
413.79	0.132
414.14	0.158
414.49	0.201
414.84	0.228
415.19	0.258
415.54	0.273
415.89	0.282
416.24	0.316
416.59	0.315
416.94	0.332
417.29	0.368
417.64	0.368
417.99	0.387
418.34	0.392
418.69	0.404
419.04	0.406
419.39	0.412
419.74	0.419
420.09	0.408
420.44	0.415
420.79	0.404
421.14	0.401
421.49	0.417
421.84	0.404
422.19	0.416
422.54	0.412
422.89	0.407
423.24	0.394
423.59	0.384
423.94	0.370
424.29	0.367
424.64	0.373
424.99	0.351
425.34	0.309
425.68	0.278
426.03	0.236
426.38	0.220
426.73	0.204
427.08	0.187
427.43	0.188
427.78	0.196
428.13	0.180
428.48	0.171
428.83	0.168
429.18	0.202
429.53	0.219
429.87	0.220
430.22	0.223
430.57	0.247
430.92	0.246
431.27	0.229
431.62	0.216
431.97	0.231
432.32	0.222
432.67	0.211
433.01	0.186
433.36	0.172
433.71	0.163
434.06	0.138
434.41	0.103
434.76	0.114
435.11	0.125
435.45	0.131
435.80	0.126
436.15	0.144
436.50	0.156
436.85	0.182
437.20	0.186
437.54	0.186
437.89	0.210
438.24	0.228
438.59	0.230
438.94	0.223
439.29	0.204
439.63	0.206
439.98	0.192
440.33	0.185
440.68	0.179
441.03	0.194
441.37	0.225
441.72	0.222
442.07	0.212
442.42	0.219
442.76	0.236
443.11	0.263
443.46	0.260
443.81	0.274
444.16	0.287
444.50	0.287
444.85	0.269
445.20	0.258
445.55	0.262
445.89	0.265
446.24	0.248
446.59	0.214
446.94	0.185
447.28	0.168
447.63	0.152
447.98	0.123
448.32	0.099
448.67	0.096
449.02	0.059
449.37	0.014
449.71	0.005
450.06	-0.010
450.41	0.007
450.75	0.017
451.10	0.016
451.45	-0.019
451.79	-0.040
452.14	-0.046
452.49	-0.058
452.84	-0.051
453.18	-0.055
453.53	-0.072
453.88	-0.067
454.22	-0.069
454.57	-0.055
454.92	-0.041
455.26	-0.003
455.61	0.052
455.95	0.085
456.30	0.105
456.65	0.137
456.99	0.173
457.34	0.200
457.69	0.208
458.03	0.224
458.38	0.225
458.73	0.225
459.07	0.213
459.42	0.187
459.76	0.157
460.11	0.127
460.46	0.086
460.80	0.054
461.15	0.017
461.49	-0.019
461.84	-0.040
462.19	-0.073
462.53	-0.095
462.88	-0.091
463.22	-0.106
463.57	-0.112
463.91	-0.103
464.26	-0.084
464.61	-0.093
464.95	-0.095
465.30	-0.093
465.64	-0.093
465.99	-0.082
466.33	-0.072
466.68	-0.087
467.02	-0.093
467.37	-0.091
467.71	-0.110
468.06	-0.126
468.41	-0.126
468.75	-0.131
469.10	-0.123
469.44	-0.156
469.79	-0.176
470.13	-0.214
470.48	-0.231
470.82	-0.240
471.17	-0.246
471.51	-0.255
471.86	-0.277
472.20	-0.290
472.55	-0.284
472.89	-0.285
473.23	-0.286
473.58	-0.286
473.92	-0.276
474.27	-0.279
474.61	-0.290
474.96	-0.289
475.30	-0.280
475.65	-0.278
475.99	-0.274
476.34	-0.287
476.68	-0.305
477.02	-0.298
477.37	-0.289
477.71	-0.267
478.06	-0.231
478.40	-0.149
478.75	-0.087
479.09	-0.003
479.43	0.084
479.78	0.157
480.12	0.223
480.47	0.293
480.81	0.350
481.15	0.394
481.50	0.442
481.84	0.489
482.19	0.515
482.53	0.546
482.87	0.565
483.22	0.570
483.56	0.562
483.90	0.540
484.25	0.514
484.59	0.493
484.94	0.468
485.28	0.442
485.62	0.404
485.97	0.366
486.31	0.336
486.65	0.305
487.00	0.274
487.34	0.255
487.68	0.245
488.03	0.232
488.37	0.211
488.71	0.204
489.06	0.184
489.40	0.180
489.74	0.173
490.09	0.155
490.43	0.132
490.77	0.107
491.11	0.074
491.46	0.051
491.80	0.020
492.14	-0.015
492.49	-0.040
492.83	-0.076
493.17	-0.129
493.51	-0.170
493.86	-0.212
494.20	-0.229
494.54	-0.244
494.88	-0.230
495.23	-0.222
495.57	-0.210
495.91	-0.187
496.25	-0.187
496.60	-0.180
496.94	-0.173
497.28	-0.169
497.62	-0.162
497.97	-0.169
498.31	-0.158
498.65	-0.168
498.99	-0.175
499.33	-0.156
499.68	-0.157
500.02	-0.153
500.36	-0.144
500.70	-0.123
501.04	-0.110
501.39	-0.105
501.73	-0.086
502.07	-0.057
502.41	-0.027
502.75	0.008
503.09	0.023
503.44	0.053
503.78	0.090
504.12	0.123
504.46	0.159
504.80	0.217
505.14	0.285
505.49	0.344
505.83	0.388
506.17	0.427
506.51	0.466
506.85	0.522
507.19	0.566
507.53	0.612
507.87	0.669
508.22	0.712
508.56	0.758
508.90	0.786
509.24	0.829
509.58	0.864
509.92	0.923
510.26	0.969
510.60	1.011
510.94	1.067
511.28	1.117
511.63	1.179
511.97	1.249
512.31	1.320
512.65	1.405
512.99	1.500
513.33	1.635
513.67	1.754
514.01	1.895
514.35	2.031
514.69	2.169
515.03	2.305
515.37	2.436
515.71	2.563
516.05	2.670
516.39	2.782
516.73	2.886
517.07	2.961
517.41	3.035
517.75	3.104
518.09	3.182
518.43	3.256
518.77	3.321
519.11	3.399
519.45	3.475
519.79	3.584
520.13	3.695
520.47	3.818
520.81	3.955
521.15	4.127
521.49	4.281
521.83	4.431
522.17	4.577
522.51	4.765
522.85	4.950
523.19	5.173
523.53	5.400
523.87	5.634
524.21	5.861
524.55	6.069
524.89	6.262
525.23	6.449
525.57	6.605
525.91	6.766
526.25	6.889
526.58	7.022
526.92	7.129
527.26	7.210
527.60	7.267
527.94	7.321
528.28	7.368
528.62	7.401
528.96	7.439
529.30	7.487
529.64	7.525
529.97	7.579
530.31	7.603
530.65	7.641
530.99	7.699
531.33	7.775
531.67	7.831
532.01	7.888
532.35	7.935
532.68	7.980
533.02	8.010
533.36	8.040
533.70	8.064
534.04	8.094
534.38	8.121
534.71	8.145
535.05	8.158
535.39	8.176
535.73	8.217
536.07	8.263
536.41	8.311
536.74	8.380
537.08	8.412
537.42	8.494
537.76	8.574
538.10	8.644
538.43	8.709
538.77	8.768
539.11	8.838
539.45	8.889
539.79	8.941
540.12	8.964
540.46	8.977
540.80	9.012
541.14	9.000
541.47	8.980
541.81	8.971
542.15	8.956
542.49	8.942
542.82	8.905
543.16	8.870
543.50	8.835
543.84	8.820
544.17	8.796
544.51	8.786
544.85	8.780
545.18	8.779
545.52	8.767
545.86	8.736
546.20	8.729
546.53	8.717
546.87	8.711
547.21	8.697
547.54	8.681
547.88	8.683
548.22	8.645
548.55	8.621
548.89	8.619
549.23	8.603
549.56	8.603
549.90	8.616
550.24	8.632
550.57	8.636
550.91	8.633
551.25	8.629
551.58	8.611
551.92	8.613
552.26	8.606
552.59	8.597
552.93	8.586
553.27	8.581
553.60	8.551
553.94	8.504
554.27	8.470
554.61	8.432
554.95	8.406
555.28	8.359
555.62	8.319
555.95	8.281
556.29	8.228
556.63	8.187
556.96	8.145
557.30	8.114
557.63	8.060
557.97	8.000
558.31	7.913
558.64	7.849
558.98	7.823
559.31	7.783
559.65	7.740
559.98	7.668
560.32	7.594
560.65	7.523
560.99	7.425
561.33	7.363
561.66	7.285
562.00	7.260
562.33	7.183
562.67	7.118
563.00	7.047
563.34	6.979
563.67	6.918
564.01	6.861
564.34	6.801
564.68	6.742
565.01	6.679
565.35	6.617
565.68	6.528
566.02	6.439
566.35	6.346
566.69	6.248
567.02	6.167
567.36	6.074
567.69	5.989
568.03	5.906
568.36	5.810
568.69	5.718
569.03	5.652
569.36	5.570
569.70	5.495
570.03	5.419
570.37	5.350
570.70	5.268
571.04	5.204
571.37	5.122
571.70	5.038
572.04	4.966
572.37	4.881
572.71	4.791
573.04	4.738
573.37	4.662
573.71	4.600
574.04	4.515
574.38	4.414
574.71	4.343
575.04	4.274
575.38	4.196
575.71	4.117
576.05	4.056
576.38	3.999
576.71	3.911
577.05	3.850
577.38	3.761
577.71	3.685
578.05	3.634
578.38	3.560
578.71	3.487
579.05	3.427
579.38	3.368
579.71	3.314
580.05	3.231
580.38	3.161
580.71	3.098
581.05	3.054
581.38	3.009
581.71	2.970
582.05	2.927
582.38	2.901
582.71	2.863
583.04	2.845
583.38	2.814
583.71	2.806
584.04	2.806
584.38	2.794
584.71	2.766
585.04	2.767
585.37	2.749
585.71	2.727
586.04	2.713
586.37	2.721
586.70	2.719
587.04	2.703
587.37	2.677
587.70	2.657
588.03	2.637
588.37	2.651
588.70	2.618
589.03	2.600
589.36	2.586
589.69	2.545
590.03	2.502
590.36	2.436
590.69	2.394
591.02	2.359
591.35	2.306
591.69	2.298
592.02	2.256
592.35	2.241
592.68	2.244
593.01	2.226
593.35	2.223
593.68	2.211
594.01	2.222
594.34	2.217
594.67	2.225
595.00	2.219
595.34	2.193
595.67	2.152
596.00	2.148
596.33	2.078
596.66	2.028
596.99	1.979
597.32	1.913
597.65	1.847
597.99	1.785
598.32	1.705
598.65	1.638
598.98	1.593
599.31	1.581
599.64	1.544
599.97	1.534
600.30	1.540
600.63	1.551
600.96	1.578
601.30	1.606
601.63	1.639
601.96	1.643
602.29	1.654
602.62	1.635
602.95	1.619
603.28	1.602
603.61	1.593
603.94	1.565
604.27	1.537
604.60	1.482
604.93	1.444
605.26	1.403
605.59	1.380
605.92	1.367
606.25	1.325
606.58	1.285
606.91	1.238
607.24	1.208
607.57	1.161
607.90	1.123
608.23	1.083
608.56	1.015
608.89	0.951
609.22	0.895
609.55	0.826
609.88	0.778
610.21	0.722
610.54	0.656
610.87	0.572
611.20	0.524
611.53	0.449
611.86	0.412
612.19	0.362
612.52	0.318
612.85	0.292
613.18	0.255
613.51	0.192
613.84	0.130
614.17	0.088
614.49	0.088
614.82	0.027
615.15	-0.005
615.48	-0.033
615.81	-0.052
616.14	-0.074
616.47	-0.120
616.80	-0.169
617.13	-0.191
617.46	-0.210
617.78	-0.224
618.11	-0.276
618.44	-0.284
618.77	-0.325
619.10	-0.361
619.43	-0.372
619.76	-0.424
620.09	-0.405
620.41	-0.425
620.74	-0.403
621.07	-0.381
621.40	-0.402
621.73	-0.393
622.06	-0.381
622.38	-0.350
622.71	-0.331
623.04	-0.304
623.37	-0.231
623.70	-0.247
624.02	-0.213
624.35	-0.170
624.68	-0.144
625.01	-0.101
625.34	-0.081
625.66	-0.077
625.99	-0.069
626.32	-0.071
626.65	-0.081
626.98	-0.125
627.30	-0.145
627.63	-0.168
627.96	-0.221
628.29	-0.288
628.61	-0.328
628.94	-0.361
629.27	-0.405
629.60	-0.465
629.92	-0.481
630.25	-0.537
630.58	-0.561
630.91	-0.568
631.23	-0.579
631.56	-0.615
631.89	-0.634
632.21	-0.666
632.54	-0.698
632.87	-0.732
633.19	-0.749
633.52	-0.831
633.85	-0.839
634.18	-0.875
634.50	-0.945
634.83	-0.999
635.16	-1.045
635.48	-1.101
635.81	-1.161
636.14	-1.218
636.46	-1.269
636.79	-1.315
637.11	-1.341
637.44	-1.441
637.77	-1.506
638.09	-1.567
638.42	-1.626
638.75	-1.684
639.07	-1.730
639.40	-1.751
639.73	-1.802
640.05	-1.825
640.38	-1.819
640.70	-1.842
641.03	-1.836
641.36	-1.849
641.68	-1.834
642.01	-1.838
642.33	-1.820
642.66	-1.808
642.98	-1.827
643.31	-1.831
643.64	-1.805
643.96	-1.833
644.29	-1.801
644.61	-1.792
644.94	-1.773
645.26	-1.764
645.59	-1.717
645.91	-1.688
646.24	-1.681
646.56	-1.675
646.89	-1.647
647.22	-1.675
647.54	-1.643
647.87	-1.642
648.19	-1.646
648.52	-1.651
648.84	-1.627
649.17	-1.666
649.49	-1.693
649.82	-1.677
650.14	-1.665
650.47	-1.664
650.79	-1.637
651.11	-1.674
651.44	-1.654
651.76	-1.653
652.09	-1.629
652.41	-1.606
652.74	-1.564
653.06	-1.546
653.39	-1.517
653.71	-1.462
654.04	-1.429
654.36	-1.379
654.68	-1.318
655.01	-1.307
655.33	-1.234
655.66	-1.203
655.98	-1.176
656.30	-1.201
656.63	-1.159
656.95	-1.129
657.28	-1.132
657.60	-1.133
657.92	-1.153
658.25	-1.168
658.57	-1.136
658.90	-1.191
659.22	-1.214
659.54	-1.269
659.87	-1.200
660.19	-1.225
660.51	-1.267
660.84	-1.319
661.16	-1.315
661.48	-1.300
661.81	-1.318
662.13	-1.375
662.45	-1.347
662.78	-1.302
663.10	-1.246
663.42	-1.268
663.75	-1.200
664.07	-1.181
664.39	-1.109
664.72	-1.070
665.04	-0.982
665.36	-0.871
665.69	-0.781
666.01	-0.684
666.33	-0.587
666.65	-0.546
666.98	-0.426
667.30	-0.336
667.62	-0.188
667.94	-0.060
668.27	0.075
668.59	0.160
668.91	0.322
669.23	0.481
669.56	0.580
669.88	0.703
670.20	0.906
670.52	1.094
670.85	1.224
671.17	1.352
671.49	1.531
671.81	1.683
672.13	1.858
672.46	2.005
672.78	2.124
673.10	2.335
673.42	2.529
673.74	2.677
674.07	2.779
674.39	2.980
674.71	3.136
675.03	3.335
675.35	3.501
675.67	3.649
676.00	3.784
676.32	3.960
676.64	4.064
676.96	4.171
677.28	4.320
677.60	4.479
677.92	4.580
678.25	4.736
678.57	4.811
678.89	4.889
679.21	5.008
679.53	5.123
679.85	5.253
680.17	5.418
680.49	5.597
680.81	5.753
681.13	5.839
681.46	5.984
681.78	6.168
682.10	6.348
682.42	6.584
682.74	6.767
683.06	6.914
683.38	7.056
683.70	7.234
684.02	7.329
684.34	7.500
684.66	7.715
684.98	7.828
685.30	7.880
685.62	7.937
685.94	7.974
686.26	7.989
686.58	8.039
686.90	8.116
687.22	8.104
687.54	8.101
687.86	7.991
688.18	7.979
688.50	8.078
688.82	8.090
689.14	8.103
689.46	8.168
689.78	8.218
690.10	8.267
690.42	8.335
690.74	8.458
691.06	8.611
691.38	8.777
691.70	8.868
692.02	8.913
692.34	9.043
692.66	9.272
692.98	9.396
693.30	9.600
693.62	9.809
693.94	9.869
694.26	9.987
694.57	10.111
694.89	10.328
695.21	10.536
695.53	10.684
695.85	10.821
696.17	10.961
696.49	11.182
696.81	11.382
697.13	11.563
697.44	11.837
697.76	12.120
698.08	12.416
698.40	12.767
698.72	13.080
699.04	13.492
699.36	13.982
699.67	14.400
699.99	14.791
700.31	15.285
700.63	15.863
700.95	16.502
701.27	17.057
701.58	17.629
701.90	17.999
702.22	18.524
702.54	18.942
702.86	19.333
703.17	19.786
703.49	20.301
703.81	20.734
704.13	21.072
704.45	21.453
704.76	21.855
705.08	22.260
705.40	22.671
705.72	23.020
706.03	23.527
706.35	23.936
706.67	24.387
706.99	24.788
707.30	25.240
707.62	25.697
707.94	26.010
708.26	26.368
708.57	26.693
708.89	27.158
709.21	27.564
709.53	27.941
709.84	28.390
710.16	28.806
710.48	29.272
710.79	29.683
711.11	30.113
711.43	30.602
711.74	31.109
712.06	31.664
712.38	32.132
712.69	32.627
713.01	33.055
713.33	33.510
713.64	34.094
713.96	34.551
714.28	35.091
714.59	35.688
714.91	36.236
715.23	36.799
715.54	37.275
715.86	37.863
716.17	38.443
716.49	39.049
716.81	39.654
717.12	40.126
717.44	40.716
717.76	41.286
718.07	41.758
718.39	42.228
718.70	42.650
719.02	43.141
719.33	43.644
719.65	44.049
719.97	44.410
720.28	44.931
720.60	45.369
720.91	45.779
721.23	46.189
721.54	46.628
721.86	47.086
722.17	47.594
722.49	48.079
722.81	48.355
723.12	48.860
723.44	49.320
723.75	49.632
724.07	49.946
724.38	50.292
724.70	50.446
725.01	50.639
725.33	50.843
725.64	51.186
725.96	51.487
726.27	51.727
726.59	51.969
726.90	52.206
727.22	52.382
727.53	52.626
727.84	52.896
728.16	53.214
728.47	53.550
728.79	54.000
729.10	54.095
729.42	54.198
729.73	54.528
730.05	54.661
730.36	54.911
730.67	55.253
730.99	55.531
731.30	55.805
731.62	56.112
731.93	56.404
732.24	56.519
732.56	56.833
732.87	57.246
733.19	57.530
733.50	57.854
733.81	58.104
734.13	58.310
734.44	58.584
734.76	58.776
735.07	59.014
735.38	59.215
735.70	59.570
736.01	59.877
736.32	59.964
736.64	60.144
736.95	60.326
737.26	60.440
737.58	60.666
737.89	60.811
738.20	61.003
738.52	61.204
738.83	61.321
739.14	61.355
739.45	61.380
739.77	61.693
740.08	61.934
740.39	62.084
740.71	62.521
741.02	62.634
741.33	62.831
741.64	62.940
741.96	63.071
742.27	63.197
742.58	63.443
742.90	63.529
743.21	63.573
743.52	63.525
743.83	63.598
744.14	63.538
744.46	63.724
744.77	63.802
745.08	63.720
745.39	63.738
745.71	63.664
746.02	63.597
746.33	63.757
746.64	63.475
746.95	63.413
747.27	63.285
747.58	63.258
747.89	63.071
748.20	62.975
748.51	63.117
748.82	63.035
749.14	63.046
749.45	63.066
749.76	63.014
750.07	63.160
750.38	63.245
750.69	63.330
751.01	63.099
751.32	63.075
751.63	63.101
751.94	62.855
752.25	62.673
752.56	62.791
752.87	62.634
753.18	62.473
753.49	62.472
753.81	62.312
754.12	62.155
754.43	62.316
754.74	62.295
755.05	62.151
755.36	62.223
755.67	62.198
755.98	62.250
756.29	62.359
756.60	62.476
756.91	62.385
757.22	62.460
757.53	62.701
757.84	62.715
758.15	62.845
758.46	62.722
758.77	62.758
759.09	62.852
759.40	62.653
759.71	62.491
760.02	62.370
760.33	62.175
760.64	62.023
760.95	61.865
761.26	61.703
761.57	61.609
761.88	61.610
762.18	61.412
762.49	61.307
762.80	61.198
763.11	61.142
763.42	60.989
763.73	61.000
764.04	60.981
764.35	60.921
764.66	60.808
764.97	60.548
765.28	60.649
765.59	60.670
765.90	60.570
766.21	60.554
766.52	60.473
766.83	60.546
767.14	60.581
767.44	60.512
767.75	60.265
768.06	60.262
768.37	60.091
768.68	59.841
768.99	59.632
769.30	59.547
769.61	59.317
769.91	59.383
770.22	59.107
770.53	58.725
770.84	58.602
771.15	58.785
771.46	58.596
771.77	58.657
772.07	58.393
772.38	58.377
772.69	58.306
773.00	58.255
773.31	57.809
773.61	57.773
773.92	57.844
774.23	57.624
774.54	57.319
774.85	57.375
775.15	57.248
775.46	57.140
775.77	57.232
776.08	57.179
776.39	57.124
776.69	57.269
777.00	56.978
777.31	57.163
777.62	57.290
777.92	57.403
778.23	57.212
778.54	57.480
778.85	57.604
779.15	57.487
779.46	57.355
779.77	57.413
780.07	57.628
780.38	57.838
780.69	57.472
781.00	57.431
781.30	57.036
781.61	56.932
781.92	56.828
782.22	56.810
782.53	56.965
782.84	57.096
783.14	57.184
783.45	56.847
783.76	56.967
784.06	57.202
784.37	56.926
784.68	57.203
784.98	57.533
785.29	57.595
785.60	57.669
785.90	57.676
786.21	57.719
786.51	57.734
786.82	58.067
787.13	58.156
787.43	58.241
787.74	58.655
788.04	58.665
788.35	58.669
788.66	58.562
788.96	58.576
789.27	58.570
789.57	58.450
789.88	58.499
790.19	58.228
790.49	58.106
790.80	57.905
791.10	57.798
791.41	58.206
791.71	58.018
792.02	58.130
792.32	58.000
792.63	57.864
792.93	57.740
793.24	57.468
793.54	57.526
793.85	57.483
794.15	57.841
794.46	57.816
794.76	57.610
795.07	57.890
795.37	57.913
795.68	58.139
795.98	58.134
796.29	58.786
796.59	58.840
796.90	59.079
797.20	59.038
797.51	58.681
797.81	58.593
798.12	58.468
798.42	58.485
798.72	58.258
799.03	58.067
799.33	58.105
799.64	57.728
799.94	58.180
800.25	57.842
800.55	58.234
800.85	58.575
801.16	58.654
801.46	58.488
801.77	58.327
802.07	58.673
802.37	58.803
802.68	58.684
802.98	58.744
803.28	58.340
803.59	58.536
803.89	58.231
804.20	58.070
804.50	58.051
804.80	58.085
805.11	58.202
805.41	58.005
805.71	57.888
806.02	57.827
806.32	57.774
806.62	57.688
806.93	57.546
807.23	57.870
807.53	58.216
807.83	58.357
808.14	58.798
808.44	58.836
808.74	59.012
809.05	58.775
809.35	58.782
809.65	58.945
809.95	59.065
810.26	59.214
810.56	59.224
810.86	58.863
811.16	58.741
811.47	59.097
811.77	59.329
812.07	59.127
812.37	59.455
812.68	60.311
812.98	60.279
813.28	60.866
813.58	61.079
813.88	61.063
814.19	61.668
814.49	61.692
814.79	61.422
815.09	61.443
815.39	61.523
815.70	61.832
816.00	61.377
816.30	61.030
816.60	60.690
816.90	60.515
817.20	60.369
817.50	60.110
817.81	59.936
818.11	59.784
818.41	59.650
818.71	59.619
819.01	59.654
819.31	59.881
819.61	60.160
819.92	60.442
820.22	60.740
820.52	60.924
820.82	61.215
821.12	61.517
821.42	61.827
821.72	62.130
822.02	62.573
822.32	62.902
822.62	63.222
822.92	63.475
823.22	63.689
823.52	63.886
823.83	64.075
824.13	64.091
824.43	64.016
824.73	63.999
825.03	63.917
825.33	63.819
825.63	63.678
825.93	63.439
826.23	63.242
826.53	63.079
826.83	62.937
827.13	62.993
827.43	63.066
827.73	63.377
828.03	63.594
828.33	63.859
828.63	63.756
828.93	63.693
829.23	63.618
829.53	63.481
829.83	63.144
830.13	62.692
830.42	62.447
830.72	61.885
831.02	61.936
831.32	61.459
831.62	61.124
831.92	60.977
832.22	61.156
832.52	60.999
832.82	61.331
833.12	61.656
833.42	61.776
833.72	61.728
834.01	62.128
834.31	62.160
834.61	62.518
834.91	63.107
835.21	63.441
835.51	63.149
835.81	63.174
836.11	63.144
836.40	62.593
836.70	63.099
837.00	62.938
837.30	62.577
837.60	62.401
837.90	62.297
838.19	61.447
838.49	61.264
838.79	61.495
839.09	61.812
839.39	61.794
839.68	62.054
839.98	61.006
840.28	60.972
840.58	61.378
840.88	61.818
841.17	61.370
841.47	62.109
841.77	61.969
842.07	62.201
842.36	62.498
842.66	62.074
842.96	62.532
843.26	62.855
843.55	63.831
843.85	63.502
844.15	62.760
844.45	62.658
844.74	61.613
845.04	61.333
845.34	61.107
845.63	61.077
845.93	61.232
846.23	61.343
846.53	60.696
846.82	59.166
847.12	58.861
847.42	57.808
847.71	57.651
848.01	57.285
848.31	56.208
848.60	56.809
848.90	56.195
849.19	54.676
849.49	53.195
849.79	54.299
850.08	55.657
850.38	55.668
850.68	56.524
850.97	58.440
851.27	59.537
851.56	59.105
851.86	58.419
852.16	59.057
852.45	59.286
852.75	61.992
853.04	63.493
853.34	63.430
853.64	63.819
853.93	62.699
854.23	59.567
854.52	59.297
854.82	61.023
855.11	60.749
855.41	61.180
855.70	62.839
856.00	59.653
856.30	56.441
856.59	55.837
856.89	56.039
857.18	58.566
857.48	59.637
857.77	56.493
858.07	57.612
858.36	56.030
858.66	55.424
858.95	55.214
859.25	56.197
859.54	58.194
859.84	57.536
860.13	56.141
860.42	53.489
860.72	52.147
861.01	55.401
861.31	54.245
861.60	56.620
861.90	55.770
862.19	56.581
862.49	56.695
862.78	55.221
863.07	55.932
863.37	55.877
863.66	56.226
863.96	60.421
864.25	59.066
864.54	60.001
864.84	59.955
865.13	60.965
865.43	61.799
865.72	55.702
866.01	70.946
866.31	66.017
866.60	60.275
866.89	79.897
>>>>>End Spectral Data<<<<<
