OOIBase32 Version 2.0.0.6 Data File
++++++++++++++++++++++++++++++++++++
Date: 01-23-2012, 23:06:38
User: Valued Ocean Optics Customer
Spectrometer Serial Number: USB2E2917
Spectrometer Channel: Master
Integration Time (msec): 5
Spectra Averaged: 10
Boxcar Smoothing: 5
Correct for Electrical Dark: Enabled
Time Normalized: Disabled
Dual-beam Reference: Disabled
Reference Channel: Master
Temperature: Not acquired
Spectrometer Type: S2000
ADC Type: USB2000
Number of Pixels in File: 2048
Graph Title: 
>>>>>Begin Spectral Data<<<<<
180.30	0.000
180.67	0.000
181.03	175.985
181.40	187.788
181.77	-1508.563
182.14	91.719
182.51	-710.109
182.88	187.350
183.25	116.384
183.62	146.173
183.99	112.353
184.36	13.603
184.73	115.516
185.10	-28.414
185.46	-657.492
185.83	-463.228
186.20	722.610
186.57	-16.482
186.94	42.677
187.31	26.057
187.68	58.511
188.05	20.938
188.42	46.073
188.78	107.752
189.15	587.224
189.52	-172.431
189.89	-60.143
190.26	-43.643
190.63	-11.183
191.00	-3.080
191.37	2.163
191.73	11.829
192.10	0.193
192.47	8.217
192.84	13.961
193.21	28.518
193.58	24.937
193.94	26.152
194.31	23.133
194.68	13.509
195.05	3.018
195.42	-12.964
195.79	-20.886
196.15	-25.548
196.52	-56.090
196.89	-66.064
197.26	-86.452
197.63	-52.915
198.00	-42.650
198.36	-32.660
198.73	-42.005
199.10	-43.663
199.47	-26.173
199.84	-27.522
200.20	-28.090
200.57	-16.814
200.94	-32.462
201.31	-17.861
201.68	-26.197
202.04	-16.405
202.41	-23.162
202.78	-23.503
203.15	-22.088
203.51	-9.246
203.88	-5.632
204.25	15.516
204.62	13.610
204.98	21.290
205.35	-1.696
205.72	19.718
206.09	-9.489
206.46	-32.899
206.82	-12.047
207.19	-17.983
207.56	-81.075
207.92	-71.357
208.29	-92.442
208.66	-46.878
209.03	-43.096
209.39	-13.261
209.76	-25.136
210.13	-30.637
210.50	-17.468
210.86	-29.052
211.23	-43.939
211.60	-12.373
211.96	-15.751
212.33	-17.189
212.70	-36.909
213.07	-38.133
213.43	-62.139
213.80	-58.517
214.17	-37.435
214.53	-31.746
214.90	-32.190
215.27	-16.315
215.63	-22.655
216.00	-20.679
216.37	-21.635
216.74	-27.674
217.10	-19.491
217.47	-19.813
217.84	-16.070
218.20	-12.980
218.57	-4.806
218.94	1.618
219.30	-3.480
219.67	-2.083
220.04	0.910
220.40	0.400
220.77	-3.580
221.13	-2.533
221.50	-2.286
221.87	-2.136
222.23	-9.346
222.60	-14.390
222.97	-21.279
223.33	-18.184
223.70	-16.829
224.07	-19.434
224.43	-14.179
224.80	-7.319
225.16	-6.050
225.53	-2.975
225.90	-4.562
226.26	-1.485
226.63	0.756
226.99	3.351
227.36	4.126
227.73	5.447
228.09	6.214
228.46	6.228
228.82	7.133
229.19	7.389
229.56	7.479
229.92	8.908
230.29	9.357
230.65	7.126
231.02	4.290
231.38	3.036
231.75	1.973
232.12	-0.803
232.48	-3.064
232.85	-3.908
233.21	-4.855
233.58	-7.743
233.94	-8.306
234.31	-9.295
234.68	-7.575
235.04	-5.861
235.41	-4.291
235.77	-1.877
236.14	0.272
236.50	2.027
236.87	1.825
237.23	2.756
237.60	2.990
237.96	2.935
238.33	2.578
238.69	2.505
239.06	2.739
239.42	2.313
239.79	0.920
240.15	0.790
240.52	0.466
240.88	0.804
241.25	0.683
241.61	1.022
241.98	0.560
242.34	0.396
242.71	0.376
243.07	0.755
243.44	0.813
243.80	1.384
244.17	1.362
244.53	1.429
244.90	1.186
245.26	1.121
245.63	0.976
245.99	1.073
246.36	1.161
246.72	1.284
247.09	0.771
247.45	0.758
247.81	0.729
248.18	0.873
248.54	0.943
248.91	0.542
249.27	0.653
249.64	1.186
250.00	1.510
250.36	1.633
250.73	1.646
251.09	2.013
251.46	2.141
251.82	1.565
252.19	1.329
252.55	1.326
252.91	1.850
253.28	1.497
253.64	1.010
254.01	1.084
254.37	1.407
254.73	1.747
255.10	1.924
255.46	2.513
255.83	3.122
256.19	3.042
256.55	2.737
256.92	2.758
257.28	2.726
257.65	2.889
258.01	2.829
258.37	2.704
258.74	2.493
259.10	2.442
259.46	2.058
259.83	1.786
260.19	1.747
260.55	1.930
260.92	1.808
261.28	1.889
261.64	1.740
262.01	1.737
262.37	1.779
262.73	1.788
263.10	1.522
263.46	1.634
263.82	1.735
264.19	1.641
264.55	1.200
264.91	1.233
265.28	1.362
265.64	1.346
266.00	1.370
266.37	1.409
266.73	1.365
267.09	1.670
267.46	1.539
267.82	1.397
268.18	1.478
268.54	1.822
268.91	1.717
269.27	1.604
269.63	1.728
270.00	1.801
270.36	1.932
270.72	2.012
271.08	1.892
271.45	1.919
271.81	1.949
272.17	2.066
272.53	2.041
272.90	2.125
273.26	2.467
273.62	2.466
273.98	2.348
274.35	2.094
274.71	2.029
275.07	2.132
275.43	2.214
275.80	2.407
276.16	2.291
276.52	2.105
276.88	1.872
277.25	1.297
277.61	1.048
277.97	1.002
278.33	1.112
278.69	1.144
279.06	1.010
279.42	1.057
279.78	0.970
280.14	1.229
280.50	1.361
280.87	1.661
281.23	1.745
281.59	1.689
281.95	1.748
282.31	1.800
282.68	1.729
283.04	1.651
283.40	1.710
283.76	1.717
284.12	1.804
284.48	1.904
284.85	1.932
285.21	1.993
285.57	2.047
285.93	2.040
286.29	1.939
286.65	1.894
287.02	2.207
287.38	2.151
287.74	2.023
288.10	1.770
288.46	1.586
288.82	1.469
289.18	1.426
289.54	1.367
289.91	1.414
290.27	1.555
290.63	1.696
290.99	1.662
291.35	1.768
291.71	2.015
292.07	1.999
292.43	1.883
292.79	1.950
293.16	1.925
293.52	2.154
293.88	2.284
294.24	2.247
294.60	2.272
294.96	2.226
295.32	2.152
295.68	2.090
296.04	2.125
296.40	2.310
296.76	2.339
297.12	2.237
297.49	2.024
297.85	1.805
298.21	1.760
298.57	1.624
298.93	1.571
299.29	1.539
299.65	1.492
300.01	1.479
300.37	1.433
300.73	1.567
301.09	1.759
301.45	1.986
301.81	2.082
302.17	2.108
302.53	2.014
302.89	1.904
303.25	1.985
303.61	2.017
303.97	1.904
304.33	1.906
304.69	1.794
305.05	1.641
305.41	1.432
305.77	1.483
306.13	1.435
306.49	1.459
306.85	1.583
307.21	1.536
307.57	1.598
307.93	1.665
308.29	1.724
308.65	1.662
309.01	1.810
309.37	1.867
309.73	1.853
310.09	1.923
310.45	2.062
310.81	2.036
311.17	2.014
311.53	1.903
311.89	1.992
312.25	2.014
312.61	2.063
312.96	1.978
313.32	2.012
313.68	1.928
314.04	1.911
314.40	1.937
314.76	1.909
315.12	1.888
315.48	1.940
315.84	1.793
316.20	1.761
316.56	1.618
316.92	1.691
317.27	1.644
317.63	1.728
317.99	1.593
318.35	1.506
318.71	1.545
319.07	1.658
319.43	1.646
319.79	1.787
320.15	1.661
320.50	1.793
320.86	1.753
321.22	1.796
321.58	1.802
321.94	1.878
322.30	1.915
322.66	1.892
323.01	1.700
323.37	1.716
323.73	1.618
324.09	1.638
324.45	1.682
324.81	1.636
325.17	1.602
325.52	1.533
325.88	1.520
326.24	1.667
326.60	1.653
326.96	1.737
327.31	1.687
327.67	1.650
328.03	1.673
328.39	1.558
328.75	1.641
329.11	1.723
329.46	1.767
329.82	1.778
330.18	1.649
330.54	1.634
330.90	1.560
331.25	1.567
331.61	1.665
331.97	1.644
332.33	1.634
332.68	1.568
333.04	1.523
333.40	1.461
333.76	1.349
334.11	1.340
334.47	1.412
334.83	1.464
335.19	1.399
335.54	1.418
335.90	1.432
336.26	1.505
336.62	1.485
336.97	1.463
337.33	1.434
337.69	1.502
338.05	1.412
338.40	1.313
338.76	1.357
339.12	1.426
339.48	1.348
339.83	1.390
340.19	1.351
340.55	1.421
340.90	1.347
341.26	1.337
341.62	1.264
341.97	1.324
342.33	1.317
342.69	1.369
343.04	1.346
343.40	1.252
343.76	1.094
344.12	1.152
344.47	1.132
344.83	1.222
345.19	1.292
345.54	1.388
345.90	1.323
346.26	1.348
346.61	1.262
346.97	1.318
347.32	1.411
347.68	1.516
348.04	1.379
348.39	1.385
348.75	1.364
349.11	1.304
349.46	1.269
349.82	1.321
350.18	1.325
350.53	1.374
350.89	1.347
351.24	1.361
351.60	1.376
351.96	1.473
352.31	1.428
352.67	1.487
353.02	1.502
353.38	1.498
353.74	1.549
354.09	1.547
354.45	1.490
354.80	1.453
355.16	1.484
355.52	1.480
355.87	1.415
356.23	1.456
356.58	1.447
356.94	1.517
357.29	1.527
357.65	1.518
358.00	1.520
358.36	1.562
358.72	1.574
359.07	1.546
359.43	1.546
359.78	1.630
360.14	1.583
360.49	1.553
360.85	1.509
361.20	1.502
361.56	1.442
361.91	1.468
362.27	1.446
362.62	1.467
362.98	1.457
363.33	1.433
363.69	1.385
364.04	1.461
364.40	1.441
364.75	1.430
365.11	1.432
365.46	1.430
365.82	1.425
366.17	1.410
366.53	1.416
366.88	1.399
367.24	1.438
367.59	1.463
367.95	1.446
368.30	1.471
368.66	1.446
369.01	1.428
369.37	1.488
369.72	1.537
370.08	1.572
370.43	1.556
370.78	1.596
371.14	1.553
371.49	1.540
371.85	1.507
372.20	1.492
372.56	1.503
372.91	1.483
373.26	1.463
373.62	1.356
373.97	1.377
374.33	1.361
374.68	1.386
375.03	1.437
375.39	1.450
375.74	1.433
376.10	1.446
376.45	1.483
376.80	1.554
377.16	1.527
377.51	1.554
377.87	1.570
378.22	1.565
378.57	1.517
378.93	1.533
379.28	1.564
379.63	1.596
379.99	1.631
380.34	1.609
380.70	1.567
381.05	1.606
381.40	1.626
381.76	1.624
382.11	1.655
382.46	1.683
382.82	1.649
383.17	1.587
383.52	1.582
383.88	1.531
384.23	1.547
384.58	1.574
384.94	1.553
385.29	1.540
385.64	1.537
385.99	1.538
386.35	1.570
386.70	1.588
387.05	1.568
387.41	1.549
387.76	1.541
388.11	1.490
388.47	1.489
388.82	1.501
389.17	1.522
389.52	1.501
389.88	1.523
390.23	1.495
390.58	1.511
390.93	1.540
391.29	1.562
391.64	1.617
391.99	1.703
392.34	1.716
392.70	1.711
393.05	1.695
393.40	1.725
393.75	1.702
394.11	1.697
394.46	1.665
394.81	1.680
395.16	1.644
395.52	1.603
395.87	1.571
396.22	1.577
396.57	1.557
396.92	1.538
397.28	1.498
397.63	1.453
397.98	1.442
398.33	1.413
398.68	1.399
399.04	1.412
399.39	1.388
399.74	1.374
400.09	1.323
400.44	1.333
400.80	1.342
401.15	1.339
401.50	1.367
401.85	1.380
402.20	1.395
402.55	1.430
402.90	1.400
403.26	1.405
403.61	1.383
403.96	1.389
404.31	1.373
404.66	1.386
405.01	1.354
405.36	1.352
405.72	1.324
406.07	1.326
406.42	1.260
406.77	1.290
407.12	1.293
407.47	1.308
407.82	1.302
408.17	1.285
408.53	1.262
408.88	1.276
409.23	1.243
409.58	1.212
409.93	1.223
410.28	1.231
410.63	1.199
410.98	1.198
411.33	1.201
411.68	1.214
412.03	1.262
412.38	1.255
412.73	1.290
413.09	1.321
413.44	1.372
413.79	1.378
414.14	1.391
414.49	1.439
414.84	1.438
415.19	1.455
415.54	1.479
415.89	1.481
416.24	1.527
416.59	1.539
416.94	1.569
417.29	1.595
417.64	1.588
417.99	1.624
418.34	1.645
418.69	1.670
419.04	1.682
419.39	1.682
419.74	1.700
420.09	1.702
420.44	1.713
420.79	1.712
421.14	1.710
421.49	1.739
421.84	1.719
422.19	1.721
422.54	1.719
422.89	1.716
423.24	1.719
423.59	1.712
423.94	1.695
424.29	1.684
424.64	1.683
424.99	1.656
425.34	1.623
425.68	1.618
426.03	1.575
426.38	1.577
426.73	1.574
427.08	1.563
427.43	1.571
427.78	1.600
428.13	1.592
428.48	1.587
428.83	1.587
429.18	1.606
429.53	1.607
429.87	1.613
430.22	1.594
430.57	1.591
430.92	1.583
431.27	1.564
431.62	1.539
431.97	1.546
432.32	1.537
432.67	1.538
433.01	1.519
433.36	1.516
433.71	1.492
434.06	1.485
434.41	1.459
434.76	1.477
435.11	1.488
435.45	1.489
435.80	1.486
436.15	1.505
436.50	1.535
436.85	1.541
437.20	1.533
437.54	1.550
437.89	1.556
438.24	1.568
438.59	1.567
438.94	1.552
439.29	1.541
439.63	1.539
439.98	1.518
440.33	1.489
440.68	1.501
441.03	1.517
441.37	1.529
441.72	1.538
442.07	1.549
442.42	1.556
442.76	1.582
443.11	1.598
443.46	1.605
443.81	1.619
444.16	1.637
444.50	1.630
444.85	1.641
445.20	1.637
445.55	1.632
445.89	1.622
446.24	1.610
446.59	1.579
446.94	1.554
447.28	1.530
447.63	1.507
447.98	1.482
448.32	1.464
448.67	1.413
449.02	1.381
449.37	1.359
449.71	1.353
450.06	1.333
450.41	1.335
450.75	1.345
451.10	1.351
451.45	1.337
451.79	1.326
452.14	1.301
452.49	1.325
452.84	1.332
453.18	1.332
453.53	1.308
453.88	1.303
454.22	1.298
454.57	1.308
454.92	1.298
455.26	1.327
455.61	1.354
455.95	1.415
456.30	1.432
456.65	1.459
456.99	1.473
457.34	1.514
457.69	1.529
458.03	1.546
458.38	1.550
458.73	1.563
459.07	1.552
459.42	1.529
459.76	1.486
460.11	1.438
460.46	1.407
460.80	1.379
461.15	1.343
461.49	1.319
461.84	1.292
462.19	1.264
462.53	1.243
462.88	1.247
463.22	1.243
463.57	1.248
463.91	1.268
464.26	1.287
464.61	1.299
464.95	1.282
465.30	1.291
465.64	1.299
465.99	1.310
466.33	1.321
466.68	1.302
467.02	1.303
467.37	1.287
467.71	1.285
468.06	1.267
468.41	1.253
468.75	1.254
469.10	1.244
469.44	1.214
469.79	1.189
470.13	1.146
470.48	1.143
470.82	1.135
471.17	1.137
471.51	1.119
471.86	1.108
472.20	1.099
472.55	1.090
472.89	1.074
473.23	1.066
473.58	1.069
473.92	1.086
474.27	1.075
474.61	1.071
474.96	1.075
475.30	1.081
475.65	1.072
475.99	1.073
476.34	1.069
476.68	1.084
477.02	1.098
477.37	1.101
477.71	1.132
478.06	1.165
478.40	1.245
478.75	1.317
479.09	1.409
479.43	1.498
479.78	1.581
480.12	1.675
480.47	1.761
480.81	1.826
481.15	1.897
481.50	1.961
481.84	2.027
482.19	2.084
482.53	2.133
482.87	2.162
483.22	2.167
483.56	2.144
483.90	2.096
484.25	2.039
484.59	1.995
484.94	1.940
485.28	1.888
485.62	1.832
485.97	1.758
486.31	1.700
486.65	1.650
487.00	1.621
487.34	1.614
487.68	1.614
488.03	1.611
488.37	1.608
488.71	1.603
489.06	1.584
489.40	1.571
489.74	1.564
490.09	1.549
490.43	1.532
490.77	1.498
491.11	1.463
491.46	1.425
491.80	1.391
492.14	1.340
492.49	1.313
492.83	1.272
493.17	1.223
493.51	1.177
493.86	1.124
494.20	1.084
494.54	1.063
494.88	1.062
495.23	1.069
495.57	1.077
495.91	1.105
496.25	1.113
496.60	1.123
496.94	1.129
497.28	1.129
497.62	1.147
497.97	1.141
498.31	1.149
498.65	1.144
498.99	1.134
499.33	1.145
499.68	1.149
500.02	1.142
500.36	1.137
500.70	1.145
501.04	1.138
501.39	1.126
501.73	1.144
502.07	1.168
502.41	1.176
502.75	1.193
503.09	1.201
503.44	1.220
503.78	1.235
504.12	1.254
504.46	1.280
504.80	1.327
505.14	1.383
505.49	1.420
505.83	1.442
506.17	1.486
506.51	1.526
506.85	1.556
507.19	1.581
507.53	1.612
507.87	1.658
508.22	1.696
508.56	1.715
508.90	1.722
509.24	1.741
509.58	1.770
509.92	1.798
510.26	1.825
510.60	1.855
510.94	1.882
511.28	1.902
511.63	1.938
511.97	1.970
512.31	2.023
512.65	2.062
512.99	2.126
513.33	2.211
513.67	2.279
514.01	2.362
514.35	2.451
514.69	2.540
515.03	2.638
515.37	2.722
515.71	2.807
516.05	2.879
516.39	2.968
516.73	3.030
517.07	3.072
517.41	3.114
517.75	3.149
518.09	3.197
518.43	3.240
518.77	3.270
519.11	3.306
519.45	3.330
519.79	3.381
520.13	3.425
520.47	3.483
520.81	3.566
521.15	3.685
521.49	3.781
521.83	3.875
522.17	3.961
522.51	4.103
522.85	4.232
523.19	4.395
523.53	4.558
523.87	4.742
524.21	4.912
524.55	5.059
524.89	5.186
525.23	5.319
525.57	5.429
525.91	5.542
526.25	5.627
526.58	5.712
526.92	5.774
527.26	5.828
527.60	5.849
527.94	5.879
528.28	5.897
528.62	5.905
528.96	5.912
529.30	5.920
529.64	5.921
529.97	5.926
530.31	5.935
530.65	5.956
530.99	5.974
531.33	5.999
531.67	6.017
532.01	6.039
532.35	6.064
532.68	6.079
533.02	6.089
533.36	6.102
533.70	6.109
534.04	6.107
534.38	6.104
534.71	6.093
535.05	6.094
535.39	6.093
535.73	6.109
536.07	6.120
536.41	6.150
536.74	6.189
537.08	6.229
537.42	6.283
537.76	6.332
538.10	6.387
538.43	6.453
538.77	6.520
539.11	6.568
539.45	6.600
539.79	6.648
540.12	6.679
540.46	6.696
540.80	6.697
541.14	6.691
541.47	6.668
541.81	6.660
542.15	6.637
542.49	6.598
542.82	6.569
543.16	6.539
543.50	6.496
543.84	6.458
544.17	6.428
544.51	6.424
544.85	6.399
545.18	6.408
545.52	6.378
545.86	6.352
546.20	6.353
546.53	6.334
546.87	6.319
547.21	6.303
547.54	6.274
547.88	6.270
548.22	6.248
548.55	6.244
548.89	6.221
549.23	6.230
549.56	6.229
549.90	6.236
550.24	6.251
550.57	6.257
550.91	6.247
551.25	6.263
551.58	6.241
551.92	6.235
552.26	6.229
552.59	6.227
552.93	6.205
553.27	6.205
553.60	6.178
553.94	6.133
554.27	6.117
554.61	6.097
554.95	6.084
555.28	6.088
555.62	6.049
555.95	6.044
556.29	6.018
556.63	5.987
556.96	5.949
557.30	5.936
557.63	5.927
557.97	5.895
558.31	5.873
558.64	5.828
558.98	5.793
559.31	5.792
559.65	5.755
559.98	5.725
560.32	5.703
560.65	5.654
560.99	5.612
561.33	5.572
561.66	5.538
562.00	5.513
562.33	5.491
562.67	5.474
563.00	5.448
563.34	5.411
563.67	5.376
564.01	5.333
564.34	5.321
564.68	5.276
565.01	5.243
565.35	5.198
565.68	5.148
566.02	5.077
566.35	5.015
566.69	4.944
567.02	4.892
567.36	4.842
567.69	4.809
568.03	4.760
568.36	4.698
568.69	4.652
569.03	4.604
569.36	4.568
569.70	4.542
570.03	4.507
570.37	4.463
570.70	4.439
571.04	4.411
571.37	4.362
571.70	4.312
572.04	4.276
572.37	4.242
572.71	4.214
573.04	4.179
573.37	4.146
573.71	4.081
574.04	4.051
574.38	3.979
574.71	3.935
575.04	3.886
575.38	3.823
575.71	3.784
576.05	3.731
576.38	3.677
576.71	3.607
577.05	3.544
577.38	3.504
577.71	3.442
578.05	3.383
578.38	3.322
578.71	3.265
579.05	3.248
579.38	3.186
579.71	3.125
580.05	3.085
580.38	3.046
580.71	3.002
581.05	2.957
581.38	2.927
581.71	2.921
582.05	2.889
582.38	2.885
582.71	2.852
583.04	2.859
583.38	2.838
583.71	2.830
584.04	2.818
584.38	2.807
584.71	2.811
585.04	2.821
585.37	2.801
585.71	2.818
586.04	2.794
586.37	2.819
586.70	2.809
587.04	2.818
587.37	2.815
587.70	2.810
588.03	2.807
588.37	2.828
588.70	2.832
589.03	2.829
589.36	2.807
589.69	2.789
590.03	2.749
590.36	2.736
590.69	2.717
591.02	2.681
591.35	2.656
591.69	2.635
592.02	2.610
592.35	2.590
592.68	2.608
593.01	2.593
593.35	2.604
593.68	2.605
594.01	2.607
594.34	2.595
594.67	2.594
595.00	2.577
595.34	2.553
595.67	2.510
596.00	2.483
596.33	2.413
596.66	2.354
596.99	2.304
597.32	2.246
597.65	2.191
597.99	2.142
598.32	2.099
598.65	2.070
598.98	2.061
599.31	2.046
599.64	2.037
599.97	2.037
600.30	2.062
600.63	2.073
600.96	2.092
601.30	2.097
601.63	2.135
601.96	2.129
602.29	2.134
602.62	2.122
602.95	2.112
603.28	2.105
603.61	2.067
603.94	2.023
604.27	2.015
604.60	1.965
604.93	1.956
605.26	1.901
605.59	1.872
605.92	1.839
606.25	1.817
606.58	1.813
606.91	1.755
607.24	1.757
607.57	1.751
607.90	1.706
608.23	1.680
608.56	1.606
608.89	1.570
609.22	1.542
609.55	1.512
609.88	1.452
610.21	1.365
610.54	1.299
610.87	1.256
611.20	1.187
611.53	1.131
611.86	1.094
612.19	1.057
612.52	1.013
612.85	0.993
613.18	0.957
613.51	0.922
613.84	0.904
614.17	0.902
614.49	0.860
614.82	0.844
615.15	0.814
615.48	0.811
615.81	0.783
616.14	0.774
616.47	0.723
616.80	0.671
617.13	0.641
617.46	0.606
617.78	0.589
618.11	0.580
618.44	0.560
618.77	0.541
619.10	0.498
619.43	0.491
619.76	0.432
620.09	0.458
620.41	0.454
620.74	0.485
621.07	0.515
621.40	0.527
621.73	0.539
622.06	0.546
622.38	0.588
622.71	0.623
623.04	0.668
623.37	0.757
623.70	0.757
624.02	0.799
624.35	0.829
624.68	0.845
625.01	0.863
625.34	0.896
625.66	0.914
625.99	0.918
626.32	0.922
626.65	0.909
626.98	0.875
627.30	0.861
627.63	0.838
627.96	0.781
628.29	0.747
628.61	0.708
628.94	0.623
629.27	0.609
629.60	0.524
629.92	0.504
630.25	0.447
630.58	0.415
630.91	0.372
631.23	0.327
631.56	0.318
631.89	0.283
632.21	0.262
632.54	0.273
632.87	0.211
633.19	0.218
633.52	0.173
633.85	0.182
634.18	0.135
634.50	0.096
634.83	0.081
635.16	0.018
635.48	-0.027
635.81	-0.072
636.14	-0.121
636.46	-0.138
636.79	-0.197
637.11	-0.248
637.44	-0.340
637.77	-0.380
638.09	-0.424
638.42	-0.476
638.75	-0.495
639.07	-0.515
639.40	-0.525
639.73	-0.568
640.05	-0.605
640.38	-0.565
640.70	-0.601
641.03	-0.605
641.36	-0.605
641.68	-0.595
642.01	-0.600
642.33	-0.598
642.66	-0.591
642.98	-0.615
643.31	-0.597
643.64	-0.596
643.96	-0.619
644.29	-0.592
644.61	-0.536
644.94	-0.515
645.26	-0.474
645.59	-0.414
645.91	-0.407
646.24	-0.387
646.56	-0.392
646.89	-0.405
647.22	-0.414
647.54	-0.410
647.87	-0.399
648.19	-0.456
648.52	-0.460
648.84	-0.459
649.17	-0.515
649.49	-0.503
649.82	-0.511
650.14	-0.490
650.47	-0.508
650.79	-0.443
651.11	-0.482
651.44	-0.450
651.76	-0.442
652.09	-0.390
652.41	-0.361
652.74	-0.308
653.06	-0.297
653.39	-0.296
653.71	-0.256
654.04	-0.197
654.36	-0.207
654.68	-0.140
655.01	-0.145
655.33	-0.080
655.66	-0.103
655.98	-0.082
656.30	-0.109
656.63	-0.067
656.95	-0.024
657.28	-0.025
657.60	-0.021
657.92	-0.026
658.25	-0.043
658.57	-0.025
658.90	-0.052
659.22	-0.073
659.54	-0.138
659.87	-0.160
660.19	-0.245
660.51	-0.312
660.84	-0.368
661.16	-0.395
661.48	-0.409
661.81	-0.448
662.13	-0.503
662.45	-0.506
662.78	-0.504
663.10	-0.487
663.42	-0.437
663.75	-0.366
664.07	-0.325
664.39	-0.319
664.72	-0.318
665.04	-0.331
665.36	-0.252
665.69	-0.178
666.01	-0.125
666.33	-0.064
666.65	-0.075
666.98	-0.013
667.30	0.018
667.62	0.063
667.94	0.108
668.27	0.154
668.59	0.265
668.91	0.371
669.23	0.404
669.56	0.429
669.88	0.481
670.20	0.583
670.52	0.662
670.85	0.683
671.17	0.760
671.49	0.859
671.81	1.000
672.13	1.064
672.46	1.108
672.78	1.189
673.10	1.297
673.42	1.377
673.74	1.527
674.07	1.598
674.39	1.787
674.71	1.865
675.03	2.057
675.35	2.154
675.67	2.253
676.00	2.340
676.32	2.437
676.64	2.535
676.96	2.682
677.28	2.774
677.60	2.861
677.92	2.893
678.25	3.035
678.57	3.077
678.89	3.113
679.21	3.194
679.53	3.291
679.85	3.349
680.17	3.428
680.49	3.478
680.81	3.543
681.13	3.593
681.46	3.713
681.78	3.811
682.10	3.876
682.42	3.954
682.74	4.066
683.06	4.127
683.38	4.276
683.70	4.423
684.02	4.526
684.34	4.657
684.66	4.803
684.98	4.936
685.30	4.976
685.62	5.068
685.94	5.200
686.26	5.269
686.58	5.320
686.90	5.354
687.22	5.328
687.54	5.330
687.86	5.280
688.18	5.252
688.50	5.217
688.82	5.186
689.14	5.192
689.46	5.211
689.78	5.149
690.10	5.186
690.42	5.209
690.74	5.285
691.06	5.312
691.38	5.386
691.70	5.483
692.02	5.553
692.34	5.689
692.66	5.731
692.98	5.823
693.30	6.045
693.62	6.152
693.94	6.293
694.26	6.413
694.57	6.616
694.89	6.815
695.21	7.010
695.53	7.188
695.85	7.374
696.17	7.606
696.49	7.789
696.81	7.930
697.13	8.103
697.44	8.281
697.76	8.537
698.08	8.765
698.40	9.006
698.72	9.214
699.04	9.483
699.36	9.772
699.67	10.012
699.99	10.261
700.31	10.593
700.63	10.909
700.95	11.299
701.27	11.611
701.58	11.921
701.90	12.209
702.22	12.571
702.54	12.819
702.86	13.032
703.17	13.362
703.49	13.736
703.81	14.058
704.13	14.364
704.45	14.593
704.76	14.826
705.08	15.090
705.40	15.267
705.72	15.485
706.03	15.811
706.35	16.131
706.67	16.488
706.99	16.779
707.30	17.032
707.62	17.375
707.94	17.718
708.26	17.939
708.57	18.220
708.89	18.591
709.21	18.938
709.53	19.212
709.84	19.528
710.16	19.844
710.48	20.149
710.79	20.533
711.11	20.770
711.43	21.042
711.74	21.432
712.06	21.782
712.38	22.120
712.69	22.424
713.01	22.835
713.33	23.208
713.64	23.566
713.96	23.922
714.28	24.217
714.59	24.672
714.91	25.079
715.23	25.470
715.54	25.864
715.86	26.274
716.17	26.694
716.49	27.017
716.81	27.381
717.12	27.661
717.44	28.018
717.76	28.460
718.07	28.783
718.39	29.125
718.70	29.488
719.02	29.764
719.33	30.159
719.65	30.405
719.97	30.664
720.28	31.012
720.60	31.499
720.91	31.908
721.23	32.259
721.54	32.601
721.86	32.939
722.17	33.230
722.49	33.562
722.81	33.651
723.12	34.176
723.44	34.505
723.75	34.894
724.07	35.120
724.38	35.406
724.70	35.745
725.01	35.999
725.33	36.258
725.64	36.659
725.96	37.033
726.27	37.326
726.59	37.448
726.90	37.755
727.22	37.795
727.53	38.142
727.84	38.509
728.16	38.596
728.47	38.883
728.79	39.223
729.10	39.376
729.42	39.577
729.73	39.961
730.05	40.238
730.36	40.431
730.67	40.755
730.99	40.866
731.30	40.908
731.62	41.159
731.93	41.389
732.24	41.596
732.56	41.968
732.87	42.352
733.19	42.605
733.50	42.832
733.81	43.117
734.13	43.416
734.44	43.724
734.76	43.915
735.07	44.217
735.38	44.518
735.70	44.858
736.01	44.967
736.32	45.083
736.64	45.346
736.95	45.613
737.26	45.837
737.58	46.026
737.89	46.107
738.20	46.356
738.52	46.484
738.83	46.582
739.14	46.554
739.45	46.745
739.77	46.948
740.08	47.009
740.39	47.038
740.71	47.320
741.02	47.352
741.33	47.439
741.64	47.593
741.96	47.874
742.27	47.910
742.58	48.201
742.90	48.349
743.21	48.323
743.52	48.427
743.83	48.551
744.14	48.621
744.46	48.908
744.77	49.006
745.08	48.976
745.39	48.712
745.71	48.920
746.02	48.846
746.33	48.916
746.64	48.928
746.95	49.031
747.27	49.340
747.58	49.383
747.89	49.473
748.20	49.630
748.51	49.879
748.82	50.180
749.14	50.268
749.45	50.278
749.76	50.205
750.07	50.423
750.38	50.314
750.69	50.279
751.01	50.212
751.32	50.263
751.63	50.345
751.94	50.117
752.25	49.935
752.56	49.948
752.87	50.003
753.18	50.009
753.49	49.874
753.81	50.161
754.12	49.986
754.43	50.144
754.74	49.844
755.05	49.756
755.36	49.885
755.67	50.169
755.98	50.142
756.29	50.232
756.60	50.361
756.91	50.475
757.22	50.489
757.53	50.807
757.84	50.813
758.15	51.296
758.46	51.476
758.77	51.571
759.09	51.649
759.40	51.684
759.71	51.697
760.02	51.685
760.33	51.652
760.64	51.519
760.95	51.533
761.26	51.513
761.57	51.259
761.88	51.138
762.18	51.210
762.49	51.099
762.80	51.121
763.11	51.089
763.42	51.088
763.73	51.072
764.04	51.090
764.35	50.961
764.66	50.938
764.97	50.907
765.28	50.859
765.59	50.633
765.90	50.502
766.21	50.244
766.52	50.147
766.83	50.061
767.14	49.706
767.44	49.406
767.75	49.105
768.06	49.026
768.37	48.843
768.68	48.949
768.99	48.698
769.30	48.619
769.61	48.470
769.91	48.238
770.22	47.888
770.53	48.020
770.84	47.981
771.15	48.125
771.46	47.782
771.77	47.916
772.07	47.561
772.38	47.506
772.69	47.248
773.00	47.596
773.31	47.722
773.61	47.715
773.92	47.679
774.23	47.607
774.54	47.281
774.85	47.145
775.15	47.082
775.46	47.260
775.77	47.312
776.08	47.364
776.39	46.992
776.69	46.851
777.00	46.840
777.31	47.090
777.62	47.054
777.92	47.126
778.23	47.424
778.54	47.340
778.85	47.332
779.15	47.507
779.46	47.748
779.77	47.759
780.07	47.790
780.38	48.019
780.69	47.668
781.00	47.950
781.30	47.863
781.61	47.614
781.92	47.625
782.22	47.673
782.53	47.208
782.84	47.048
783.14	47.487
783.45	47.541
783.76	47.878
784.06	47.944
784.37	47.639
784.68	47.747
784.98	47.664
785.29	47.656
785.60	47.242
785.90	47.879
786.21	47.963
786.51	47.891
786.82	48.174
787.13	47.865
787.43	48.153
787.74	48.388
788.04	48.544
788.35	48.850
788.66	48.998
788.96	49.374
789.27	49.069
789.57	48.986
789.88	49.056
790.19	48.690
790.49	48.742
790.80	48.647
791.10	48.845
791.41	48.829
791.71	48.610
792.02	48.456
792.32	48.136
792.63	48.465
792.93	48.488
793.24	48.411
793.54	48.668
793.85	48.685
794.15	48.496
794.46	48.289
794.76	48.278
795.07	48.502
795.37	48.499
795.68	48.559
795.98	48.442
796.29	48.743
796.59	48.716
796.90	48.505
797.20	48.321
797.51	48.434
797.81	48.421
798.12	48.505
798.42	48.489
798.72	48.663
799.03	49.128
799.33	49.262
799.64	49.401
799.94	49.392
800.25	49.337
800.55	49.320
800.85	49.533
801.16	49.898
801.46	49.413
801.77	49.547
802.07	49.451
802.37	49.180
802.68	49.001
802.98	48.758
803.28	48.894
803.59	49.420
803.89	49.696
804.20	49.351
804.50	49.064
804.80	49.369
805.11	49.350
805.41	49.422
805.71	49.502
806.02	49.758
806.32	49.691
806.62	49.786
806.93	49.581
807.23	49.833
807.53	50.033
807.83	49.760
808.14	50.079
808.44	50.077
808.74	49.935
809.05	49.859
809.35	49.733
809.65	50.411
809.95	50.371
810.26	49.836
810.56	49.326
810.86	49.374
811.16	49.998
811.47	50.151
811.77	50.379
812.07	50.558
812.37	50.973
812.68	51.403
812.98	51.351
813.28	51.352
813.58	52.092
813.88	52.044
814.19	52.534
814.49	52.654
814.79	52.315
815.09	52.529
815.39	52.713
815.70	52.820
816.00	52.412
816.30	52.057
816.60	51.886
816.90	51.738
817.20	52.193
817.50	51.827
817.81	51.593
818.11	51.644
818.41	51.546
818.71	51.673
819.01	51.821
819.31	52.139
819.61	52.458
819.92	52.675
820.22	52.876
820.52	53.022
820.82	53.340
821.12	53.713
821.42	54.067
821.72	54.253
822.02	54.559
822.32	54.859
822.62	55.096
822.92	55.230
823.22	55.439
823.52	55.737
823.83	55.845
824.13	55.903
824.43	55.784
824.73	55.714
825.03	55.760
825.33	55.711
825.63	55.415
825.93	55.253
826.23	55.324
826.53	55.203
826.83	54.893
827.13	55.050
827.43	55.193
827.73	55.511
828.03	55.685
828.33	55.837
828.63	55.773
828.93	55.935
829.23	55.620
829.53	55.456
829.83	55.361
830.13	55.272
830.42	55.205
830.72	54.574
831.02	54.331
831.32	53.815
831.62	53.869
831.92	53.776
832.22	53.917
832.52	53.945
832.82	53.979
833.12	53.974
833.42	54.095
833.72	54.097
834.01	54.453
834.31	54.564
834.61	54.978
834.91	55.362
835.21	55.624
835.51	55.565
835.81	55.821
836.11	55.405
836.40	55.457
836.70	55.728
837.00	55.721
837.30	55.450
837.60	55.583
837.90	55.784
838.19	54.795
838.49	54.928
838.79	55.085
839.09	55.584
839.39	55.884
839.68	56.302
839.98	55.941
840.28	55.558
840.58	55.740
840.88	55.811
841.17	55.283
841.47	55.921
841.77	55.559
842.07	55.775
842.36	55.239
842.66	54.962
842.96	53.534
843.26	51.912
843.55	51.926
843.85	51.349
844.15	49.497
844.45	48.647
844.74	48.604
845.04	47.785
845.34	46.217
845.63	46.763
845.93	46.948
846.23	49.027
846.53	51.321
846.82	51.156
847.12	51.340
847.42	51.070
847.71	50.871
848.01	50.252
848.31	50.606
848.60	50.639
848.90	50.711
849.19	49.882
849.49	48.076
849.79	47.688
850.08	46.864
850.38	46.749
850.68	47.505
850.97	48.633
851.27	48.496
851.56	48.379
851.86	48.613
852.16	47.509
852.45	47.892
852.75	49.395
853.04	50.428
853.34	51.287
853.64	52.399
853.93	52.547
854.23	51.623
854.52	51.507
854.82	51.486
855.11	51.113
855.41	52.429
855.70	54.065
856.00	53.044
856.30	51.634
856.59	52.092
856.89	51.380
857.18	51.190
857.48	50.809
857.77	49.832
858.07	49.862
858.36	50.073
858.66	47.427
858.95	46.120
859.25	47.365
859.54	46.793
859.84	45.544
860.13	44.560
860.42	44.405
860.72	44.004
861.01	46.394
861.31	47.154
861.60	48.308
861.90	49.795
862.19	49.541
862.49	48.436
862.78	47.806
863.07	49.328
863.37	50.571
863.66	49.331
863.96	51.500
864.25	50.383
864.54	51.011
864.84	50.775
865.13	51.189
865.43	51.620
865.72	56.350
866.01	63.808
866.31	52.768
866.60	50.471
866.89	47.905
>>>>>End Spectral Data<<<<<
