OOIBase32 Version 2.0.0.6 Data File
++++++++++++++++++++++++++++++++++++
Date: 01-23-2012, 23:08:40
User: Valued Ocean Optics Customer
Spectrometer Serial Number: USB2E2917
Spectrometer Channel: Master
Integration Time (msec): 5
Spectra Averaged: 10
Boxcar Smoothing: 5
Correct for Electrical Dark: Enabled
Time Normalized: Disabled
Dual-beam Reference: Disabled
Reference Channel: Master
Temperature: Not acquired
Spectrometer Type: S2000
ADC Type: USB2000
Number of Pixels in File: 2048
Graph Title: 
>>>>>Begin Spectral Data<<<<<
180.30	0.000
180.67	0.000
181.03	118.241
181.40	472.148
181.77	1397.783
182.14	144.734
182.51	-336.510
182.88	-39.256
183.25	35.252
183.62	20.688
183.99	53.164
184.36	91.901
184.73	-61.402
185.10	44.013
185.46	-652.248
185.83	-576.694
186.20	1733.390
186.57	275.674
186.94	35.699
187.31	71.765
187.68	-23.470
188.05	-0.750
188.42	42.408
188.78	157.771
189.15	469.823
189.52	-38.290
189.89	-36.316
190.26	-21.355
190.63	-20.640
191.00	-9.127
191.37	-16.230
191.73	8.766
192.10	5.516
192.47	0.182
192.84	-4.396
193.21	-3.215
193.58	-8.019
193.94	-7.312
194.31	-11.317
194.68	-3.799
195.05	-14.012
195.42	4.102
195.79	-24.005
196.15	-23.207
196.52	-10.958
196.89	-20.700
197.26	-49.142
197.63	-48.185
198.00	-30.464
198.36	-25.565
198.73	-49.793
199.10	-37.415
199.47	-56.484
199.84	-59.225
200.20	-56.230
200.57	-41.434
200.94	-29.596
201.31	-24.776
201.68	-20.789
202.04	-34.211
202.41	-36.201
202.78	-38.965
203.15	-50.357
203.51	-35.873
203.88	-20.323
204.25	-22.828
204.62	-47.634
204.98	-75.516
205.35	-60.790
205.72	-63.117
206.09	-68.534
206.46	-119.922
206.82	-102.995
207.19	-79.755
207.56	-129.877
207.92	-110.676
208.29	-136.323
208.66	-84.787
209.03	-60.968
209.39	-22.780
209.76	-14.834
210.13	7.482
210.50	12.581
210.86	30.485
211.23	9.891
211.60	9.199
211.96	2.408
212.33	22.226
212.70	17.116
213.07	34.071
213.43	-13.997
213.80	-19.507
214.17	-5.297
214.53	3.274
214.90	9.491
215.27	17.595
215.63	23.266
216.00	18.119
216.37	15.925
216.74	14.363
217.10	6.756
217.47	13.727
217.84	1.183
218.20	-5.917
218.57	-5.500
218.94	-10.988
219.30	-11.821
219.67	-17.180
220.04	-13.531
220.40	-16.311
220.77	-17.591
221.13	-17.050
221.50	-14.937
221.87	-5.636
222.23	-12.742
222.60	-18.455
222.97	-12.391
223.33	-12.636
223.70	-13.211
224.07	-9.167
224.43	-10.067
224.80	-8.000
225.16	-7.446
225.53	-7.056
225.90	-9.771
226.26	-5.817
226.63	-5.360
226.99	-5.221
227.36	-4.387
227.73	-2.147
228.09	-4.395
228.46	-1.567
228.82	-2.179
229.19	-1.675
229.56	-1.197
229.92	2.065
230.29	2.455
230.65	3.592
231.02	2.192
231.38	0.035
231.75	-0.337
232.12	-0.673
232.48	-3.444
232.85	-3.466
233.21	-5.332
233.58	-7.211
233.94	-7.881
234.31	-8.376
234.68	-8.026
235.04	-7.443
235.41	-5.433
235.77	-3.820
236.14	-2.123
236.50	-0.273
236.87	0.602
237.23	2.135
237.60	1.644
237.96	0.996
238.33	0.625
238.69	0.153
239.06	0.070
239.42	0.322
239.79	-0.736
240.15	-0.810
240.52	-0.852
240.88	-1.038
241.25	-1.295
241.61	-0.349
241.98	-0.270
242.34	-0.263
242.71	-0.283
243.07	0.051
243.44	-0.228
243.80	-0.105
244.17	-0.146
244.53	-0.509
244.90	-0.508
245.26	-0.509
245.63	-0.769
245.99	-0.748
246.36	-0.741
246.72	-0.432
247.09	-0.830
247.45	-0.643
247.81	-0.455
248.18	-0.413
248.54	0.048
248.91	-0.012
249.27	0.033
249.64	0.457
250.00	0.628
250.36	0.471
250.73	0.494
251.09	0.702
251.46	0.490
251.82	0.326
252.19	0.291
252.55	-0.042
252.91	-0.034
253.28	-0.017
253.64	-0.798
254.01	-0.918
254.37	-0.474
254.73	-0.153
255.10	0.246
255.46	0.635
255.83	0.769
256.19	0.781
256.55	0.629
256.92	0.800
257.28	0.857
257.65	1.102
258.01	1.039
258.37	1.022
258.74	0.661
259.10	0.572
259.46	0.210
259.83	0.119
260.19	-0.014
260.55	-0.007
260.92	-0.113
261.28	-0.280
261.64	-0.376
262.01	-0.359
262.37	-0.387
262.73	-0.042
263.10	0.027
263.46	0.604
263.82	0.690
264.19	0.818
264.55	0.435
264.91	0.129
265.28	-0.095
265.64	-0.039
266.00	-0.164
266.37	-0.279
266.73	-0.411
267.09	-0.560
267.46	-0.778
267.82	-1.136
268.18	-1.043
268.54	-0.667
268.91	-0.232
269.27	0.054
269.63	0.069
270.00	0.207
270.36	0.196
270.72	0.365
271.08	0.261
271.45	0.314
271.81	0.523
272.17	0.316
272.53	0.369
272.90	0.380
273.26	0.472
273.62	0.369
273.98	0.182
274.35	0.244
274.71	0.187
275.07	0.505
275.43	0.422
275.80	0.457
276.16	0.668
276.52	0.672
276.88	0.495
277.25	0.271
277.61	0.210
277.97	0.177
278.33	0.301
278.69	0.016
279.06	-0.181
279.42	-0.124
279.78	-0.072
280.14	0.081
280.50	0.072
280.87	-0.028
281.23	0.027
281.59	0.200
281.95	0.388
282.31	0.439
282.68	0.386
283.04	0.489
283.40	0.618
283.76	0.612
284.12	0.614
284.48	0.723
284.85	0.822
285.21	0.875
285.57	0.748
285.93	0.697
286.29	0.380
286.65	0.545
287.02	0.819
287.38	0.723
287.74	0.639
288.10	0.437
288.46	0.181
288.82	0.109
289.18	0.140
289.54	0.112
289.91	0.135
290.27	0.346
290.63	0.530
290.99	0.305
291.35	0.339
291.71	0.561
292.07	0.559
292.43	0.704
292.79	0.685
293.16	0.621
293.52	0.794
293.88	0.928
294.24	0.962
294.60	0.710
294.96	0.557
295.32	0.615
295.68	0.549
296.04	0.585
296.40	0.584
296.76	0.712
297.12	0.750
297.49	0.648
297.85	0.539
298.21	0.528
298.57	0.424
298.93	0.592
299.29	0.435
299.65	0.380
300.01	0.385
300.37	0.391
300.73	0.320
301.09	0.204
301.45	0.213
301.81	0.239
302.17	0.256
302.53	0.384
302.89	0.268
303.25	0.404
303.61	0.422
303.97	0.265
304.33	0.274
304.69	0.415
305.05	0.443
305.41	0.443
305.77	0.388
306.13	0.240
306.49	0.195
306.85	0.304
307.21	0.250
307.57	0.292
307.93	0.436
308.29	0.520
308.65	0.426
309.01	0.463
309.37	0.436
309.73	0.469
310.09	0.661
310.45	0.712
310.81	0.651
311.17	0.652
311.53	0.575
311.89	0.678
312.25	0.563
312.61	0.496
312.96	0.505
313.32	0.628
313.68	0.548
314.04	0.448
314.40	0.485
314.76	0.437
315.12	0.393
315.48	0.482
315.84	0.308
316.20	0.351
316.56	0.339
316.92	0.272
317.27	0.216
317.63	0.321
317.99	0.221
318.35	0.255
318.71	0.294
319.07	0.365
319.43	0.333
319.79	0.518
320.15	0.472
320.50	0.550
320.86	0.582
321.22	0.614
321.58	0.505
321.94	0.542
322.30	0.424
322.66	0.439
323.01	0.291
323.37	0.302
323.73	0.264
324.09	0.201
324.45	0.234
324.81	0.156
325.17	0.088
325.52	0.076
325.88	0.125
326.24	0.240
326.60	0.211
326.96	0.252
327.31	0.207
327.67	0.141
328.03	0.207
328.39	0.130
328.75	0.202
329.11	0.285
329.46	0.371
329.82	0.351
330.18	0.314
330.54	0.327
330.90	0.352
331.25	0.352
331.61	0.387
331.97	0.367
332.33	0.410
332.68	0.405
333.04	0.392
333.40	0.300
333.76	0.236
334.11	0.237
334.47	0.346
334.83	0.319
335.19	0.286
335.54	0.268
335.90	0.255
336.26	0.303
336.62	0.299
336.97	0.214
337.33	0.187
337.69	0.225
338.05	0.162
338.40	-0.021
338.76	0.017
339.12	0.091
339.48	-0.010
339.83	0.054
340.19	0.016
340.55	0.062
340.90	0.037
341.26	0.111
341.62	0.128
341.97	0.117
342.33	0.174
342.69	0.168
343.04	0.136
343.40	0.110
343.76	0.027
344.12	0.053
344.47	0.093
344.83	0.174
345.19	0.183
345.54	0.181
345.90	0.283
346.26	0.307
346.61	0.360
346.97	0.335
347.32	0.414
347.68	0.479
348.04	0.346
348.39	0.231
348.75	0.186
349.11	0.169
349.46	0.114
349.82	0.046
350.18	-0.049
350.53	-0.050
350.89	-0.067
351.24	-0.158
351.60	-0.203
351.96	-0.088
352.31	-0.090
352.67	-0.065
353.02	-0.147
353.38	-0.126
353.74	-0.113
354.09	-0.016
354.45	-0.037
354.80	-0.015
355.16	0.048
355.52	0.094
355.87	0.021
356.23	0.076
356.58	0.091
356.94	0.186
357.29	0.217
357.65	0.254
358.00	0.248
358.36	0.232
358.72	0.215
359.07	0.236
359.43	0.244
359.78	0.296
360.14	0.308
360.49	0.309
360.85	0.271
361.20	0.240
361.56	0.167
361.91	0.160
362.27	0.183
362.62	0.235
362.98	0.253
363.33	0.206
363.69	0.181
364.04	0.185
364.40	0.158
364.75	0.149
365.11	0.154
365.46	0.160
365.82	0.163
366.17	0.117
366.53	0.095
366.88	0.052
367.24	0.048
367.59	0.035
367.95	0.023
368.30	-0.009
368.66	0.018
369.01	0.038
369.37	0.074
369.72	0.110
370.08	0.185
370.43	0.209
370.78	0.229
371.14	0.243
371.49	0.283
371.85	0.255
372.20	0.276
372.56	0.277
372.91	0.276
373.26	0.300
373.62	0.229
373.97	0.210
374.33	0.187
374.68	0.209
375.03	0.217
375.39	0.190
375.74	0.176
376.10	0.186
376.45	0.182
376.80	0.190
377.16	0.129
377.51	0.153
377.87	0.145
378.22	0.092
378.57	0.079
378.93	0.076
379.28	0.102
379.63	0.142
379.99	0.195
380.34	0.225
380.70	0.191
381.05	0.227
381.40	0.203
381.76	0.249
382.11	0.333
382.46	0.363
382.82	0.404
383.17	0.403
383.52	0.357
383.88	0.306
384.23	0.292
384.58	0.319
384.94	0.317
385.29	0.375
385.64	0.357
385.99	0.366
386.35	0.364
386.70	0.361
387.05	0.308
387.41	0.355
387.76	0.330
388.11	0.307
388.47	0.274
388.82	0.298
389.17	0.252
389.52	0.271
389.88	0.264
390.23	0.284
390.58	0.298
390.93	0.348
391.29	0.368
391.64	0.442
391.99	0.481
392.34	0.548
392.70	0.541
393.05	0.572
393.40	0.530
393.75	0.531
394.11	0.493
394.46	0.450
394.81	0.449
395.16	0.384
395.52	0.346
395.87	0.345
396.22	0.323
396.57	0.286
396.92	0.272
397.28	0.259
397.63	0.221
397.98	0.241
398.33	0.212
398.68	0.207
399.04	0.217
399.39	0.193
399.74	0.169
400.09	0.153
400.44	0.178
400.80	0.180
401.15	0.175
401.50	0.192
401.85	0.176
402.20	0.185
402.55	0.198
402.90	0.194
403.26	0.205
403.61	0.193
403.96	0.185
404.31	0.178
404.66	0.167
405.01	0.154
405.36	0.165
405.72	0.166
406.07	0.179
406.42	0.148
406.77	0.167
407.12	0.162
407.47	0.162
407.82	0.160
408.17	0.158
408.53	0.157
408.88	0.164
409.23	0.152
409.58	0.123
409.93	0.123
410.28	0.130
410.63	0.103
410.98	0.098
411.33	0.106
411.68	0.129
412.03	0.169
412.38	0.154
412.73	0.199
413.09	0.211
413.44	0.258
413.79	0.275
414.14	0.300
414.49	0.348
414.84	0.375
415.19	0.392
415.54	0.406
415.89	0.424
416.24	0.493
416.59	0.492
416.94	0.503
417.29	0.525
417.64	0.534
417.99	0.557
418.34	0.575
418.69	0.591
419.04	0.600
419.39	0.614
419.74	0.610
420.09	0.613
420.44	0.617
420.79	0.610
421.14	0.604
421.49	0.608
421.84	0.596
422.19	0.595
422.54	0.592
422.89	0.585
423.24	0.572
423.59	0.554
423.94	0.518
424.29	0.512
424.64	0.519
424.99	0.498
425.34	0.490
425.68	0.471
426.03	0.425
426.38	0.403
426.73	0.389
427.08	0.364
427.43	0.383
427.78	0.405
428.13	0.401
428.48	0.402
428.83	0.412
429.18	0.412
429.53	0.430
429.87	0.434
430.22	0.430
430.57	0.454
430.92	0.472
431.27	0.470
431.62	0.453
431.97	0.467
432.32	0.453
432.67	0.444
433.01	0.417
433.36	0.386
433.71	0.389
434.06	0.374
434.41	0.348
434.76	0.348
435.11	0.345
435.45	0.347
435.80	0.328
436.15	0.348
436.50	0.373
436.85	0.403
437.20	0.412
437.54	0.414
437.89	0.438
438.24	0.463
438.59	0.450
438.94	0.441
439.29	0.431
439.63	0.448
439.98	0.443
440.33	0.414
440.68	0.423
441.03	0.445
441.37	0.456
441.72	0.448
442.07	0.449
442.42	0.464
442.76	0.473
443.11	0.495
443.46	0.498
443.81	0.498
444.16	0.516
444.50	0.507
444.85	0.487
445.20	0.480
445.55	0.482
445.89	0.468
446.24	0.458
446.59	0.438
446.94	0.410
447.28	0.381
447.63	0.365
447.98	0.335
448.32	0.315
448.67	0.303
449.02	0.279
449.37	0.257
449.71	0.249
450.06	0.233
450.41	0.246
450.75	0.241
451.10	0.244
451.45	0.230
451.79	0.216
452.14	0.210
452.49	0.214
452.84	0.227
453.18	0.218
453.53	0.198
453.88	0.208
454.22	0.206
454.57	0.235
454.92	0.235
455.26	0.263
455.61	0.303
455.95	0.337
456.30	0.337
456.65	0.366
456.99	0.395
457.34	0.423
457.69	0.424
458.03	0.428
458.38	0.428
458.73	0.430
459.07	0.415
459.42	0.386
459.76	0.354
460.11	0.334
460.46	0.292
460.80	0.260
461.15	0.243
461.49	0.214
461.84	0.195
462.19	0.156
462.53	0.149
462.88	0.140
463.22	0.139
463.57	0.137
463.91	0.165
464.26	0.175
464.61	0.178
464.95	0.143
465.30	0.152
465.64	0.151
465.99	0.166
466.33	0.168
466.68	0.158
467.02	0.161
467.37	0.156
467.71	0.118
468.06	0.101
468.41	0.090
468.75	0.093
469.10	0.086
469.44	0.082
469.79	0.055
470.13	0.019
470.48	0.023
470.82	0.009
471.17	0.006
471.51	0.005
471.86	-0.004
472.20	-0.011
472.55	-0.014
472.89	-0.022
473.23	-0.043
473.58	-0.037
473.92	-0.024
474.27	-0.051
474.61	-0.063
474.96	-0.059
475.30	-0.047
475.65	-0.056
475.99	-0.058
476.34	-0.051
476.68	-0.042
477.02	-0.035
477.37	-0.024
477.71	-0.010
478.06	0.039
478.40	0.115
478.75	0.188
479.09	0.258
479.43	0.347
479.78	0.414
480.12	0.480
480.47	0.542
480.81	0.596
481.15	0.643
481.50	0.702
481.84	0.748
482.19	0.781
482.53	0.810
482.87	0.832
483.22	0.826
483.56	0.817
483.90	0.794
484.25	0.766
484.59	0.748
484.94	0.722
485.28	0.686
485.62	0.644
485.97	0.601
486.31	0.565
486.65	0.529
487.00	0.508
487.34	0.490
487.68	0.480
488.03	0.461
488.37	0.443
488.71	0.424
489.06	0.408
489.40	0.403
489.74	0.391
490.09	0.373
490.43	0.356
490.77	0.328
491.11	0.302
491.46	0.267
491.80	0.243
492.14	0.200
492.49	0.177
492.83	0.126
493.17	0.080
493.51	0.040
493.86	0.005
494.20	-0.027
494.54	-0.040
494.88	-0.042
495.23	-0.030
495.57	-0.033
495.91	-0.015
496.25	-0.018
496.60	-0.012
496.94	-0.017
497.28	-0.011
497.62	-0.027
497.97	-0.041
498.31	-0.041
498.65	-0.057
498.99	-0.076
499.33	-0.062
499.68	-0.070
500.02	-0.071
500.36	-0.071
500.70	-0.075
501.04	-0.088
501.39	-0.084
501.73	-0.069
502.07	-0.045
502.41	-0.034
502.75	-0.013
503.09	-0.015
503.44	0.002
503.78	0.010
504.12	0.023
504.46	0.056
504.80	0.098
505.14	0.127
505.49	0.152
505.83	0.162
506.17	0.196
506.51	0.208
506.85	0.234
507.19	0.248
507.53	0.265
507.87	0.304
508.22	0.322
508.56	0.321
508.90	0.326
509.24	0.337
509.58	0.338
509.92	0.349
510.26	0.380
510.60	0.389
510.94	0.394
511.28	0.398
511.63	0.412
511.97	0.429
512.31	0.459
512.65	0.490
512.99	0.530
513.33	0.605
513.67	0.655
514.01	0.723
514.35	0.794
514.69	0.877
515.03	0.964
515.37	1.035
515.71	1.113
516.05	1.172
516.39	1.226
516.73	1.276
517.07	1.313
517.41	1.342
517.75	1.350
518.09	1.372
518.43	1.378
518.77	1.383
519.11	1.387
519.45	1.378
519.79	1.405
520.13	1.421
520.47	1.458
520.81	1.502
521.15	1.577
521.49	1.648
521.83	1.726
522.17	1.807
522.51	1.914
522.85	2.029
523.19	2.176
523.53	2.316
523.87	2.476
524.21	2.610
524.55	2.731
524.89	2.840
525.23	2.945
525.57	3.027
525.91	3.115
526.25	3.182
526.58	3.256
526.92	3.299
527.26	3.328
527.60	3.343
527.94	3.356
528.28	3.359
528.62	3.357
528.96	3.364
529.30	3.370
529.64	3.373
529.97	3.376
530.31	3.364
530.65	3.365
530.99	3.379
531.33	3.407
531.67	3.436
532.01	3.462
532.35	3.479
532.68	3.484
533.02	3.484
533.36	3.486
533.70	3.486
534.04	3.481
534.38	3.488
534.71	3.484
535.05	3.463
535.39	3.440
535.73	3.443
536.07	3.455
536.41	3.472
536.74	3.506
537.08	3.543
537.42	3.598
537.76	3.648
538.10	3.692
538.43	3.747
538.77	3.808
539.11	3.845
539.45	3.882
539.79	3.917
540.12	3.945
540.46	3.963
540.80	3.966
541.14	3.951
541.47	3.935
541.81	3.921
542.15	3.899
542.49	3.853
542.82	3.840
543.16	3.806
543.50	3.775
543.84	3.741
544.17	3.705
544.51	3.689
544.85	3.660
545.18	3.650
545.52	3.630
545.86	3.606
546.20	3.598
546.53	3.569
546.87	3.537
547.21	3.507
547.54	3.479
547.88	3.465
548.22	3.431
548.55	3.427
548.89	3.403
549.23	3.404
549.56	3.412
549.90	3.425
550.24	3.439
550.57	3.458
550.91	3.447
551.25	3.457
551.58	3.438
551.92	3.431
552.26	3.424
552.59	3.418
552.93	3.385
553.27	3.363
553.60	3.346
553.94	3.317
554.27	3.293
554.61	3.281
554.95	3.263
555.28	3.258
555.62	3.231
555.95	3.219
556.29	3.198
556.63	3.188
556.96	3.149
557.30	3.114
557.63	3.077
557.97	3.039
558.31	2.999
558.64	2.952
558.98	2.939
559.31	2.941
559.65	2.910
559.98	2.889
560.32	2.858
560.65	2.850
560.99	2.836
561.33	2.820
561.66	2.823
562.00	2.828
562.33	2.825
562.67	2.805
563.00	2.775
563.34	2.767
563.67	2.756
564.01	2.731
564.34	2.718
564.68	2.687
565.01	2.674
565.35	2.642
565.68	2.604
566.02	2.568
566.35	2.536
566.69	2.493
567.02	2.464
567.36	2.414
567.69	2.405
568.03	2.369
568.36	2.342
568.69	2.315
569.03	2.286
569.36	2.263
569.70	2.230
570.03	2.201
570.37	2.185
570.70	2.163
571.04	2.157
571.37	2.103
571.70	2.077
572.04	2.042
572.37	2.002
572.71	1.961
573.04	1.933
573.37	1.913
573.71	1.891
574.04	1.860
574.38	1.810
574.71	1.761
575.04	1.730
575.38	1.682
575.71	1.633
576.05	1.598
576.38	1.567
576.71	1.516
577.05	1.485
577.38	1.433
577.71	1.376
578.05	1.318
578.38	1.282
578.71	1.250
579.05	1.204
579.38	1.160
579.71	1.130
580.05	1.093
580.38	1.067
580.71	1.012
581.05	0.984
581.38	0.955
581.71	0.946
582.05	0.922
582.38	0.908
582.71	0.891
583.04	0.910
583.38	0.879
583.71	0.892
584.04	0.878
584.38	0.895
584.71	0.902
585.04	0.936
585.37	0.943
585.71	0.953
586.04	0.943
586.37	0.966
586.70	0.954
587.04	0.985
587.37	0.967
587.70	0.962
588.03	0.964
588.37	0.961
588.70	0.952
589.03	0.941
589.36	0.936
589.69	0.921
590.03	0.888
590.36	0.871
590.69	0.832
591.02	0.804
591.35	0.788
591.69	0.772
592.02	0.764
592.35	0.748
592.68	0.757
593.01	0.737
593.35	0.753
593.68	0.774
594.01	0.774
594.34	0.773
594.67	0.786
595.00	0.793
595.34	0.762
595.67	0.725
596.00	0.712
596.33	0.658
596.66	0.635
596.99	0.594
597.32	0.515
597.65	0.485
597.99	0.443
598.32	0.391
598.65	0.340
598.98	0.328
599.31	0.310
599.64	0.286
599.97	0.285
600.30	0.292
600.63	0.312
600.96	0.342
601.30	0.351
601.63	0.367
601.96	0.376
602.29	0.404
602.62	0.399
602.95	0.403
603.28	0.394
603.61	0.376
603.94	0.344
604.27	0.322
604.60	0.287
604.93	0.275
605.26	0.264
605.59	0.259
605.92	0.224
606.25	0.188
606.58	0.165
606.91	0.128
607.24	0.118
607.57	0.101
607.90	0.065
608.23	0.060
608.56	0.012
608.89	-0.033
609.22	-0.086
609.55	-0.149
609.88	-0.200
610.21	-0.240
610.54	-0.309
610.87	-0.361
611.20	-0.414
611.53	-0.460
611.86	-0.516
612.19	-0.587
612.52	-0.631
612.85	-0.644
613.18	-0.663
613.51	-0.680
613.84	-0.739
614.17	-0.746
614.49	-0.762
614.82	-0.790
615.15	-0.811
615.48	-0.810
615.81	-0.819
616.14	-0.828
616.47	-0.885
616.80	-0.909
617.13	-0.934
617.46	-0.949
617.78	-0.949
618.11	-0.983
618.44	-0.977
618.77	-1.015
619.10	-1.044
619.43	-1.057
619.76	-1.112
620.09	-1.075
620.41	-1.084
620.74	-1.066
621.07	-1.044
621.40	-1.024
621.73	-1.002
622.06	-0.997
622.38	-0.964
622.71	-0.942
623.04	-0.892
623.37	-0.812
623.70	-0.827
624.02	-0.793
624.35	-0.752
624.68	-0.715
625.01	-0.707
625.34	-0.672
625.66	-0.658
625.99	-0.638
626.32	-0.637
626.65	-0.638
626.98	-0.684
627.30	-0.683
627.63	-0.716
627.96	-0.784
628.29	-0.833
628.61	-0.862
628.94	-0.913
629.27	-0.954
629.60	-1.017
629.92	-1.046
630.25	-1.093
630.58	-1.102
630.91	-1.137
631.23	-1.129
631.56	-1.119
631.89	-1.145
632.21	-1.165
632.54	-1.158
632.87	-1.173
633.19	-1.186
633.52	-1.231
633.85	-1.230
634.18	-1.280
634.50	-1.305
634.83	-1.349
635.16	-1.410
635.48	-1.448
635.81	-1.496
636.14	-1.567
636.46	-1.624
636.79	-1.646
637.11	-1.651
637.44	-1.745
637.77	-1.752
638.09	-1.796
638.42	-1.826
638.75	-1.823
639.07	-1.828
639.40	-1.833
639.73	-1.844
640.05	-1.859
640.38	-1.850
640.70	-1.904
641.03	-1.877
641.36	-1.869
641.68	-1.846
642.01	-1.864
642.33	-1.884
642.66	-1.904
642.98	-1.921
643.31	-1.923
643.64	-1.891
643.96	-1.919
644.29	-1.854
644.61	-1.845
644.94	-1.858
645.26	-1.859
645.59	-1.818
645.91	-1.790
646.24	-1.742
646.56	-1.705
646.89	-1.691
647.22	-1.700
647.54	-1.694
647.87	-1.714
648.19	-1.722
648.52	-1.716
648.84	-1.726
649.17	-1.773
649.49	-1.771
649.82	-1.813
650.14	-1.841
650.47	-1.846
650.79	-1.836
651.11	-1.835
651.44	-1.841
651.76	-1.832
652.09	-1.820
652.41	-1.788
652.74	-1.726
653.06	-1.722
653.39	-1.705
653.71	-1.663
654.04	-1.656
654.36	-1.626
654.68	-1.582
655.01	-1.547
655.33	-1.516
655.66	-1.511
655.98	-1.504
656.30	-1.511
656.63	-1.491
656.95	-1.473
657.28	-1.476
657.60	-1.483
657.92	-1.499
658.25	-1.523
658.57	-1.551
658.90	-1.581
659.22	-1.583
659.54	-1.611
659.87	-1.633
660.19	-1.683
660.51	-1.721
660.84	-1.750
661.16	-1.749
661.48	-1.778
661.81	-1.804
662.13	-1.818
662.45	-1.817
662.78	-1.842
663.10	-1.811
663.42	-1.810
663.75	-1.755
664.07	-1.728
664.39	-1.743
664.72	-1.770
665.04	-1.736
665.36	-1.707
665.69	-1.652
666.01	-1.609
666.33	-1.555
666.65	-1.553
666.98	-1.471
667.30	-1.415
667.62	-1.370
667.94	-1.326
668.27	-1.266
668.59	-1.196
668.91	-1.119
669.23	-1.063
669.56	-1.033
669.88	-0.964
670.20	-0.943
670.52	-0.898
670.85	-0.909
671.17	-0.847
671.49	-0.736
671.81	-0.639
672.13	-0.583
672.46	-0.494
672.78	-0.446
673.10	-0.343
673.42	-0.264
673.74	-0.114
674.07	-0.041
674.39	0.125
674.71	0.218
675.03	0.365
675.35	0.468
675.67	0.581
676.00	0.655
676.32	0.748
676.64	0.846
676.96	0.990
677.28	1.114
677.60	1.217
677.92	1.292
678.25	1.368
678.57	1.413
678.89	1.455
679.21	1.491
679.53	1.574
679.85	1.643
680.17	1.671
680.49	1.672
680.81	1.720
681.13	1.749
681.46	1.802
681.78	1.895
682.10	1.964
682.42	2.067
682.74	2.185
683.06	2.232
683.38	2.338
683.70	2.490
684.02	2.580
684.34	2.683
684.66	2.824
684.98	2.889
685.30	2.967
685.62	3.021
685.94	3.072
686.26	3.085
686.58	3.111
686.90	3.146
687.22	3.104
687.54	3.074
687.86	2.975
688.18	2.865
688.50	2.813
688.82	2.688
689.14	2.642
689.46	2.626
689.78	2.541
690.10	2.482
690.42	2.384
690.74	2.376
691.06	2.395
691.38	2.400
691.70	2.450
692.02	2.457
692.34	2.566
692.66	2.552
692.98	2.535
693.30	2.662
693.62	2.732
693.94	2.854
694.26	2.894
694.57	2.915
694.89	3.043
695.21	3.112
695.53	3.235
695.85	3.330
696.17	3.457
696.49	3.599
696.81	3.687
697.13	3.825
697.44	3.937
697.76	4.109
698.08	4.294
698.40	4.418
698.72	4.575
699.04	4.728
699.36	4.892
699.67	5.087
699.99	5.218
700.31	5.427
700.63	5.599
700.95	5.813
701.27	6.004
701.58	6.144
701.90	6.369
702.22	6.628
702.54	6.856
702.86	7.104
703.17	7.289
703.49	7.660
703.81	7.865
704.13	8.175
704.45	8.447
704.76	8.789
705.08	9.139
705.40	9.421
705.72	9.708
706.03	9.982
706.35	10.200
706.67	10.509
706.99	10.760
707.30	11.068
707.62	11.378
707.94	11.704
708.26	11.909
708.57	12.204
708.89	12.499
709.21	12.769
709.53	13.095
709.84	13.487
710.16	13.854
710.48	14.150
710.79	14.499
711.11	14.754
711.43	15.012
711.74	15.351
712.06	15.666
712.38	16.034
712.69	16.316
713.01	16.733
713.33	17.091
713.64	17.472
713.96	17.866
714.28	18.235
714.59	18.798
714.91	19.252
715.23	19.623
715.54	20.029
715.86	20.372
716.17	20.872
716.49	21.234
716.81	21.610
717.12	21.989
717.44	22.407
717.76	22.837
718.07	23.044
718.39	23.359
718.70	23.678
719.02	24.041
719.33	24.426
719.65	24.738
719.97	25.086
720.28	25.462
720.60	25.806
720.91	26.142
721.23	26.563
721.54	26.983
721.86	27.324
722.17	27.826
722.49	28.283
722.81	28.634
723.12	29.077
723.44	29.460
723.75	29.721
724.07	29.951
724.38	30.271
724.70	30.631
725.01	30.958
725.33	31.403
725.64	31.696
725.96	31.973
726.27	32.247
726.59	32.506
726.90	32.754
727.22	32.987
727.53	33.406
727.84	33.624
728.16	33.674
728.47	34.003
728.79	34.198
729.10	34.389
729.42	34.563
729.73	34.917
730.05	35.269
730.36	35.440
730.67	35.685
730.99	35.796
731.30	36.035
731.62	36.312
731.93	36.466
732.24	36.711
732.56	36.940
732.87	37.194
733.19	37.333
733.50	37.420
733.81	37.658
734.13	38.039
734.44	38.377
734.76	38.595
735.07	39.001
735.38	39.154
735.70	39.360
736.01	39.596
736.32	39.873
736.64	40.006
736.95	40.169
737.26	40.262
737.58	40.354
737.89	40.509
738.20	40.635
738.52	40.695
738.83	40.864
739.14	41.033
739.45	41.255
739.77	41.356
740.08	41.530
740.39	41.750
740.71	41.993
741.02	42.088
741.33	42.166
741.64	42.338
741.96	42.577
742.27	42.687
742.58	42.686
742.90	42.679
743.21	42.724
743.52	43.087
743.83	43.080
744.14	43.222
744.46	43.462
744.77	43.619
745.08	43.852
745.39	43.895
745.71	43.986
746.02	44.162
746.33	44.411
746.64	44.414
746.95	44.276
747.27	44.470
747.58	44.430
747.89	44.331
748.20	44.316
748.51	44.373
748.82	44.301
749.14	44.236
749.45	44.195
749.76	44.285
750.07	44.554
750.38	44.627
750.69	44.532
751.01	44.739
751.32	45.039
751.63	45.234
751.94	45.220
752.25	45.215
752.56	45.271
752.87	45.321
753.18	45.152
753.49	45.033
753.81	44.992
754.12	45.008
754.43	45.160
754.74	44.940
755.05	44.969
755.36	44.971
755.67	45.137
755.98	45.440
756.29	45.536
756.60	45.728
756.91	45.888
757.22	46.133
757.53	46.445
757.84	46.510
758.15	46.901
758.46	46.911
758.77	47.082
759.09	47.219
759.40	47.293
759.71	47.268
760.02	47.298
760.33	47.312
760.64	47.192
760.95	47.161
761.26	47.053
761.57	46.892
761.88	46.934
762.18	46.937
762.49	46.818
762.80	46.776
763.11	46.806
763.42	46.702
763.73	46.628
764.04	46.635
764.35	46.602
764.66	46.499
764.97	46.351
765.28	46.160
765.59	45.827
765.90	45.686
766.21	45.296
766.52	45.068
766.83	44.858
767.14	44.714
767.44	44.345
767.75	44.049
768.06	43.996
768.37	43.797
768.68	43.682
768.99	43.604
769.30	43.623
769.61	43.597
769.91	43.589
770.22	43.470
770.53	43.382
770.84	43.393
771.15	43.378
771.46	43.056
771.77	43.145
772.07	43.195
772.38	43.145
772.69	42.896
773.00	43.087
773.31	43.038
773.61	43.143
773.92	42.928
774.23	43.195
774.54	42.980
774.85	43.113
775.15	42.821
775.46	42.697
775.77	42.848
776.08	42.794
776.39	42.506
776.69	42.446
777.00	42.453
777.31	42.712
777.62	42.476
777.92	42.625
778.23	42.761
778.54	42.936
778.85	42.926
779.15	42.855
779.46	42.877
779.77	43.103
780.07	43.225
780.38	43.479
780.69	43.532
781.00	43.718
781.30	43.453
781.61	43.240
781.92	43.526
782.22	43.583
782.53	43.212
782.84	43.692
783.14	43.533
783.45	43.539
783.76	43.640
784.06	43.658
784.37	43.433
784.68	43.465
784.98	43.704
785.29	43.776
785.60	43.721
785.90	44.311
786.21	43.950
786.51	44.061
786.82	44.229
787.13	44.218
787.43	44.092
787.74	44.504
788.04	44.802
788.35	44.780
788.66	44.574
788.96	44.695
789.27	44.336
789.57	44.532
789.88	44.389
790.19	44.136
790.49	43.867
790.80	44.095
791.10	43.981
791.41	43.852
791.71	43.672
792.02	43.719
792.32	43.747
792.63	43.956
792.93	44.039
793.24	44.372
793.54	44.532
793.85	44.541
794.15	44.230
794.46	44.182
794.76	44.329
795.07	44.446
795.37	44.510
795.68	44.451
795.98	44.579
796.29	44.592
796.59	44.531
796.90	44.511
797.20	44.706
797.51	45.008
797.81	44.517
798.12	44.590
798.42	44.734
798.72	44.930
799.03	45.059
799.33	45.170
799.64	44.929
799.94	45.007
800.25	44.857
800.55	44.806
800.85	44.771
801.16	45.583
801.46	45.264
801.77	45.090
802.07	44.981
802.37	44.818
802.68	44.592
802.98	44.690
803.28	44.337
803.59	44.729
803.89	44.647
804.20	44.841
804.50	44.563
804.80	44.643
805.11	44.547
805.41	44.365
805.71	44.187
806.02	44.216
806.32	44.030
806.62	44.323
806.93	43.775
807.23	44.128
807.53	44.080
807.83	44.170
808.14	43.914
808.44	44.334
808.74	44.220
809.05	44.653
809.35	44.639
809.65	45.252
809.95	45.736
810.26	45.986
810.56	45.675
810.86	45.627
811.16	45.647
811.47	46.498
811.77	46.754
812.07	46.897
812.37	47.160
812.68	47.807
812.98	47.750
813.28	47.533
813.58	48.164
813.88	48.011
814.19	48.372
814.49	48.876
814.79	48.655
815.09	48.588
815.39	48.877
815.70	48.678
816.00	48.508
816.30	48.693
816.60	48.444
816.90	48.391
817.20	48.469
817.50	48.159
817.81	47.695
818.11	47.921
818.41	47.912
818.71	47.834
819.01	47.984
819.31	48.047
819.61	48.213
819.92	48.475
820.22	48.679
820.52	48.935
820.82	49.153
821.12	49.463
821.42	49.681
821.72	49.889
822.02	50.243
822.32	50.564
822.62	50.933
822.92	51.136
823.22	51.346
823.52	51.562
823.83	51.643
824.13	51.723
824.43	51.655
824.73	51.688
825.03	51.695
825.33	51.665
825.63	51.511
825.93	51.281
826.23	51.094
826.53	50.969
826.83	50.728
827.13	50.817
827.43	50.841
827.73	51.143
828.03	51.231
828.33	51.500
828.63	51.407
828.93	51.358
829.23	51.278
829.53	51.401
829.83	51.237
830.13	50.822
830.42	50.520
830.72	50.178
831.02	49.864
831.32	49.742
831.62	49.324
831.92	49.238
832.22	49.268
832.52	49.142
832.82	49.320
833.12	49.257
833.42	49.581
833.72	49.603
834.01	50.099
834.31	50.234
834.61	50.335
834.91	50.705
835.21	50.859
835.51	50.750
835.81	50.644
836.11	50.488
836.40	50.597
836.70	50.712
837.00	50.763
837.30	50.254
837.60	50.259
837.90	49.990
838.19	49.563
838.49	49.540
838.79	49.764
839.09	50.261
839.39	49.705
839.68	49.988
839.98	49.201
840.28	48.985
840.58	49.011
840.88	49.618
841.17	48.738
841.47	49.329
841.77	49.422
842.07	49.834
842.36	49.249
842.66	49.939
842.96	48.514
843.26	49.571
843.55	49.606
843.85	49.283
844.15	48.351
844.45	48.093
844.74	47.057
845.04	46.672
845.34	46.483
845.63	46.468
845.93	46.403
846.23	48.598
846.53	47.678
846.82	48.455
847.12	49.118
847.42	47.518
847.71	48.295
848.01	47.342
848.31	46.481
848.60	45.774
848.90	45.002
849.19	43.710
849.49	42.659
849.79	42.896
850.08	42.322
850.38	40.591
850.68	41.139
850.97	41.600
851.27	43.276
851.56	44.070
851.86	42.443
852.16	44.790
852.45	43.715
852.75	45.262
853.04	46.741
853.34	45.778
853.64	47.533
853.93	45.864
854.23	45.674
854.52	44.730
854.82	45.541
855.11	45.603
855.41	45.698
855.70	47.746
856.00	45.066
856.30	44.327
856.59	45.499
856.89	47.129
857.18	48.741
857.48	49.426
857.77	49.453
858.07	48.763
858.36	47.937
858.66	46.191
858.95	45.990
859.25	47.310
859.54	46.893
859.84	46.485
860.13	43.065
860.42	43.592
860.72	44.028
861.01	44.332
861.31	44.646
861.60	48.174
861.90	48.632
862.19	49.323
862.49	48.701
862.78	48.700
863.07	48.571
863.37	49.182
863.66	47.561
863.96	47.788
864.25	48.849
864.54	47.791
864.84	46.187
865.13	46.777
865.43	45.448
865.72	59.120
866.01	40.538
866.31	46.813
866.60	50.556
866.89	38.958
>>>>>End Spectral Data<<<<<
