OOIBase32 Version 2.0.0.6 Data File
++++++++++++++++++++++++++++++++++++
Date: 01-23-2012, 23:10:49
User: Valued Ocean Optics Customer
Spectrometer Serial Number: USB2E2917
Spectrometer Channel: Master
Integration Time (msec): 5
Spectra Averaged: 10
Boxcar Smoothing: 5
Correct for Electrical Dark: Enabled
Time Normalized: Disabled
Dual-beam Reference: Disabled
Reference Channel: Master
Temperature: Not acquired
Spectrometer Type: S2000
ADC Type: USB2000
Number of Pixels in File: 2048
Graph Title: 
>>>>>Begin Spectral Data<<<<<
180.30	0.000
180.67	0.000
181.03	84.802
181.40	718.630
181.77	1022.859
182.14	110.992
182.51	-579.934
182.88	78.885
183.25	56.472
183.62	141.410
183.99	346.502
184.36	-1.478
184.73	-0.532
185.10	116.863
185.46	-1.088
185.83	212.318
186.20	1330.636
186.57	140.008
186.94	123.867
187.31	54.157
187.68	126.317
188.05	15.766
188.42	72.949
188.78	146.610
189.15	512.449
189.52	-41.975
189.89	26.245
190.26	50.343
190.63	41.337
191.00	47.441
191.37	38.274
191.73	50.662
192.10	43.151
192.47	48.331
192.84	51.174
193.21	60.101
193.58	57.063
193.94	62.183
194.31	52.759
194.68	45.447
195.05	35.659
195.42	47.883
195.79	41.280
196.15	54.853
196.52	58.501
196.89	53.619
197.26	32.504
197.63	43.636
198.00	38.396
198.36	42.363
198.73	11.897
199.10	6.531
199.47	-1.355
199.84	-15.983
200.20	-26.814
200.57	-19.077
200.94	-38.241
201.31	-42.551
201.68	-66.141
202.04	-64.649
202.41	-72.180
202.78	-60.638
203.15	-55.485
203.51	-33.628
203.88	-28.351
204.25	-8.184
204.62	-13.559
204.98	9.515
205.35	18.427
205.72	21.395
206.09	31.540
206.46	43.785
206.82	32.128
207.19	22.041
207.56	-12.827
207.92	2.016
208.29	-33.366
208.66	-17.992
209.03	-21.561
209.39	-4.865
209.76	2.433
210.13	-23.019
210.50	-27.079
210.86	-22.572
211.23	-50.422
211.60	-19.966
211.96	-28.886
212.33	-8.996
212.70	-15.157
213.07	-15.524
213.43	-48.147
213.80	-43.396
214.17	-18.364
214.53	-3.348
214.90	-4.165
215.27	12.408
215.63	7.818
216.00	11.493
216.37	2.112
216.74	0.309
217.10	4.084
217.47	6.547
217.84	8.632
218.20	7.166
218.57	6.479
218.94	8.158
219.30	3.499
219.67	-4.006
220.04	-4.341
220.40	-2.794
220.77	-15.368
221.13	-7.485
221.50	-9.426
221.87	-5.576
222.23	-5.730
222.60	-8.527
222.97	-10.293
223.33	-8.640
223.70	-3.871
224.07	-5.569
224.43	-8.156
224.80	-1.004
225.16	-5.680
225.53	-3.195
225.90	-7.853
226.26	-5.109
226.63	-3.210
226.99	-1.861
227.36	-1.008
227.73	0.462
228.09	0.468
228.46	3.073
228.82	3.406
229.19	4.667
229.56	3.822
229.92	6.572
230.29	6.217
230.65	4.230
231.02	1.913
231.38	-1.219
231.75	-3.700
232.12	-4.200
232.48	-6.963
232.85	-8.086
233.21	-10.024
233.58	-10.716
233.94	-11.515
234.31	-12.119
234.68	-10.822
235.04	-9.226
235.41	-5.525
235.77	-3.378
236.14	-1.963
236.50	0.114
236.87	-0.092
237.23	0.353
237.60	0.218
237.96	0.625
238.33	-0.410
238.69	0.115
239.06	0.399
239.42	0.097
239.79	-1.027
240.15	-1.249
240.52	-0.983
240.88	-0.231
241.25	-0.156
241.61	0.676
241.98	0.201
242.34	0.630
242.71	0.636
243.07	0.614
243.44	0.255
243.80	0.552
244.17	0.681
244.53	0.407
244.90	0.310
245.26	0.507
245.63	-0.078
245.99	-0.152
246.36	-0.395
246.72	-0.313
247.09	-0.680
247.45	-0.378
247.81	-0.198
248.18	-0.427
248.54	-0.288
248.91	-0.699
249.27	-0.495
249.64	0.235
250.00	0.480
250.36	0.651
250.73	0.311
251.09	0.752
251.46	0.537
251.82	0.453
252.19	0.465
252.55	0.268
252.91	0.406
253.28	-0.012
253.64	-0.798
254.01	-0.837
254.37	-0.817
254.73	-0.470
255.10	-0.260
255.46	0.219
255.83	0.287
256.19	0.474
256.55	0.221
256.92	0.494
257.28	0.479
257.65	0.741
258.01	0.726
258.37	0.671
258.74	0.532
259.10	0.384
259.46	0.129
259.83	0.204
260.19	0.116
260.55	0.246
260.92	0.057
261.28	-0.019
261.64	-0.115
262.01	-0.051
262.37	0.010
262.73	0.151
263.10	0.301
263.46	0.526
263.82	0.189
264.19	0.120
264.55	-0.115
264.91	-0.146
265.28	-0.020
265.64	-0.081
266.00	-0.063
266.37	-0.135
266.73	-0.355
267.09	-0.379
267.46	-0.697
267.82	-0.798
268.18	-0.544
268.54	-0.226
268.91	-0.182
269.27	-0.192
269.63	-0.053
270.00	0.042
270.36	0.090
270.72	0.192
271.08	-0.015
271.45	0.155
271.81	0.168
272.17	0.075
272.53	-0.120
272.90	0.006
273.26	0.115
273.62	-0.018
273.98	-0.252
274.35	-0.334
274.71	-0.462
275.07	-0.199
275.43	-0.198
275.80	-0.071
276.16	-0.198
276.52	-0.186
276.88	-0.285
277.25	-0.616
277.61	-0.683
277.97	-0.908
278.33	-0.698
278.69	-0.632
279.06	-0.607
279.42	-0.528
279.78	-0.447
280.14	-0.226
280.50	-0.197
280.87	-0.026
281.23	-0.125
281.59	0.015
281.95	0.273
282.31	0.292
282.68	0.196
283.04	-0.022
283.40	-0.098
283.76	-0.105
284.12	-0.203
284.48	-0.037
284.85	-0.143
285.21	0.078
285.57	-0.036
285.93	-0.078
286.29	-0.235
286.65	-0.029
287.02	0.467
287.38	0.529
287.74	0.425
288.10	0.456
288.46	0.382
288.82	0.323
289.18	0.319
289.54	0.430
289.91	0.482
290.27	0.579
290.63	0.680
290.99	0.477
291.35	0.405
291.71	0.582
292.07	0.475
292.43	0.522
292.79	0.558
293.16	0.428
293.52	0.443
293.88	0.529
294.24	0.492
294.60	0.326
294.96	0.250
295.32	0.407
295.68	0.328
296.04	0.382
296.40	0.352
296.76	0.431
297.12	0.399
297.49	0.271
297.85	0.155
298.21	0.217
298.57	0.153
298.93	0.130
299.29	-0.066
299.65	0.044
300.01	0.046
300.37	0.085
300.73	0.175
301.09	0.221
301.45	0.292
301.81	0.367
302.17	0.459
302.53	0.447
302.89	0.477
303.25	0.606
303.61	0.530
303.97	0.490
304.33	0.435
304.69	0.409
305.05	0.368
305.41	0.377
305.77	0.484
306.13	0.451
306.49	0.518
306.85	0.565
307.21	0.502
307.57	0.486
307.93	0.492
308.29	0.558
308.65	0.498
309.01	0.587
309.37	0.528
309.73	0.413
310.09	0.525
310.45	0.582
310.81	0.479
311.17	0.450
311.53	0.410
311.89	0.464
312.25	0.411
312.61	0.386
312.96	0.373
313.32	0.465
313.68	0.439
314.04	0.326
314.40	0.323
314.76	0.354
315.12	0.400
315.48	0.477
315.84	0.418
316.20	0.481
316.56	0.410
316.92	0.376
317.27	0.254
317.63	0.297
317.99	0.157
318.35	0.092
318.71	-0.008
319.07	-0.022
319.43	0.010
319.79	0.077
320.15	-0.057
320.50	0.009
320.86	-0.026
321.22	-0.026
321.58	-0.048
321.94	-0.049
322.30	-0.115
322.66	-0.087
323.01	-0.256
323.37	-0.380
323.73	-0.392
324.09	-0.364
324.45	-0.312
324.81	-0.305
325.17	-0.288
325.52	-0.309
325.88	-0.256
326.24	-0.108
326.60	-0.012
326.96	0.163
327.31	0.202
327.67	0.024
328.03	0.014
328.39	-0.078
328.75	0.014
329.11	0.141
329.46	0.243
329.82	0.347
330.18	0.209
330.54	0.170
330.90	0.118
331.25	0.137
331.61	0.331
331.97	0.373
332.33	0.430
332.68	0.460
333.04	0.407
333.40	0.310
333.76	0.173
334.11	0.166
334.47	0.194
334.83	0.253
335.19	0.201
335.54	0.133
335.90	0.031
336.26	-0.002
336.62	-0.085
336.97	-0.131
337.33	-0.116
337.69	-0.039
338.05	-0.011
338.40	-0.075
338.76	-0.123
339.12	-0.047
339.48	-0.037
339.83	0.037
340.19	0.050
340.55	0.114
340.90	0.122
341.26	0.107
341.62	0.028
341.97	0.031
342.33	0.105
342.69	0.205
343.04	0.168
343.40	0.142
343.76	0.059
344.12	0.038
344.47	-0.001
344.83	0.081
345.19	0.081
345.54	0.146
345.90	0.123
346.26	0.126
346.61	0.099
346.97	0.163
347.32	0.201
347.68	0.241
348.04	0.233
348.39	0.160
348.75	0.092
349.11	0.144
349.46	0.110
349.82	0.175
350.18	0.116
350.53	0.090
350.89	0.013
351.24	-0.045
351.60	-0.001
351.96	0.045
352.31	0.102
352.67	0.163
353.02	0.127
353.38	0.167
353.74	0.145
354.09	0.139
354.45	0.118
354.80	0.173
355.16	0.275
355.52	0.293
355.87	0.236
356.23	0.295
356.58	0.288
356.94	0.310
357.29	0.327
357.65	0.319
358.00	0.358
358.36	0.410
358.72	0.423
359.07	0.437
359.43	0.467
359.78	0.546
360.14	0.520
360.49	0.494
360.85	0.527
361.20	0.512
361.56	0.502
361.91	0.501
362.27	0.496
362.62	0.497
362.98	0.486
363.33	0.489
363.69	0.459
364.04	0.465
364.40	0.497
364.75	0.487
365.11	0.495
365.46	0.507
365.82	0.553
366.17	0.538
366.53	0.596
366.88	0.605
367.24	0.613
367.59	0.581
367.95	0.622
368.30	0.615
368.66	0.651
369.01	0.646
369.37	0.668
369.72	0.703
370.08	0.764
370.43	0.734
370.78	0.750
371.14	0.692
371.49	0.739
371.85	0.740
372.20	0.742
372.56	0.738
372.91	0.763
373.26	0.794
373.62	0.724
373.97	0.734
374.33	0.718
374.68	0.712
375.03	0.802
375.39	0.800
375.74	0.752
376.10	0.767
376.45	0.779
376.80	0.785
377.16	0.759
377.51	0.788
377.87	0.774
378.22	0.760
378.57	0.736
378.93	0.735
379.28	0.781
379.63	0.816
379.99	0.836
380.34	0.822
380.70	0.821
381.05	0.858
381.40	0.869
381.76	0.882
382.11	0.924
382.46	0.991
382.82	1.004
383.17	0.965
383.52	0.968
383.88	0.969
384.23	0.969
384.58	0.958
384.94	0.958
385.29	0.991
385.64	0.979
385.99	0.977
386.35	0.950
386.70	0.934
387.05	0.916
387.41	0.923
387.76	0.906
388.11	0.919
388.47	0.914
388.82	0.934
389.17	0.900
389.52	0.908
389.88	0.908
390.23	0.895
390.58	0.914
390.93	0.965
391.29	0.974
391.64	1.013
391.99	1.035
392.34	1.071
392.70	1.039
393.05	1.042
393.40	1.019
393.75	1.011
394.11	1.011
394.46	0.960
394.81	0.920
395.16	0.873
395.52	0.816
395.87	0.797
396.22	0.798
396.57	0.769
396.92	0.735
397.28	0.712
397.63	0.660
397.98	0.625
398.33	0.613
398.68	0.632
399.04	0.641
399.39	0.664
399.74	0.645
400.09	0.601
400.44	0.630
400.80	0.643
401.15	0.652
401.50	0.687
401.85	0.703
402.20	0.713
402.55	0.704
402.90	0.696
403.26	0.690
403.61	0.675
403.96	0.673
404.31	0.673
404.66	0.680
405.01	0.659
405.36	0.641
405.72	0.627
406.07	0.603
406.42	0.575
406.77	0.553
407.12	0.542
407.47	0.544
407.82	0.535
408.17	0.525
408.53	0.509
408.88	0.499
409.23	0.502
409.58	0.497
409.93	0.543
410.28	0.558
410.63	0.590
410.98	0.570
411.33	0.567
411.68	0.605
412.03	0.631
412.38	0.621
412.73	0.653
413.09	0.672
413.44	0.694
413.79	0.686
414.14	0.714
414.49	0.736
414.84	0.773
415.19	0.794
415.54	0.807
415.89	0.806
416.24	0.852
416.59	0.862
416.94	0.892
417.29	0.923
417.64	0.929
417.99	0.934
418.34	0.943
418.69	0.955
419.04	0.963
419.39	0.975
419.74	0.980
420.09	0.986
420.44	0.994
420.79	0.984
421.14	0.968
421.49	0.991
421.84	0.986
422.19	0.984
422.54	0.979
422.89	0.970
423.24	0.948
423.59	0.930
423.94	0.913
424.29	0.909
424.64	0.910
424.99	0.916
425.34	0.876
425.68	0.865
426.03	0.829
426.38	0.827
426.73	0.824
427.08	0.819
427.43	0.840
427.78	0.828
428.13	0.806
428.48	0.788
428.83	0.783
429.18	0.791
429.53	0.805
429.87	0.815
430.22	0.801
430.57	0.822
430.92	0.824
431.27	0.829
431.62	0.815
431.97	0.817
432.32	0.820
432.67	0.809
433.01	0.789
433.36	0.763
433.71	0.764
434.06	0.739
434.41	0.717
434.76	0.722
435.11	0.711
435.45	0.723
435.80	0.729
436.15	0.735
436.50	0.761
436.85	0.780
437.20	0.792
437.54	0.786
437.89	0.803
438.24	0.810
438.59	0.816
438.94	0.811
439.29	0.800
439.63	0.805
439.98	0.806
440.33	0.789
440.68	0.802
441.03	0.809
441.37	0.847
441.72	0.865
442.07	0.875
442.42	0.881
442.76	0.895
443.11	0.911
443.46	0.922
443.81	0.931
444.16	0.943
444.50	0.934
444.85	0.935
445.20	0.907
445.55	0.900
445.89	0.891
446.24	0.876
446.59	0.851
446.94	0.833
447.28	0.808
447.63	0.787
447.98	0.768
448.32	0.754
448.67	0.725
449.02	0.718
449.37	0.693
449.71	0.694
450.06	0.670
450.41	0.677
450.75	0.679
451.10	0.692
451.45	0.668
451.79	0.650
452.14	0.645
452.49	0.653
452.84	0.641
453.18	0.633
453.53	0.613
453.88	0.630
454.22	0.642
454.57	0.660
454.92	0.656
455.26	0.691
455.61	0.722
455.95	0.764
456.30	0.774
456.65	0.810
456.99	0.829
457.34	0.846
457.69	0.847
458.03	0.852
458.38	0.854
458.73	0.855
459.07	0.842
459.42	0.814
459.76	0.768
460.11	0.742
460.46	0.695
460.80	0.673
461.15	0.651
461.49	0.641
461.84	0.640
462.19	0.627
462.53	0.619
462.88	0.621
463.22	0.626
463.57	0.637
463.91	0.645
464.26	0.666
464.61	0.668
464.95	0.655
465.30	0.638
465.64	0.625
465.99	0.629
466.33	0.631
466.68	0.618
467.02	0.629
467.37	0.602
467.71	0.602
468.06	0.593
468.41	0.575
468.75	0.570
469.10	0.577
469.44	0.553
469.79	0.533
470.13	0.486
470.48	0.475
470.82	0.462
471.17	0.481
471.51	0.458
471.86	0.440
472.20	0.440
472.55	0.433
472.89	0.420
473.23	0.411
473.58	0.394
473.92	0.409
474.27	0.396
474.61	0.379
474.96	0.383
475.30	0.394
475.65	0.386
475.99	0.388
476.34	0.405
476.68	0.402
477.02	0.407
477.37	0.413
477.71	0.442
478.06	0.487
478.40	0.551
478.75	0.609
479.09	0.688
479.43	0.779
479.78	0.850
480.12	0.919
480.47	0.994
480.81	1.060
481.15	1.123
481.50	1.177
481.84	1.230
482.19	1.274
482.53	1.317
482.87	1.342
483.22	1.343
483.56	1.328
483.90	1.300
484.25	1.259
484.59	1.225
484.94	1.184
485.28	1.145
485.62	1.096
485.97	1.051
486.31	1.011
486.65	0.974
487.00	0.954
487.34	0.952
487.68	0.944
488.03	0.944
488.37	0.942
488.71	0.935
489.06	0.922
489.40	0.921
489.74	0.913
490.09	0.895
490.43	0.872
490.77	0.841
491.11	0.804
491.46	0.778
491.80	0.753
492.14	0.714
492.49	0.702
492.83	0.666
493.17	0.619
493.51	0.586
493.86	0.551
494.20	0.545
494.54	0.543
494.88	0.547
495.23	0.564
495.57	0.563
495.91	0.585
496.25	0.596
496.60	0.617
496.94	0.622
497.28	0.634
497.62	0.650
497.97	0.648
498.31	0.664
498.65	0.681
498.99	0.672
499.33	0.699
499.68	0.716
500.02	0.728
500.36	0.745
500.70	0.773
501.04	0.776
501.39	0.779
501.73	0.804
502.07	0.839
502.41	0.868
502.75	0.921
503.09	0.952
503.44	0.989
503.78	1.022
504.12	1.060
504.46	1.123
504.80	1.181
505.14	1.242
505.49	1.309
505.83	1.366
506.17	1.427
506.51	1.481
506.85	1.538
507.19	1.587
507.53	1.649
507.87	1.714
508.22	1.755
508.56	1.821
508.90	1.879
509.24	1.928
509.58	1.979
509.92	2.035
510.26	2.099
510.60	2.174
510.94	2.247
511.28	2.298
511.63	2.377
511.97	2.462
512.31	2.536
512.65	2.633
512.99	2.736
513.33	2.857
513.67	2.986
514.01	3.119
514.35	3.254
514.69	3.393
515.03	3.541
515.37	3.673
515.71	3.812
516.05	3.941
516.39	4.051
516.73	4.166
517.07	4.262
517.41	4.340
517.75	4.414
518.09	4.486
518.43	4.571
518.77	4.647
519.11	4.738
519.45	4.815
519.79	4.921
520.13	5.036
520.47	5.175
520.81	5.304
521.15	5.478
521.49	5.632
521.83	5.781
522.17	5.923
522.51	6.102
522.85	6.274
523.19	6.485
523.53	6.692
523.87	6.924
524.21	7.116
524.55	7.309
524.89	7.477
525.23	7.650
525.57	7.798
525.91	7.942
526.25	8.062
526.58	8.179
526.92	8.272
527.26	8.346
527.60	8.393
527.94	8.446
528.28	8.486
528.62	8.529
528.96	8.558
529.30	8.590
529.64	8.623
529.97	8.652
530.31	8.671
530.65	8.697
530.99	8.736
531.33	8.790
531.67	8.827
532.01	8.882
532.35	8.904
532.68	8.942
533.02	8.972
533.36	8.993
533.70	9.014
534.04	9.034
534.38	9.063
534.71	9.090
535.05	9.100
535.39	9.130
535.73	9.148
536.07	9.191
536.41	9.222
536.74	9.269
537.08	9.312
537.42	9.386
537.76	9.448
538.10	9.510
538.43	9.575
538.77	9.633
539.11	9.680
539.45	9.727
539.79	9.769
540.12	9.809
540.46	9.832
540.80	9.845
541.14	9.827
541.47	9.821
541.81	9.810
542.15	9.782
542.49	9.760
542.82	9.731
543.16	9.705
543.50	9.683
543.84	9.637
544.17	9.609
544.51	9.606
544.85	9.602
545.18	9.609
545.52	9.600
545.86	9.598
546.20	9.601
546.53	9.614
546.87	9.593
547.21	9.582
547.54	9.586
547.88	9.585
548.22	9.547
548.55	9.529
548.89	9.517
549.23	9.516
549.56	9.508
549.90	9.505
550.24	9.487
550.57	9.495
550.91	9.496
551.25	9.508
551.58	9.496
551.92	9.486
552.26	9.477
552.59	9.457
552.93	9.443
553.27	9.421
553.60	9.397
553.94	9.351
554.27	9.320
554.61	9.276
554.95	9.231
555.28	9.215
555.62	9.210
555.95	9.209
556.29	9.168
556.63	9.117
556.96	9.098
557.30	9.055
557.63	9.034
557.97	9.011
558.31	8.949
558.64	8.902
558.98	8.839
559.31	8.805
559.65	8.739
559.98	8.662
560.32	8.595
560.65	8.513
560.99	8.456
561.33	8.389
561.66	8.306
562.00	8.258
562.33	8.186
562.67	8.140
563.00	8.051
563.34	7.985
563.67	7.941
564.01	7.870
564.34	7.805
564.68	7.735
565.01	7.681
565.35	7.607
565.68	7.548
566.02	7.475
566.35	7.377
566.69	7.291
567.02	7.231
567.36	7.141
567.69	7.076
568.03	7.008
568.36	6.933
568.69	6.844
569.03	6.780
569.36	6.685
569.70	6.610
570.03	6.558
570.37	6.509
570.70	6.421
571.04	6.368
571.37	6.285
571.70	6.219
572.04	6.144
572.37	6.074
572.71	5.999
573.04	5.929
573.37	5.863
573.71	5.806
574.04	5.735
574.38	5.658
574.71	5.586
575.04	5.531
575.38	5.457
575.71	5.382
576.05	5.327
576.38	5.280
576.71	5.198
577.05	5.129
577.38	5.038
577.71	4.960
578.05	4.886
578.38	4.799
578.71	4.724
579.05	4.674
579.38	4.619
579.71	4.563
580.05	4.480
580.38	4.451
580.71	4.381
581.05	4.342
581.38	4.281
581.71	4.252
582.05	4.226
582.38	4.204
582.71	4.143
583.04	4.114
583.38	4.057
583.71	4.034
584.04	4.015
584.38	4.018
584.71	3.988
585.04	3.985
585.37	3.951
585.71	3.938
586.04	3.907
586.37	3.910
586.70	3.885
587.04	3.896
587.37	3.903
587.70	3.873
588.03	3.852
588.37	3.847
588.70	3.816
589.03	3.810
589.36	3.778
589.69	3.754
590.03	3.709
590.36	3.698
590.69	3.617
591.02	3.559
591.35	3.538
591.69	3.518
592.02	3.490
592.35	3.479
592.68	3.466
593.01	3.452
593.35	3.447
593.68	3.454
594.01	3.446
594.34	3.450
594.67	3.436
595.00	3.430
595.34	3.384
595.67	3.347
596.00	3.317
596.33	3.242
596.66	3.198
596.99	3.141
597.32	3.067
597.65	3.021
597.99	2.961
598.32	2.906
598.65	2.833
598.98	2.821
599.31	2.784
599.64	2.785
599.97	2.795
600.30	2.809
600.63	2.828
600.96	2.851
601.30	2.823
601.63	2.856
601.96	2.858
602.29	2.860
602.62	2.832
602.95	2.823
603.28	2.777
603.61	2.741
603.94	2.679
604.27	2.648
604.60	2.576
604.93	2.567
605.26	2.526
605.59	2.478
605.92	2.429
606.25	2.409
606.58	2.381
606.91	2.348
607.24	2.329
607.57	2.306
607.90	2.249
608.23	2.215
608.56	2.143
608.89	2.086
609.22	2.036
609.55	1.988
609.88	1.904
610.21	1.835
610.54	1.764
610.87	1.703
611.20	1.641
611.53	1.599
611.86	1.533
612.19	1.475
612.52	1.397
612.85	1.375
613.18	1.352
613.51	1.295
613.84	1.222
614.17	1.195
614.49	1.150
614.82	1.111
615.15	1.060
615.48	1.062
615.81	1.018
616.14	1.001
616.47	0.939
616.80	0.865
617.13	0.853
617.46	0.841
617.78	0.777
618.11	0.759
618.44	0.733
618.77	0.702
619.10	0.665
619.43	0.652
619.76	0.602
620.09	0.612
620.41	0.611
620.74	0.612
621.07	0.642
621.40	0.681
621.73	0.663
622.06	0.665
622.38	0.682
622.71	0.696
623.04	0.719
623.37	0.785
623.70	0.777
624.02	0.814
624.35	0.861
624.68	0.852
625.01	0.873
625.34	0.914
625.66	0.918
625.99	0.951
626.32	0.939
626.65	0.948
626.98	0.924
627.30	0.926
627.63	0.883
627.96	0.808
628.29	0.767
628.61	0.721
628.94	0.661
629.27	0.642
629.60	0.545
629.92	0.538
630.25	0.477
630.58	0.435
630.91	0.418
631.23	0.393
631.56	0.396
631.89	0.380
632.21	0.325
632.54	0.311
632.87	0.268
633.19	0.257
633.52	0.204
633.85	0.185
634.18	0.147
634.50	0.079
634.83	0.046
635.16	-0.013
635.48	-0.089
635.81	-0.108
636.14	-0.188
636.46	-0.223
636.79	-0.276
637.11	-0.319
637.44	-0.407
637.77	-0.460
638.09	-0.541
638.42	-0.599
638.75	-0.653
639.07	-0.665
639.40	-0.706
639.73	-0.761
640.05	-0.821
640.38	-0.850
640.70	-0.927
641.03	-0.922
641.36	-0.962
641.68	-0.967
642.01	-1.002
642.33	-1.025
642.66	-1.049
642.98	-1.078
643.31	-1.072
643.64	-1.055
643.96	-1.046
644.29	-0.981
644.61	-0.987
644.94	-0.989
645.26	-0.940
645.59	-0.878
645.91	-0.839
646.24	-0.811
646.56	-0.816
646.89	-0.791
647.22	-0.816
647.54	-0.811
647.87	-0.827
648.19	-0.826
648.52	-0.798
648.84	-0.813
649.17	-0.873
649.49	-0.900
649.82	-0.913
650.14	-0.894
650.47	-0.895
650.79	-0.863
651.11	-0.896
651.44	-0.878
651.76	-0.894
652.09	-0.849
652.41	-0.824
652.74	-0.768
653.06	-0.747
653.39	-0.704
653.71	-0.674
654.04	-0.674
654.36	-0.659
654.68	-0.606
655.01	-0.615
655.33	-0.555
655.66	-0.580
655.98	-0.561
656.30	-0.566
656.63	-0.547
656.95	-0.543
657.28	-0.522
657.60	-0.509
657.92	-0.517
658.25	-0.557
658.57	-0.519
658.90	-0.531
659.22	-0.541
659.54	-0.577
659.87	-0.598
660.19	-0.611
660.51	-0.651
660.84	-0.695
661.16	-0.714
661.48	-0.710
661.81	-0.646
662.13	-0.685
662.45	-0.681
662.78	-0.622
663.10	-0.537
663.42	-0.478
663.75	-0.386
664.07	-0.311
664.39	-0.280
664.72	-0.211
665.04	-0.104
665.36	-0.052
665.69	0.024
666.01	0.146
666.33	0.244
666.65	0.265
666.98	0.437
667.30	0.531
667.62	0.622
667.94	0.744
668.27	0.916
668.59	1.000
668.91	1.167
669.23	1.288
669.56	1.432
669.88	1.578
670.20	1.725
670.52	1.820
670.85	1.949
671.17	2.097
671.49	2.268
671.81	2.346
672.13	2.485
672.46	2.608
672.78	2.769
673.10	2.889
673.42	3.024
673.74	3.241
674.07	3.391
674.39	3.509
674.71	3.678
675.03	3.855
675.35	4.051
675.67	4.194
676.00	4.336
676.32	4.486
676.64	4.576
676.96	4.719
677.28	4.815
677.60	4.977
677.92	5.161
678.25	5.281
678.57	5.400
678.89	5.500
679.21	5.637
679.53	5.757
679.85	5.910
680.17	6.114
680.49	6.253
680.81	6.427
681.13	6.520
681.46	6.629
681.78	6.849
682.10	7.019
682.42	7.178
682.74	7.362
683.06	7.536
683.38	7.705
683.70	7.849
684.02	7.999
684.34	8.140
684.66	8.278
684.98	8.411
685.30	8.445
685.62	8.511
685.94	8.619
686.26	8.621
686.58	8.623
686.90	8.623
687.22	8.600
687.54	8.596
687.86	8.532
688.18	8.529
688.50	8.506
688.82	8.450
689.14	8.450
689.46	8.526
689.78	8.565
690.10	8.665
690.42	8.672
690.74	8.820
691.06	8.923
691.38	9.107
691.70	9.233
692.02	9.407
692.34	9.605
692.66	9.739
692.98	9.774
693.30	10.015
693.62	10.169
693.94	10.359
694.26	10.441
694.57	10.605
694.89	10.690
695.21	10.801
695.53	10.958
695.85	11.098
696.17	11.254
696.49	11.452
696.81	11.637
697.13	11.801
697.44	12.025
697.76	12.281
698.08	12.539
698.40	12.867
698.72	13.221
699.04	13.537
699.36	13.944
699.67	14.411
699.99	14.866
700.31	15.333
700.63	15.873
700.95	16.417
701.27	16.868
701.58	17.339
701.90	17.774
702.22	18.229
702.54	18.598
702.86	19.001
703.17	19.360
703.49	19.687
703.81	20.026
704.13	20.316
704.45	20.595
704.76	21.049
705.08	21.356
705.40	21.586
705.72	21.919
706.03	22.368
706.35	22.667
706.67	22.974
706.99	23.336
707.30	23.636
707.62	23.981
707.94	24.337
708.26	24.626
708.57	24.928
708.89	25.394
709.21	25.736
709.53	26.030
709.84	26.491
710.16	26.877
710.48	27.311
710.79	27.665
711.11	28.070
711.43	28.407
711.74	28.794
712.06	29.222
712.38	29.672
712.69	30.028
713.01	30.444
713.33	30.805
713.64	31.317
713.96	31.703
714.28	32.169
714.59	32.660
714.91	33.129
715.23	33.617
715.54	34.084
715.86	34.440
716.17	34.916
716.49	35.420
716.81	35.848
717.12	36.180
717.44	36.647
717.76	37.165
718.07	37.563
718.39	38.038
718.70	38.355
719.02	38.770
719.33	39.192
719.65	39.585
719.97	39.810
720.28	40.250
720.60	40.628
720.91	40.963
721.23	41.317
721.54	41.616
721.86	41.966
722.17	42.449
722.49	42.855
722.81	43.097
723.12	43.481
723.44	43.871
723.75	44.185
724.07	44.475
724.38	44.733
724.70	44.889
725.01	45.062
725.33	45.267
725.64	45.406
725.96	45.551
726.27	45.657
726.59	45.851
726.90	46.062
727.22	46.226
727.53	46.459
727.84	46.601
728.16	46.837
728.47	47.132
728.79	47.388
729.10	47.453
729.42	47.587
729.73	47.937
730.05	48.082
730.36	48.240
730.67	48.365
730.99	48.474
731.30	48.682
731.62	48.809
731.93	48.926
732.24	49.115
732.56	49.317
732.87	49.506
733.19	49.743
733.50	49.919
733.81	50.019
734.13	50.188
734.44	50.368
734.76	50.528
735.07	50.765
735.38	50.970
735.70	51.166
736.01	51.434
736.32	51.633
736.64	51.796
736.95	52.126
737.26	52.410
737.58	52.514
737.89	52.556
738.20	52.660
738.52	52.781
738.83	52.919
739.14	52.996
739.45	53.185
739.77	53.329
740.08	53.350
740.39	53.316
740.71	53.382
741.02	53.508
741.33	53.727
741.64	53.933
741.96	54.045
742.27	54.099
742.58	54.152
742.90	54.152
743.21	54.232
743.52	54.333
743.83	54.356
744.14	54.421
744.46	54.646
744.77	54.780
745.08	54.664
745.39	54.612
745.71	54.506
746.02	54.392
746.33	54.505
746.64	54.349
746.95	54.382
747.27	54.355
747.58	54.348
747.89	54.089
748.20	54.091
748.51	54.208
748.82	54.243
749.14	54.222
749.45	54.441
749.76	54.379
750.07	54.578
750.38	54.321
750.69	54.259
751.01	54.176
751.32	54.171
751.63	54.126
751.94	54.038
752.25	53.984
752.56	53.913
752.87	53.596
753.18	53.363
753.49	53.137
753.81	53.226
754.12	53.161
754.43	53.331
754.74	53.313
755.05	53.271
755.36	53.389
755.67	53.270
755.98	53.497
756.29	53.553
756.60	53.740
756.91	53.831
757.22	53.883
757.53	54.104
757.84	54.074
758.15	54.185
758.46	54.051
758.77	53.960
759.09	53.972
759.40	53.818
759.71	53.801
760.02	53.643
760.33	53.502
760.64	53.356
760.95	53.154
761.26	52.944
761.57	52.840
761.88	52.820
762.18	52.648
762.49	52.556
762.80	52.522
763.11	52.450
763.42	52.404
763.73	52.316
764.04	52.314
764.35	52.366
764.66	52.238
764.97	51.968
765.28	51.775
765.59	51.662
765.90	51.533
766.21	51.240
766.52	50.892
766.83	50.756
767.14	50.707
767.44	50.437
767.75	49.878
768.06	49.903
768.37	49.888
768.68	50.039
768.99	49.938
769.30	49.946
769.61	49.879
769.91	49.998
770.22	49.578
770.53	49.267
770.84	49.206
771.15	49.491
771.46	49.108
771.77	49.089
772.07	48.746
772.38	48.673
772.69	48.497
773.00	48.746
773.31	48.831
773.61	48.958
773.92	49.194
774.23	49.491
774.54	49.285
774.85	49.503
775.15	49.486
775.46	49.379
775.77	49.469
776.08	49.452
776.39	48.939
776.69	48.882
777.00	48.837
777.31	48.660
777.62	48.290
777.92	48.282
778.23	48.232
778.54	48.253
778.85	48.416
779.15	48.230
779.46	48.303
779.77	48.705
780.07	48.594
780.38	48.968
780.69	49.052
781.00	49.250
781.30	49.196
781.61	48.932
781.92	49.016
782.22	49.031
782.53	48.927
782.84	48.775
783.14	48.814
783.45	48.894
783.76	48.728
784.06	49.071
784.37	48.905
784.68	49.064
784.98	49.161
785.29	49.179
785.60	49.235
785.90	49.396
786.21	49.392
786.51	49.192
786.82	49.317
787.13	49.306
787.43	48.899
787.74	49.138
788.04	49.217
788.35	49.396
788.66	49.415
788.96	49.356
789.27	49.223
789.57	49.144
789.88	49.300
790.19	49.025
790.49	48.671
790.80	48.678
791.10	48.594
791.41	48.384
791.71	48.510
792.02	48.384
792.32	48.218
792.63	48.223
792.93	48.245
793.24	47.832
793.54	47.816
793.85	48.213
794.15	48.268
794.46	48.282
794.76	48.269
795.07	48.164
795.37	48.197
795.68	48.412
795.98	48.982
796.29	49.122
796.59	49.275
796.90	49.679
797.20	49.610
797.51	49.593
797.81	49.271
798.12	49.461
798.42	49.495
798.72	49.406
799.03	49.188
799.33	48.598
799.64	48.585
799.94	49.019
800.25	48.562
800.55	48.733
800.85	48.785
801.16	49.344
801.46	48.885
801.77	48.842
802.07	49.112
802.37	49.595
802.68	49.556
802.98	49.712
803.28	49.561
803.59	49.553
803.89	49.095
804.20	49.103
804.50	48.637
804.80	48.958
805.11	49.034
805.41	48.670
805.71	48.433
806.02	48.699
806.32	48.550
806.62	48.549
806.93	48.870
807.23	49.292
807.53	49.328
807.83	49.576
808.14	50.191
808.44	50.516
808.74	50.918
809.05	50.507
809.35	50.380
809.65	50.936
809.95	50.899
810.26	50.992
810.56	50.790
810.86	51.278
811.16	51.612
811.47	51.523
811.77	51.361
812.07	51.401
812.37	51.758
812.68	51.923
812.98	51.612
813.28	51.848
813.58	51.962
813.88	51.821
814.19	52.194
814.49	52.095
814.79	52.135
815.09	52.592
815.39	52.899
815.70	53.304
816.00	53.522
816.30	53.389
816.60	53.326
816.90	52.931
817.20	53.462
817.50	52.813
817.81	52.196
818.11	51.923
818.41	51.797
818.71	51.638
819.01	51.649
819.31	51.890
819.61	52.122
819.92	52.428
820.22	52.720
820.52	52.846
820.82	53.017
821.12	53.450
821.42	53.686
821.72	53.914
822.02	54.223
822.32	54.540
822.62	54.751
822.92	54.989
823.22	55.090
823.52	55.229
823.83	55.247
824.13	55.389
824.43	55.130
824.73	55.153
825.03	55.012
825.33	55.050
825.63	54.954
825.93	54.775
826.23	54.603
826.53	54.641
826.83	54.686
827.13	54.928
827.43	55.024
827.73	55.479
828.03	55.672
828.33	55.979
828.63	55.810
828.93	55.768
829.23	55.675
829.53	55.614
829.83	55.063
830.13	54.783
830.42	54.360
830.72	54.003
831.02	53.501
831.32	53.280
831.62	52.995
831.92	53.141
832.22	53.234
832.52	53.259
832.82	53.279
833.12	53.322
833.42	53.172
833.72	53.370
834.01	53.563
834.31	53.669
834.61	53.829
834.91	54.218
835.21	54.126
835.51	54.087
835.81	53.860
836.11	53.959
836.40	54.134
836.70	54.394
837.00	54.689
837.30	54.406
837.60	54.759
837.90	54.596
838.19	54.089
838.49	53.865
838.79	53.664
839.09	54.379
839.39	54.083
839.68	54.287
839.98	53.517
840.28	52.549
840.58	52.673
840.88	52.785
841.17	52.048
841.47	52.635
841.77	52.300
842.07	51.824
842.36	51.089
842.66	51.183
842.96	49.828
843.26	49.819
843.55	49.859
843.85	49.559
844.15	49.126
844.45	49.586
844.74	49.723
845.04	49.836
845.34	50.044
845.63	50.484
845.93	50.799
846.23	52.188
846.53	52.225
846.82	52.007
847.12	52.064
847.42	51.673
847.71	51.086
848.01	49.816
848.31	49.607
848.60	50.188
848.90	49.230
849.19	47.987
849.49	47.261
849.79	48.668
850.08	48.654
850.38	48.163
850.68	46.636
850.97	48.442
851.27	47.994
851.56	49.607
851.86	48.337
852.16	49.751
852.45	50.173
852.75	50.920
853.04	50.689
853.34	51.006
853.64	52.103
853.93	52.188
854.23	50.327
854.52	51.777
854.82	50.724
855.11	50.291
855.41	50.567
855.70	51.406
856.00	50.612
856.30	49.979
856.59	48.807
856.89	48.540
857.18	49.894
857.48	50.102
857.77	47.188
858.07	47.975
858.36	48.416
858.66	46.676
858.95	45.679
859.25	45.783
859.54	46.364
859.84	46.804
860.13	44.431
860.42	44.971
860.72	44.558
861.01	47.355
861.31	47.407
861.60	48.889
861.90	50.770
862.19	51.424
862.49	51.256
862.78	51.245
863.07	51.074
863.37	52.174
863.66	50.368
863.96	53.402
864.25	51.732
864.54	51.205
864.84	52.128
865.13	51.380
865.43	51.411
865.72	45.153
866.01	53.360
866.31	71.271
866.60	49.177
866.89	53.640
>>>>>End Spectral Data<<<<<
