OOIBase32 Version 2.0.0.6 Data File
++++++++++++++++++++++++++++++++++++
Date: 01-23-2012, 23:15:23
User: Valued Ocean Optics Customer
Spectrometer Serial Number: USB2E2917
Spectrometer Channel: Master
Integration Time (msec): 5
Spectra Averaged: 10
Boxcar Smoothing: 5
Correct for Electrical Dark: Enabled
Time Normalized: Disabled
Dual-beam Reference: Disabled
Reference Channel: Master
Temperature: Not acquired
Spectrometer Type: S2000
ADC Type: USB2000
Number of Pixels in File: 2048
Graph Title: 
>>>>>Begin Spectral Data<<<<<
180.30	0.000
180.67	0.000
181.03	0.805
181.40	487.523
181.77	3063.532
182.14	72.642
182.51	-55.629
182.88	143.647
183.25	-25.516
183.62	87.951
183.99	100.870
184.36	-85.794
184.73	-129.660
185.10	58.031
185.46	-266.119
185.83	17.365
186.20	993.347
186.57	159.224
186.94	92.578
187.31	10.436
187.68	-89.577
188.05	3.678
188.42	17.089
188.78	91.354
189.15	340.922
189.52	-74.166
189.89	-18.184
190.26	-5.460
190.63	13.137
191.00	27.635
191.37	27.473
191.73	34.975
192.10	39.623
192.47	41.547
192.84	35.378
193.21	38.306
193.58	30.036
193.94	18.036
194.31	18.202
194.68	23.729
195.05	15.757
195.42	17.045
195.79	-9.470
196.15	-23.309
196.52	-31.994
196.89	-23.478
197.26	-23.931
197.63	3.595
198.00	26.728
198.36	29.642
198.73	18.973
199.10	19.221
199.47	12.086
199.84	24.572
200.20	12.592
200.57	5.557
200.94	14.522
201.31	18.154
201.68	-0.143
202.04	-7.638
202.41	-14.985
202.78	-33.815
203.15	-49.195
203.51	-27.692
203.88	-19.184
204.25	-14.235
204.62	-28.783
204.98	-43.252
205.35	-34.581
205.72	-26.271
206.09	-38.683
206.46	-80.467
206.82	-54.019
207.19	-36.967
207.56	-128.124
207.92	-125.362
208.29	-130.404
208.66	-64.147
209.03	-53.752
209.39	-37.080
209.76	-33.815
210.13	-62.512
210.50	-42.777
210.86	-33.888
211.23	-43.415
211.60	-15.762
211.96	-7.298
212.33	0.985
212.70	-10.063
213.07	-8.655
213.43	-43.415
213.80	-52.046
214.17	-18.974
214.53	-0.455
214.90	3.884
215.27	-0.392
215.63	-1.811
216.00	-3.776
216.37	-7.571
216.74	-19.899
217.10	-23.504
217.47	-24.080
217.84	-16.746
218.20	-21.574
218.57	-23.631
218.94	-27.723
219.30	-25.480
219.67	-21.449
220.04	-20.377
220.40	-23.075
220.77	-23.490
221.13	-12.700
221.50	-10.061
221.87	-12.517
222.23	-13.045
222.60	-19.252
222.97	-16.204
223.33	-12.059
223.70	-12.419
224.07	-11.325
224.43	-7.271
224.80	-3.985
225.16	-7.745
225.53	-5.649
225.90	-7.192
226.26	-5.254
226.63	-2.476
226.99	-2.173
227.36	-1.349
227.73	1.110
228.09	1.058
228.46	1.377
228.82	0.865
229.19	1.400
229.56	0.153
229.92	1.972
230.29	1.012
230.65	1.002
231.02	0.725
231.38	-2.222
231.75	-5.924
232.12	-5.746
232.48	-9.222
232.85	-9.349
233.21	-8.682
233.58	-8.831
233.94	-9.242
234.31	-8.485
234.68	-9.169
235.04	-8.210
235.41	-5.781
235.77	-3.401
236.14	-2.435
236.50	1.142
236.87	1.165
237.23	0.976
237.60	0.584
237.96	0.882
238.33	-0.156
238.69	-0.125
239.06	-0.709
239.42	-1.223
239.79	-2.291
240.15	-2.731
240.52	-2.825
240.88	-2.460
241.25	-2.693
241.61	-1.923
241.98	-2.179
242.34	-1.523
242.71	-1.222
243.07	-0.813
243.44	-0.748
243.80	-0.462
244.17	-0.021
244.53	-0.560
244.90	-0.475
245.26	-0.087
245.63	-0.120
245.99	-0.127
246.36	-0.291
246.72	-0.055
247.09	-0.393
247.45	-0.197
247.81	0.094
248.18	-0.281
248.54	0.209
248.91	-0.238
249.27	-0.434
249.64	-0.322
250.00	-0.173
250.36	-0.193
250.73	-0.777
251.09	-0.248
251.46	-0.430
251.82	-0.702
252.19	-0.577
252.55	-0.681
252.91	-0.445
253.28	-0.754
253.64	-1.478
254.01	-1.462
254.37	-0.764
254.73	-0.614
255.10	-0.572
255.46	-0.166
255.83	-0.209
256.19	-0.244
256.55	-0.537
256.92	-0.369
257.28	-0.438
257.65	-0.140
258.01	-0.064
258.37	-0.260
258.74	-0.438
259.10	-0.685
259.46	-0.937
259.83	-0.906
260.19	-1.015
260.55	-0.865
260.92	-0.849
261.28	-0.824
261.64	-0.746
262.01	-0.755
262.37	-0.629
262.73	-0.122
263.10	0.110
263.46	0.263
263.82	0.159
264.19	0.402
264.55	0.092
264.91	0.066
265.28	0.163
265.64	0.033
266.00	0.012
266.37	-0.153
266.73	-0.619
267.09	-0.755
267.46	-0.952
267.82	-1.030
268.18	-0.936
268.54	-0.513
268.91	-0.586
269.27	-0.693
269.63	-0.585
270.00	-0.700
270.36	-0.696
270.72	-0.288
271.08	-0.129
271.45	-0.100
271.81	-0.231
272.17	-0.435
272.53	-0.712
272.90	-0.760
273.26	-0.621
273.62	-0.798
273.98	-0.820
274.35	-0.841
274.71	-1.046
275.07	-1.062
275.43	-0.945
275.80	-0.643
276.16	-0.700
276.52	-0.651
276.88	-0.539
277.25	-0.658
277.61	-0.932
277.97	-0.985
278.33	-0.842
278.69	-0.972
279.06	-0.984
279.42	-0.995
279.78	-1.104
280.14	-0.860
280.50	-0.820
280.87	-0.718
281.23	-0.558
281.59	-0.292
281.95	-0.173
282.31	-0.359
282.68	-0.534
283.04	-0.616
283.40	-0.510
283.76	-0.404
284.12	-0.377
284.48	-0.304
284.85	-0.348
285.21	-0.368
285.57	-0.496
285.93	-0.593
286.29	-0.674
286.65	-0.498
287.02	-0.102
287.38	-0.116
287.74	-0.181
288.10	-0.327
288.46	-0.413
288.82	-0.643
289.18	-0.708
289.54	-0.640
289.91	-0.450
290.27	-0.303
290.63	-0.123
290.99	-0.328
291.35	-0.438
291.71	-0.414
292.07	-0.386
292.43	-0.256
292.79	-0.128
293.16	-0.121
293.52	-0.027
293.88	0.002
294.24	0.055
294.60	-0.108
294.96	-0.224
295.32	-0.170
295.68	-0.097
296.04	-0.078
296.40	-0.016
296.76	0.110
297.12	0.079
297.49	-0.035
297.85	-0.197
298.21	-0.234
298.57	-0.273
298.93	-0.226
299.29	-0.407
299.65	-0.439
300.01	-0.534
300.37	-0.564
300.73	-0.533
301.09	-0.432
301.45	-0.360
301.81	-0.235
302.17	-0.119
302.53	-0.223
302.89	-0.310
303.25	-0.206
303.61	-0.325
303.97	-0.391
304.33	-0.416
304.69	-0.456
305.05	-0.537
305.41	-0.595
305.77	-0.612
306.13	-0.733
306.49	-0.641
306.85	-0.478
307.21	-0.320
307.57	-0.262
307.93	-0.095
308.29	-0.053
308.65	-0.072
309.01	-0.028
309.37	0.028
309.73	0.001
310.09	0.141
310.45	0.297
310.81	0.257
311.17	0.228
311.53	0.217
311.89	0.217
312.25	0.157
312.61	0.100
312.96	0.043
313.32	0.109
313.68	0.101
314.04	-0.050
314.40	-0.118
314.76	-0.277
315.12	-0.409
315.48	-0.297
315.84	-0.318
316.20	-0.430
316.56	-0.452
316.92	-0.384
317.27	-0.514
317.63	-0.432
317.99	-0.453
318.35	-0.447
318.71	-0.278
319.07	-0.149
319.43	-0.162
319.79	-0.109
320.15	-0.123
320.50	-0.053
320.86	-0.138
321.22	-0.040
321.58	-0.129
321.94	-0.165
322.30	-0.290
322.66	-0.407
323.01	-0.510
323.37	-0.578
323.73	-0.603
324.09	-0.629
324.45	-0.632
324.81	-0.577
325.17	-0.621
325.52	-0.686
325.88	-0.630
326.24	-0.554
326.60	-0.441
326.96	-0.419
327.31	-0.488
327.67	-0.545
328.03	-0.483
328.39	-0.523
328.75	-0.553
329.11	-0.537
329.46	-0.421
329.82	-0.290
330.18	-0.322
330.54	-0.376
330.90	-0.333
331.25	-0.298
331.61	-0.246
331.97	-0.156
332.33	-0.066
332.68	-0.009
333.04	0.004
333.40	-0.072
333.76	-0.248
334.11	-0.249
334.47	-0.210
334.83	-0.240
335.19	-0.241
335.54	-0.284
335.90	-0.336
336.26	-0.384
336.62	-0.463
336.97	-0.585
337.33	-0.639
337.69	-0.597
338.05	-0.578
338.40	-0.619
338.76	-0.593
339.12	-0.525
339.48	-0.557
339.83	-0.563
340.19	-0.550
340.55	-0.458
340.90	-0.459
341.26	-0.419
341.62	-0.392
341.97	-0.378
342.33	-0.360
342.69	-0.344
343.04	-0.351
343.40	-0.364
343.76	-0.407
344.12	-0.424
344.47	-0.446
344.83	-0.360
345.19	-0.298
345.54	-0.272
345.90	-0.281
346.26	-0.216
346.61	-0.204
346.97	-0.198
347.32	-0.222
347.68	-0.162
348.04	-0.208
348.39	-0.240
348.75	-0.229
349.11	-0.297
349.46	-0.382
349.82	-0.405
350.18	-0.508
350.53	-0.541
350.89	-0.619
351.24	-0.582
351.60	-0.594
351.96	-0.516
352.31	-0.532
352.67	-0.525
353.02	-0.542
353.38	-0.463
353.74	-0.432
354.09	-0.409
354.45	-0.355
354.80	-0.269
355.16	-0.241
355.52	-0.223
355.87	-0.320
356.23	-0.270
356.58	-0.268
356.94	-0.193
357.29	-0.162
357.65	-0.132
358.00	-0.119
358.36	-0.111
358.72	-0.090
359.07	-0.030
359.43	-0.055
359.78	0.049
360.14	0.058
360.49	0.045
360.85	0.047
361.20	-0.002
361.56	-0.065
361.91	-0.066
362.27	-0.079
362.62	-0.060
362.98	-0.069
363.33	-0.042
363.69	-0.051
364.04	-0.030
364.40	-0.005
364.75	-0.024
365.11	-0.010
365.46	0.018
365.82	0.049
366.17	0.038
366.53	0.022
366.88	-0.004
367.24	0.026
367.59	0.015
367.95	0.007
368.30	0.005
368.66	0.045
369.01	0.022
369.37	0.063
369.72	0.102
370.08	0.167
370.43	0.165
370.78	0.177
371.14	0.136
371.49	0.150
371.85	0.117
372.20	0.131
372.56	0.112
372.91	0.146
373.26	0.150
373.62	0.070
373.97	0.040
374.33	0.034
374.68	0.039
375.03	0.061
375.39	0.055
375.74	0.097
376.10	0.101
376.45	0.139
376.80	0.149
377.16	0.125
377.51	0.180
377.87	0.217
378.22	0.207
378.57	0.232
378.93	0.275
379.28	0.296
379.63	0.284
379.99	0.307
380.34	0.275
380.70	0.287
381.05	0.330
381.40	0.310
381.76	0.277
382.11	0.292
382.46	0.313
382.82	0.324
383.17	0.322
383.52	0.316
383.88	0.307
384.23	0.338
384.58	0.315
384.94	0.287
385.29	0.315
385.64	0.356
385.99	0.381
386.35	0.379
386.70	0.360
387.05	0.320
387.41	0.321
387.76	0.295
388.11	0.265
388.47	0.267
388.82	0.318
389.17	0.309
389.52	0.268
389.88	0.276
390.23	0.236
390.58	0.232
390.93	0.272
391.29	0.271
391.64	0.298
391.99	0.370
392.34	0.433
392.70	0.375
393.05	0.380
393.40	0.395
393.75	0.351
394.11	0.344
394.46	0.338
394.81	0.322
395.16	0.301
395.52	0.302
395.87	0.270
396.22	0.234
396.57	0.231
396.92	0.190
397.28	0.164
397.63	0.157
397.98	0.170
398.33	0.158
398.68	0.163
399.04	0.173
399.39	0.134
399.74	0.094
400.09	0.078
400.44	0.097
400.80	0.110
401.15	0.104
401.50	0.100
401.85	0.115
402.20	0.131
402.55	0.143
402.90	0.114
403.26	0.129
403.61	0.130
403.96	0.119
404.31	0.103
404.66	0.103
405.01	0.104
405.36	0.096
405.72	0.064
406.07	0.016
406.42	-0.044
406.77	-0.021
407.12	-0.013
407.47	0.013
407.82	0.024
408.17	0.019
408.53	0.002
408.88	-0.023
409.23	-0.028
409.58	-0.046
409.93	-0.023
410.28	0.012
410.63	-0.019
410.98	-0.064
411.33	-0.102
411.68	-0.109
412.03	-0.079
412.38	-0.076
412.73	-0.037
413.09	0.008
413.44	0.050
413.79	0.062
414.14	0.099
414.49	0.152
414.84	0.201
415.19	0.233
415.54	0.254
415.89	0.263
416.24	0.312
416.59	0.344
416.94	0.358
417.29	0.378
417.64	0.384
417.99	0.390
418.34	0.396
418.69	0.410
419.04	0.414
419.39	0.426
419.74	0.436
420.09	0.430
420.44	0.427
420.79	0.425
421.14	0.433
421.49	0.450
421.84	0.442
422.19	0.445
422.54	0.442
422.89	0.435
423.24	0.426
423.59	0.405
423.94	0.390
424.29	0.388
424.64	0.383
424.99	0.363
425.34	0.331
425.68	0.323
426.03	0.289
426.38	0.276
426.73	0.285
427.08	0.271
427.43	0.283
427.78	0.302
428.13	0.278
428.48	0.267
428.83	0.277
429.18	0.287
429.53	0.289
429.87	0.293
430.22	0.290
430.57	0.290
430.92	0.293
431.27	0.307
431.62	0.284
431.97	0.306
432.32	0.306
432.67	0.286
433.01	0.290
433.36	0.275
433.71	0.281
434.06	0.265
434.41	0.252
434.76	0.255
435.11	0.235
435.45	0.238
435.80	0.220
436.15	0.232
436.50	0.236
436.85	0.243
437.20	0.252
437.54	0.252
437.89	0.274
438.24	0.285
438.59	0.278
438.94	0.271
439.29	0.263
439.63	0.271
439.98	0.253
440.33	0.258
440.68	0.260
441.03	0.272
441.37	0.278
441.72	0.274
442.07	0.275
442.42	0.285
442.76	0.309
443.11	0.312
443.46	0.316
443.81	0.320
444.16	0.326
444.50	0.327
444.85	0.325
445.20	0.318
445.55	0.323
445.89	0.319
446.24	0.303
446.59	0.273
446.94	0.273
447.28	0.244
447.63	0.242
447.98	0.227
448.32	0.198
448.67	0.166
449.02	0.144
449.37	0.112
449.71	0.107
450.06	0.096
450.41	0.104
450.75	0.106
451.10	0.116
451.45	0.093
451.79	0.083
452.14	0.073
452.49	0.077
452.84	0.072
453.18	0.074
453.53	0.051
453.88	0.066
454.22	0.075
454.57	0.091
454.92	0.100
455.26	0.127
455.61	0.158
455.95	0.197
456.30	0.219
456.65	0.254
456.99	0.270
457.34	0.305
457.69	0.320
458.03	0.324
458.38	0.321
458.73	0.323
459.07	0.319
459.42	0.294
459.76	0.255
460.11	0.228
460.46	0.195
460.80	0.165
461.15	0.133
461.49	0.088
461.84	0.073
462.19	0.050
462.53	0.037
462.88	0.027
463.22	0.020
463.57	0.037
463.91	0.048
464.26	0.063
464.61	0.069
464.95	0.059
465.30	0.063
465.64	0.064
465.99	0.072
466.33	0.071
466.68	0.061
467.02	0.065
467.37	0.057
467.71	0.027
468.06	0.017
468.41	-0.003
468.75	-0.016
469.10	-0.025
469.44	-0.050
469.79	-0.081
470.13	-0.116
470.48	-0.142
470.82	-0.168
471.17	-0.178
471.51	-0.181
471.86	-0.205
472.20	-0.205
472.55	-0.201
472.89	-0.201
473.23	-0.210
473.58	-0.204
473.92	-0.195
474.27	-0.189
474.61	-0.183
474.96	-0.183
475.30	-0.170
475.65	-0.162
475.99	-0.172
476.34	-0.177
476.68	-0.181
477.02	-0.165
477.37	-0.169
477.71	-0.143
478.06	-0.098
478.40	-0.032
478.75	0.029
479.09	0.108
479.43	0.187
479.78	0.267
480.12	0.337
480.47	0.398
480.81	0.445
481.15	0.498
481.50	0.548
481.84	0.588
482.19	0.621
482.53	0.653
482.87	0.669
483.22	0.664
483.56	0.652
483.90	0.632
484.25	0.606
484.59	0.588
484.94	0.567
485.28	0.532
485.62	0.501
485.97	0.467
486.31	0.437
486.65	0.406
487.00	0.391
487.34	0.382
487.68	0.372
488.03	0.359
488.37	0.349
488.71	0.330
489.06	0.317
489.40	0.310
489.74	0.302
490.09	0.286
490.43	0.271
490.77	0.241
491.11	0.209
491.46	0.184
491.80	0.159
492.14	0.118
492.49	0.102
492.83	0.075
493.17	0.032
493.51	-0.007
493.86	-0.040
494.20	-0.065
494.54	-0.071
494.88	-0.058
495.23	-0.054
495.57	-0.033
495.91	-0.011
496.25	0.001
496.60	0.012
496.94	0.026
497.28	0.038
497.62	0.050
497.97	0.066
498.31	0.087
498.65	0.086
498.99	0.095
499.33	0.126
499.68	0.141
500.02	0.162
500.36	0.188
500.70	0.209
501.04	0.217
501.39	0.239
501.73	0.266
502.07	0.308
502.41	0.346
502.75	0.397
503.09	0.422
503.44	0.470
503.78	0.501
504.12	0.541
504.46	0.598
504.80	0.678
505.14	0.746
505.49	0.820
505.83	0.878
506.17	0.948
506.51	1.004
506.85	1.082
507.19	1.146
507.53	1.223
507.87	1.304
508.22	1.370
508.56	1.418
508.90	1.482
509.24	1.551
509.58	1.604
509.92	1.683
510.26	1.758
510.60	1.813
510.94	1.887
511.28	1.965
511.63	2.045
511.97	2.131
512.31	2.248
512.65	2.355
512.99	2.458
513.33	2.615
513.67	2.740
514.01	2.895
514.35	3.054
514.69	3.212
515.03	3.347
515.37	3.488
515.71	3.632
516.05	3.759
516.39	3.885
516.73	4.008
517.07	4.102
517.41	4.190
517.75	4.268
518.09	4.356
518.43	4.436
518.77	4.512
519.11	4.598
519.45	4.691
519.79	4.794
520.13	4.897
520.47	5.024
520.81	5.156
521.15	5.337
521.49	5.502
521.83	5.660
522.17	5.812
522.51	5.993
522.85	6.173
523.19	6.372
523.53	6.572
523.87	6.789
524.21	6.996
524.55	7.189
524.89	7.360
525.23	7.535
525.57	7.674
525.91	7.806
526.25	7.929
526.58	8.045
526.92	8.143
527.26	8.224
527.60	8.279
527.94	8.329
528.28	8.363
528.62	8.382
528.96	8.396
529.30	8.427
529.64	8.454
529.97	8.468
530.31	8.476
530.65	8.492
530.99	8.523
531.33	8.558
531.67	8.588
532.01	8.629
532.35	8.669
532.68	8.711
533.02	8.726
533.36	8.740
533.70	8.768
534.04	8.787
534.38	8.802
534.71	8.800
535.05	8.815
535.39	8.834
535.73	8.857
536.07	8.880
536.41	8.913
536.74	8.959
537.08	9.009
537.42	9.071
537.76	9.134
538.10	9.199
538.43	9.274
538.77	9.322
539.11	9.381
539.45	9.417
539.79	9.455
540.12	9.468
540.46	9.482
540.80	9.486
541.14	9.484
541.47	9.467
541.81	9.444
542.15	9.420
542.49	9.413
542.82	9.378
543.16	9.357
543.50	9.341
543.84	9.327
544.17	9.311
544.51	9.313
544.85	9.298
545.18	9.308
545.52	9.313
545.86	9.295
546.20	9.288
546.53	9.267
546.87	9.271
547.21	9.240
547.54	9.215
547.88	9.211
548.22	9.199
548.55	9.189
548.89	9.167
549.23	9.166
549.56	9.172
549.90	9.171
550.24	9.174
550.57	9.151
550.91	9.151
551.25	9.163
551.58	9.144
551.92	9.138
552.26	9.127
552.59	9.125
552.93	9.108
553.27	9.094
553.60	9.064
553.94	9.024
554.27	9.014
554.61	8.993
554.95	8.955
555.28	8.935
555.62	8.892
555.95	8.859
556.29	8.826
556.63	8.767
556.96	8.717
557.30	8.681
557.63	8.645
557.97	8.578
558.31	8.526
558.64	8.476
558.98	8.441
559.31	8.408
559.65	8.343
559.98	8.276
560.32	8.216
560.65	8.155
560.99	8.084
561.33	8.039
561.66	7.976
562.00	7.913
562.33	7.849
562.67	7.779
563.00	7.711
563.34	7.676
563.67	7.631
564.01	7.587
564.34	7.532
564.68	7.476
565.01	7.425
565.35	7.374
565.68	7.305
566.02	7.224
566.35	7.144
566.69	7.044
567.02	6.974
567.36	6.872
567.69	6.786
568.03	6.705
568.36	6.625
568.69	6.526
569.03	6.456
569.36	6.392
569.70	6.322
570.03	6.269
570.37	6.221
570.70	6.145
571.04	6.084
571.37	6.004
571.70	5.946
572.04	5.885
572.37	5.818
572.71	5.749
573.04	5.676
573.37	5.619
573.71	5.549
574.04	5.473
574.38	5.385
574.71	5.330
575.04	5.275
575.38	5.201
575.71	5.105
576.05	5.041
576.38	4.967
576.71	4.885
577.05	4.821
577.38	4.740
577.71	4.666
578.05	4.594
578.38	4.522
578.71	4.442
579.05	4.366
579.38	4.326
579.71	4.233
580.05	4.153
580.38	4.097
580.71	4.028
581.05	3.974
581.38	3.920
581.71	3.894
582.05	3.849
582.38	3.833
582.71	3.797
583.04	3.761
583.38	3.741
583.71	3.733
584.04	3.716
584.38	3.704
584.71	3.686
585.04	3.698
585.37	3.676
585.71	3.655
586.04	3.608
586.37	3.606
586.70	3.591
587.04	3.617
587.37	3.614
587.70	3.604
588.03	3.591
588.37	3.577
588.70	3.535
589.03	3.524
589.36	3.505
589.69	3.484
590.03	3.465
590.36	3.436
590.69	3.389
591.02	3.338
591.35	3.305
591.69	3.281
592.02	3.262
592.35	3.264
592.68	3.258
593.01	3.240
593.35	3.241
593.68	3.223
594.01	3.216
594.34	3.188
594.67	3.187
595.00	3.160
595.34	3.135
595.67	3.091
596.00	3.037
596.33	2.965
596.66	2.908
596.99	2.856
597.32	2.798
597.65	2.735
597.99	2.684
598.32	2.636
598.65	2.586
598.98	2.543
599.31	2.497
599.64	2.500
599.97	2.483
600.30	2.491
600.63	2.503
600.96	2.504
601.30	2.518
601.63	2.529
601.96	2.520
602.29	2.527
602.62	2.516
602.95	2.524
603.28	2.501
603.61	2.458
603.94	2.410
604.27	2.368
604.60	2.321
604.93	2.299
605.26	2.251
605.59	2.216
605.92	2.166
606.25	2.122
606.58	2.070
606.91	1.987
607.24	1.978
607.57	1.955
607.90	1.903
608.23	1.840
608.56	1.753
608.89	1.699
609.22	1.634
609.55	1.568
609.88	1.477
610.21	1.412
610.54	1.370
610.87	1.277
611.20	1.202
611.53	1.148
611.86	1.115
612.19	1.046
612.52	0.995
612.85	0.967
613.18	0.933
613.51	0.906
613.84	0.827
614.17	0.759
614.49	0.756
614.82	0.720
615.15	0.680
615.48	0.665
615.81	0.643
616.14	0.632
616.47	0.568
616.80	0.505
617.13	0.459
617.46	0.447
617.78	0.436
618.11	0.391
618.44	0.342
618.77	0.294
619.10	0.230
619.43	0.202
619.76	0.141
620.09	0.119
620.41	0.120
620.74	0.118
621.07	0.134
621.40	0.140
621.73	0.138
622.06	0.162
622.38	0.182
622.71	0.233
623.04	0.267
623.37	0.309
623.70	0.322
624.02	0.358
624.35	0.420
624.68	0.445
625.01	0.465
625.34	0.509
625.66	0.512
625.99	0.522
626.32	0.502
626.65	0.514
626.98	0.500
627.30	0.505
627.63	0.470
627.96	0.391
628.29	0.357
628.61	0.324
628.94	0.259
629.27	0.212
629.60	0.141
629.92	0.120
630.25	0.046
630.58	-0.005
630.91	-0.046
631.23	-0.068
631.56	-0.061
631.89	-0.111
632.21	-0.137
632.54	-0.157
632.87	-0.173
633.19	-0.160
633.52	-0.215
633.85	-0.225
634.18	-0.257
634.50	-0.285
634.83	-0.350
635.16	-0.421
635.48	-0.492
635.81	-0.558
636.14	-0.639
636.46	-0.683
636.79	-0.743
637.11	-0.785
637.44	-0.880
637.77	-0.926
638.09	-1.022
638.42	-1.052
638.75	-1.103
639.07	-1.108
639.40	-1.136
639.73	-1.156
640.05	-1.204
640.38	-1.222
640.70	-1.271
641.03	-1.252
641.36	-1.305
641.68	-1.330
642.01	-1.361
642.33	-1.384
642.66	-1.420
642.98	-1.466
643.31	-1.483
643.64	-1.500
643.96	-1.531
644.29	-1.511
644.61	-1.545
644.94	-1.512
645.26	-1.471
645.59	-1.443
645.91	-1.420
646.24	-1.378
646.56	-1.341
646.89	-1.321
647.22	-1.344
647.54	-1.347
647.87	-1.357
648.19	-1.411
648.52	-1.441
648.84	-1.452
649.17	-1.523
649.49	-1.544
649.82	-1.572
650.14	-1.601
650.47	-1.641
650.79	-1.634
651.11	-1.642
651.44	-1.657
651.76	-1.622
652.09	-1.584
652.41	-1.580
652.74	-1.520
653.06	-1.531
653.39	-1.525
653.71	-1.502
654.04	-1.490
654.36	-1.471
654.68	-1.433
655.01	-1.398
655.33	-1.338
655.66	-1.337
655.98	-1.320
656.30	-1.301
656.63	-1.249
656.95	-1.212
657.28	-1.192
657.60	-1.171
657.92	-1.171
658.25	-1.203
658.57	-1.226
658.90	-1.270
659.22	-1.315
659.54	-1.327
659.87	-1.342
660.19	-1.384
660.51	-1.465
660.84	-1.537
661.16	-1.594
661.48	-1.620
661.81	-1.660
662.13	-1.691
662.45	-1.691
662.78	-1.651
663.10	-1.611
663.42	-1.588
663.75	-1.535
664.07	-1.470
664.39	-1.436
664.72	-1.398
665.04	-1.353
665.36	-1.266
665.69	-1.168
666.01	-1.083
666.33	-1.024
666.65	-1.013
666.98	-0.935
667.30	-0.877
667.62	-0.819
667.94	-0.717
668.27	-0.626
668.59	-0.508
668.91	-0.384
669.23	-0.300
669.56	-0.204
669.88	-0.109
670.20	-0.013
670.52	0.096
670.85	0.144
671.17	0.277
671.49	0.399
671.81	0.520
672.13	0.587
672.46	0.658
672.78	0.770
673.10	0.890
673.42	1.030
673.74	1.193
674.07	1.323
674.39	1.563
674.71	1.687
675.03	1.846
675.35	2.043
675.67	2.199
676.00	2.362
676.32	2.462
676.64	2.551
676.96	2.696
677.28	2.855
677.60	2.988
677.92	3.071
678.25	3.212
678.57	3.318
678.89	3.377
679.21	3.519
679.53	3.617
679.85	3.776
680.17	3.931
680.49	4.076
680.81	4.128
681.13	4.223
681.46	4.374
681.78	4.495
682.10	4.642
682.42	4.831
682.74	5.004
683.06	5.128
683.38	5.236
683.70	5.405
684.02	5.514
684.34	5.702
684.66	5.817
684.98	5.954
685.30	6.058
685.62	6.153
685.94	6.275
686.26	6.291
686.58	6.392
686.90	6.482
687.22	6.509
687.54	6.546
687.86	6.549
688.18	6.603
688.50	6.657
688.82	6.655
689.14	6.701
689.46	6.767
689.78	6.882
690.10	7.016
690.42	7.105
690.74	7.280
691.06	7.416
691.38	7.617
691.70	7.818
692.02	7.980
692.34	8.271
692.66	8.479
692.98	8.613
693.30	8.864
693.62	9.082
693.94	9.346
694.26	9.487
694.57	9.675
694.89	9.859
695.21	10.011
695.53	10.145
695.85	10.273
696.17	10.460
696.49	10.675
696.81	10.827
697.13	10.963
697.44	11.149
697.76	11.391
698.08	11.663
698.40	11.958
698.72	12.265
699.04	12.639
699.36	13.052
699.67	13.414
699.99	13.794
700.31	14.214
700.63	14.691
700.95	15.222
701.27	15.642
701.58	16.011
701.90	16.311
702.22	16.753
702.54	17.133
702.86	17.449
703.17	17.838
703.49	18.134
703.81	18.498
704.13	18.835
704.45	19.031
704.76	19.380
705.08	19.737
705.40	20.172
705.72	20.454
706.03	20.770
706.35	21.154
706.67	21.482
706.99	21.918
707.30	22.198
707.62	22.496
707.94	22.887
708.26	23.212
708.57	23.497
708.89	23.774
709.21	24.071
709.53	24.336
709.84	24.613
710.16	24.995
710.48	25.239
710.79	25.621
711.11	25.944
711.43	26.236
711.74	26.536
712.06	26.896
712.38	27.243
712.69	27.574
713.01	27.914
713.33	28.275
713.64	28.595
713.96	28.963
714.28	29.354
714.59	29.779
714.91	30.176
715.23	30.610
715.54	30.935
715.86	31.360
716.17	31.849
716.49	32.327
716.81	32.731
717.12	33.074
717.44	33.521
717.76	33.885
718.07	34.224
718.39	34.635
718.70	34.981
719.02	35.350
719.33	35.672
719.65	35.999
719.97	36.149
720.28	36.381
720.60	36.735
720.91	36.921
721.23	37.224
721.54	37.456
721.86	37.712
722.17	37.908
722.49	38.217
722.81	38.319
723.12	38.488
723.44	38.856
723.75	39.087
724.07	39.305
724.38	39.596
724.70	39.791
725.01	40.007
725.33	40.177
725.64	40.494
725.96	40.746
726.27	40.974
726.59	41.031
726.90	41.189
727.22	41.228
727.53	41.343
727.84	41.490
728.16	41.625
728.47	41.767
728.79	41.918
729.10	41.844
729.42	41.770
729.73	41.935
730.05	42.191
730.36	42.324
730.67	42.526
730.99	42.662
731.30	42.791
731.62	42.868
731.93	42.939
732.24	43.003
732.56	43.259
732.87	43.559
733.19	43.787
733.50	43.890
733.81	44.052
734.13	44.320
734.44	44.511
734.76	44.589
735.07	44.717
735.38	44.972
735.70	45.314
736.01	45.493
736.32	45.647
736.64	45.743
736.95	45.807
737.26	45.804
737.58	45.914
737.89	45.903
738.20	46.123
738.52	46.382
738.83	46.381
739.14	46.266
739.45	46.343
739.77	46.503
740.08	46.567
740.39	46.676
740.71	46.869
741.02	46.849
741.33	46.968
741.64	46.994
741.96	47.011
742.27	47.118
742.58	47.143
742.90	47.211
743.21	47.076
743.52	47.145
743.83	47.056
744.14	46.998
744.46	47.169
744.77	47.278
745.08	47.147
745.39	46.835
745.71	46.790
746.02	46.907
746.33	46.893
746.64	46.902
746.95	46.882
747.27	47.143
747.58	47.078
747.89	46.867
748.20	46.614
748.51	46.769
748.82	46.908
749.14	46.878
749.45	46.846
749.76	46.830
750.07	46.987
750.38	46.793
750.69	46.608
751.01	46.761
751.32	46.744
751.63	46.874
751.94	46.728
752.25	46.594
752.56	46.718
752.87	46.537
753.18	46.469
753.49	46.333
753.81	46.424
754.12	46.376
754.43	46.304
754.74	46.292
755.05	46.186
755.36	46.327
755.67	46.631
755.98	46.825
756.29	46.954
756.60	46.994
756.91	47.091
757.22	47.152
757.53	47.507
757.84	47.686
758.15	47.917
758.46	48.156
758.77	48.064
759.09	47.989
759.40	47.738
759.71	47.684
760.02	47.506
760.33	47.455
760.64	47.306
760.95	47.047
761.26	46.860
761.57	46.731
761.88	46.609
762.18	46.563
762.49	46.374
762.80	46.378
763.11	46.442
763.42	46.466
763.73	46.278
764.04	46.197
764.35	46.265
764.66	46.164
764.97	45.896
765.28	45.720
765.59	45.671
765.90	45.572
766.21	45.226
766.52	44.814
766.83	44.655
767.14	44.520
767.44	44.412
767.75	43.911
768.06	43.853
768.37	43.652
768.68	43.673
768.99	43.401
769.30	43.311
769.61	43.185
769.91	42.955
770.22	42.668
770.53	42.540
770.84	42.561
771.15	42.608
771.46	42.286
771.77	42.468
772.07	42.170
772.38	41.884
772.69	41.661
773.00	41.779
773.31	41.904
773.61	41.740
773.92	41.759
774.23	41.827
774.54	41.568
774.85	41.473
775.15	41.391
775.46	41.427
775.77	41.783
776.08	42.035
776.39	41.960
776.69	42.024
777.00	42.249
777.31	42.146
777.62	41.910
777.92	41.923
778.23	41.935
778.54	41.661
778.85	41.680
779.15	41.485
779.46	41.471
779.77	41.390
780.07	41.441
780.38	41.420
780.69	41.341
781.00	41.384
781.30	41.606
781.61	41.453
781.92	41.924
782.22	42.036
782.53	41.681
782.84	41.700
783.14	41.819
783.45	41.566
783.76	41.582
784.06	41.914
784.37	41.627
784.68	41.514
784.98	41.747
785.29	41.634
785.60	41.792
785.90	42.318
786.21	42.334
786.51	42.316
786.82	42.627
787.13	42.912
787.43	42.881
787.74	43.090
788.04	43.419
788.35	43.510
788.66	43.380
788.96	43.231
789.27	43.090
789.57	43.002
789.88	43.106
790.19	42.730
790.49	42.537
790.80	42.239
791.10	42.300
791.41	42.096
791.71	42.147
792.02	42.215
792.32	41.761
792.63	41.659
792.93	41.631
793.24	41.420
793.54	41.808
793.85	41.722
794.15	42.142
794.46	42.164
794.76	42.219
795.07	42.115
795.37	42.376
795.68	42.885
795.98	43.125
796.29	43.342
796.59	43.566
796.90	43.406
797.20	43.475
797.51	43.126
797.81	42.531
798.12	42.501
798.42	42.691
798.72	42.679
799.03	42.434
799.33	42.229
799.64	41.907
799.94	42.118
800.25	42.139
800.55	42.307
800.85	42.668
801.16	43.550
801.46	43.196
801.77	42.842
802.07	42.667
802.37	42.806
802.68	42.662
802.98	42.842
803.28	42.697
803.59	42.735
803.89	42.402
804.20	42.686
804.50	42.328
804.80	42.935
805.11	43.123
805.41	43.215
805.71	43.278
806.02	43.903
806.32	44.165
806.62	44.052
806.93	44.101
807.23	44.452
807.53	43.857
807.83	44.099
808.14	44.308
808.44	44.333
808.74	44.313
809.05	44.213
809.35	43.633
809.65	43.940
809.95	44.285
810.26	44.066
810.56	44.067
810.86	44.247
811.16	44.022
811.47	44.122
811.77	44.629
812.07	44.917
812.37	44.961
812.68	45.208
812.98	44.832
813.28	44.937
813.58	45.362
813.88	45.013
814.19	45.531
814.49	46.225
814.79	46.090
815.09	46.402
815.39	46.011
815.70	46.170
816.00	46.352
816.30	46.303
816.60	45.966
816.90	46.004
817.20	46.451
817.50	46.388
817.81	45.979
818.11	45.804
818.41	45.537
818.71	45.726
819.01	45.804
819.31	46.008
819.61	46.156
819.92	46.419
820.22	46.620
820.52	46.786
820.82	46.914
821.12	47.231
821.42	47.452
821.72	47.725
822.02	48.049
822.32	48.335
822.62	48.618
822.92	48.864
823.22	49.070
823.52	49.215
823.83	49.258
824.13	49.409
824.43	49.232
824.73	49.262
825.03	49.167
825.33	49.022
825.63	48.849
825.93	48.431
826.23	48.220
826.53	48.033
826.83	47.889
827.13	48.070
827.43	47.934
827.73	48.280
828.03	48.372
828.33	48.598
828.63	48.572
828.93	48.690
829.23	48.841
829.53	48.807
829.83	48.607
830.13	48.805
830.42	48.134
830.72	47.984
831.02	47.751
831.32	47.415
831.62	47.171
831.92	46.961
832.22	46.708
832.52	46.670
832.82	46.903
833.12	47.050
833.42	46.937
833.72	47.312
834.01	47.691
834.31	47.600
834.61	47.984
834.91	48.455
835.21	48.859
835.51	49.166
835.81	49.289
836.11	48.967
836.40	48.552
836.70	48.763
837.00	48.626
837.30	47.969
837.60	48.693
837.90	48.453
838.19	47.795
838.49	47.564
838.79	47.422
839.09	47.230
839.39	47.689
839.68	48.279
839.98	47.155
840.28	46.695
840.58	46.817
840.88	46.423
841.17	45.658
841.47	45.249
841.77	44.629
842.07	44.627
842.36	45.173
842.66	44.516
842.96	43.894
843.26	44.135
843.55	44.026
843.85	44.047
844.15	42.763
844.45	42.100
844.74	42.311
845.04	42.263
845.34	42.068
845.63	41.454
845.93	41.135
846.23	40.986
846.53	41.495
846.82	41.494
847.12	41.504
847.42	41.264
847.71	41.680
848.01	41.213
848.31	40.644
848.60	40.332
848.90	40.100
849.19	40.332
849.49	40.716
849.79	40.775
850.08	40.565
850.38	38.693
850.68	38.623
850.97	39.867
851.27	39.990
851.56	40.106
851.86	39.393
852.16	40.139
852.45	39.445
852.75	39.532
853.04	41.143
853.34	42.689
853.64	43.213
853.93	42.700
854.23	42.116
854.52	42.690
854.82	43.666
855.11	43.414
855.41	42.017
855.70	43.617
856.00	41.590
856.30	40.534
856.59	39.537
856.89	41.613
857.18	44.379
857.48	45.033
857.77	43.724
858.07	44.186
858.36	43.304
858.66	44.375
858.95	43.057
859.25	46.070
859.54	45.397
859.84	45.405
860.13	43.455
860.42	43.508
860.72	42.295
861.01	43.861
861.31	43.812
861.60	45.752
861.90	46.266
862.19	46.906
862.49	44.559
862.78	44.972
863.07	45.530
863.37	47.136
863.66	45.622
863.96	47.703
864.25	47.223
864.54	45.727
864.84	45.807
865.13	44.125
865.43	44.917
865.72	48.147
866.01	34.981
866.31	48.180
866.60	34.727
866.89	50.365
>>>>>End Spectral Data<<<<<
