OOIBase32 Version 2.0.0.6 Data File
++++++++++++++++++++++++++++++++++++
Date: 01-23-2012, 23:15:58
User: Valued Ocean Optics Customer
Spectrometer Serial Number: USB2E2917
Spectrometer Channel: Master
Integration Time (msec): 5
Spectra Averaged: 10
Boxcar Smoothing: 5
Correct for Electrical Dark: Enabled
Time Normalized: Disabled
Dual-beam Reference: Disabled
Reference Channel: Master
Temperature: Not acquired
Spectrometer Type: S2000
ADC Type: USB2000
Number of Pixels in File: 2048
Graph Title: 
>>>>>Begin Spectral Data<<<<<
180.30	0.000
180.67	0.000
181.03	180.364
181.40	197.517
181.77	-1197.095
182.14	49.542
182.51	-779.095
182.88	-66.119
183.25	20.091
183.62	-10.266
183.99	412.116
184.36	-17.554
184.73	235.740
185.10	-57.511
185.46	431.223
185.83	-344.994
186.20	465.924
186.57	200.949
186.94	110.033
187.31	48.228
187.68	43.294
188.05	-8.140
188.42	4.975
188.78	88.241
189.15	533.173
189.52	-120.210
189.89	-49.713
190.26	-49.783
190.63	-22.846
191.00	-9.515
191.37	-5.641
191.73	4.213
192.10	6.294
192.47	11.178
192.84	13.872
193.21	22.703
193.58	23.630
193.94	23.260
194.31	20.407
194.68	8.656
195.05	-9.520
195.42	-8.531
195.79	-14.244
196.15	-17.565
196.52	-37.445
196.89	-43.848
197.26	-57.692
197.63	-49.835
198.00	-29.916
198.36	-29.510
198.73	-27.150
199.10	-16.718
199.47	-13.068
199.84	0.950
200.20	-3.724
200.57	5.206
200.94	16.569
201.31	21.385
201.68	4.452
202.04	-12.651
202.41	-6.094
202.78	-16.704
203.15	-22.260
203.51	-15.676
203.88	-24.817
204.25	-16.547
204.62	-28.374
204.98	-52.625
205.35	-50.876
205.72	-39.433
206.09	-30.574
206.46	-91.025
206.82	-84.838
207.19	-65.637
207.56	-127.551
207.92	-100.745
208.29	-139.885
208.66	-104.982
209.03	-97.861
209.39	-75.628
209.76	-76.239
210.13	-138.508
210.50	-80.066
210.86	-60.395
211.23	-71.431
211.60	-47.203
211.96	-64.154
212.33	-40.869
212.70	-43.665
213.07	-47.203
213.43	-87.356
213.80	-74.432
214.17	-30.306
214.53	-24.539
214.90	-10.116
215.27	-7.458
215.63	-4.457
216.00	7.202
216.37	5.293
216.74	-0.672
217.10	4.899
217.47	13.487
217.84	14.130
218.20	11.216
218.57	19.513
218.94	11.870
219.30	13.797
219.67	10.931
220.04	5.828
220.40	0.695
220.77	-3.271
221.13	-5.534
221.50	-3.724
221.87	-5.094
222.23	-4.140
222.60	-15.608
222.97	-19.934
223.33	-20.068
223.70	-16.113
224.07	-12.368
224.43	-9.745
224.80	-7.357
225.16	-8.489
225.53	-8.974
225.90	-9.450
226.26	-6.104
226.63	-3.873
226.99	-0.395
227.36	-0.249
227.73	0.909
228.09	-0.972
228.46	1.185
228.82	3.688
229.19	4.694
229.56	4.285
229.92	7.364
230.29	6.348
230.65	6.307
231.02	4.090
231.38	2.136
231.75	0.225
232.12	0.391
232.48	-3.288
232.85	-5.475
233.21	-5.586
233.58	-5.851
233.94	-8.028
234.31	-5.852
234.68	-5.954
235.04	-6.165
235.41	-4.667
235.77	-2.066
236.14	-1.678
236.50	0.663
236.87	2.021
237.23	2.807
237.60	2.683
237.96	3.357
238.33	1.388
238.69	0.721
239.06	0.751
239.42	1.458
239.79	0.588
240.15	0.920
240.52	0.849
240.88	0.644
241.25	0.181
241.61	0.740
241.98	0.320
242.34	0.835
242.71	1.476
243.07	1.935
243.44	1.554
243.80	1.492
244.17	1.499
244.53	1.209
244.90	1.246
245.26	1.572
245.63	1.327
245.99	1.215
246.36	1.043
246.72	1.237
247.09	0.753
247.45	0.770
247.81	1.369
248.18	1.222
248.54	1.611
248.91	1.452
249.27	1.354
249.64	1.570
250.00	1.739
250.36	1.805
250.73	1.142
251.09	1.592
251.46	2.089
251.82	1.145
252.19	1.300
252.55	0.735
252.91	0.861
253.28	0.731
253.64	0.321
254.01	0.125
254.37	0.103
254.73	0.456
255.10	1.057
255.46	1.558
255.83	1.828
256.19	1.642
256.55	1.763
256.92	1.922
257.28	2.029
257.65	2.283
258.01	2.295
258.37	2.308
258.74	2.164
259.10	1.952
259.46	1.477
259.83	1.345
260.19	1.342
260.55	1.346
260.92	1.007
261.28	0.865
261.64	0.677
262.01	0.684
262.37	0.584
262.73	0.662
263.10	0.729
263.46	1.032
263.82	1.231
264.19	1.462
264.55	0.993
264.91	1.106
265.28	0.832
265.64	0.974
266.00	1.004
266.37	1.122
266.73	1.054
267.09	0.963
267.46	0.844
267.82	0.629
268.18	0.582
268.54	0.980
268.91	1.106
269.27	1.402
269.63	1.483
270.00	1.691
270.36	1.672
270.72	1.963
271.08	1.867
271.45	1.894
271.81	1.959
272.17	2.121
272.53	2.109
272.90	2.193
273.26	2.168
273.62	2.063
273.98	1.937
274.35	1.864
274.71	1.759
275.07	1.988
275.43	2.031
275.80	2.107
276.16	1.914
276.52	1.872
276.88	1.690
277.25	1.460
277.61	1.121
277.97	0.999
278.33	1.195
278.69	1.045
279.06	0.925
279.42	0.881
279.78	0.991
280.14	1.060
280.50	1.241
280.87	1.366
281.23	1.460
281.59	1.716
281.95	1.794
282.31	1.761
282.68	1.809
283.04	1.782
283.40	1.830
283.76	1.850
284.12	1.953
284.48	1.869
284.85	1.906
285.21	2.057
285.57	2.095
285.93	2.088
286.29	1.937
286.65	2.042
287.02	2.265
287.38	2.217
287.74	2.150
288.10	2.054
288.46	2.057
288.82	1.927
289.18	1.844
289.54	1.790
289.91	1.696
290.27	1.812
290.63	1.947
290.99	1.990
291.35	1.965
291.71	1.966
292.07	1.922
292.43	1.816
292.79	1.831
293.16	1.729
293.52	1.870
293.88	2.007
294.24	1.946
294.60	1.870
294.96	1.711
295.32	1.859
295.68	1.883
296.04	1.949
296.40	2.048
296.76	2.179
297.12	2.149
297.49	1.852
297.85	1.797
298.21	1.788
298.57	1.553
298.93	1.593
299.29	1.426
299.65	1.475
300.01	1.413
300.37	1.310
300.73	1.364
301.09	1.501
301.45	1.778
301.81	1.804
302.17	1.974
302.53	2.020
302.89	1.941
303.25	1.960
303.61	1.892
303.97	1.856
304.33	1.935
304.69	1.854
305.05	1.851
305.41	1.804
305.77	1.813
306.13	1.679
306.49	1.641
306.85	1.656
307.21	1.741
307.57	1.841
307.93	1.914
308.29	2.058
308.65	1.946
309.01	1.891
309.37	1.906
309.73	1.886
310.09	2.069
310.45	2.185
310.81	2.161
311.17	2.152
311.53	2.043
311.89	2.050
312.25	1.916
312.61	1.956
312.96	2.014
313.32	2.036
313.68	2.035
314.04	1.768
314.40	1.748
314.76	1.758
315.12	1.569
315.48	1.608
315.84	1.534
316.20	1.598
316.56	1.540
316.92	1.458
317.27	1.271
317.63	1.261
317.99	1.280
318.35	1.188
318.71	1.267
319.07	1.375
319.43	1.428
319.79	1.503
320.15	1.496
320.50	1.641
320.86	1.656
321.22	1.730
321.58	1.626
321.94	1.630
322.30	1.636
322.66	1.617
323.01	1.600
323.37	1.589
323.73	1.531
324.09	1.454
324.45	1.462
324.81	1.449
325.17	1.548
325.52	1.601
325.88	1.561
326.24	1.634
326.60	1.546
326.96	1.549
327.31	1.520
327.67	1.488
328.03	1.496
328.39	1.440
328.75	1.630
329.11	1.594
329.46	1.713
329.82	1.829
330.18	1.806
330.54	1.858
330.90	1.949
331.25	1.932
331.61	2.032
331.97	2.023
332.33	2.051
332.68	1.955
333.04	1.930
333.40	1.753
333.76	1.693
334.11	1.685
334.47	1.730
334.83	1.661
335.19	1.615
335.54	1.613
335.90	1.655
336.26	1.629
336.62	1.590
336.97	1.550
337.33	1.539
337.69	1.561
338.05	1.602
338.40	1.552
338.76	1.590
339.12	1.760
339.48	1.700
339.83	1.704
340.19	1.666
340.55	1.725
340.90	1.703
341.26	1.736
341.62	1.704
341.97	1.670
342.33	1.749
342.69	1.705
343.04	1.558
343.40	1.528
343.76	1.484
344.12	1.532
344.47	1.517
344.83	1.617
345.19	1.683
345.54	1.731
345.90	1.747
346.26	1.738
346.61	1.834
346.97	1.908
347.32	1.997
347.68	1.985
348.04	1.952
348.39	1.878
348.75	1.891
349.11	1.881
349.46	1.910
349.82	1.918
350.18	1.875
350.53	1.831
350.89	1.786
351.24	1.733
351.60	1.699
351.96	1.754
352.31	1.760
352.67	1.711
353.02	1.644
353.38	1.611
353.74	1.634
354.09	1.580
354.45	1.576
354.80	1.574
355.16	1.603
355.52	1.704
355.87	1.636
356.23	1.693
356.58	1.761
356.94	1.862
357.29	1.879
357.65	1.846
358.00	1.882
358.36	1.864
358.72	1.891
359.07	1.912
359.43	1.929
359.78	2.013
360.14	2.005
360.49	1.956
360.85	1.958
361.20	1.901
361.56	1.859
361.91	1.875
362.27	1.902
362.62	1.904
362.98	1.877
363.33	1.841
363.69	1.773
364.04	1.813
364.40	1.847
364.75	1.855
365.11	1.886
365.46	1.931
365.82	1.981
366.17	1.976
366.53	2.000
366.88	2.044
367.24	2.075
367.59	2.069
367.95	2.057
368.30	2.005
368.66	1.986
369.01	2.000
369.37	2.006
369.72	1.988
370.08	2.022
370.43	2.021
370.78	1.989
371.14	1.955
371.49	2.025
371.85	2.046
372.20	2.074
372.56	2.072
372.91	2.085
373.26	2.125
373.62	2.082
373.97	2.088
374.33	2.063
374.68	2.091
375.03	2.097
375.39	2.043
375.74	1.986
376.10	1.988
376.45	2.004
376.80	2.007
377.16	1.939
377.51	1.963
377.87	1.974
378.22	1.928
378.57	1.895
378.93	1.945
379.28	1.978
379.63	2.007
379.99	2.055
380.34	2.047
380.70	2.029
381.05	2.110
381.40	2.082
381.76	2.065
382.11	2.141
382.46	2.192
382.82	2.166
383.17	2.162
383.52	2.163
383.88	2.125
384.23	2.145
384.58	2.160
384.94	2.132
385.29	2.189
385.64	2.237
385.99	2.256
386.35	2.228
386.70	2.228
387.05	2.202
387.41	2.217
387.76	2.198
388.11	2.199
388.47	2.178
388.82	2.208
389.17	2.189
389.52	2.147
389.88	2.147
390.23	2.158
390.58	2.154
390.93	2.199
391.29	2.197
391.64	2.233
391.99	2.247
392.34	2.280
392.70	2.273
393.05	2.263
393.40	2.258
393.75	2.227
394.11	2.227
394.46	2.224
394.81	2.225
395.16	2.215
395.52	2.184
395.87	2.175
396.22	2.179
396.57	2.104
396.92	2.095
397.28	2.080
397.63	2.064
397.98	2.075
398.33	2.061
398.68	2.023
399.04	2.018
399.39	2.016
399.74	1.997
400.09	1.968
400.44	1.999
400.80	2.005
401.15	2.002
401.50	2.017
401.85	1.996
402.20	2.020
402.55	2.027
402.90	2.007
403.26	2.026
403.61	1.989
403.96	1.986
404.31	1.985
404.66	1.971
405.01	1.969
405.36	1.975
405.72	1.957
406.07	1.937
406.42	1.925
406.77	1.933
407.12	1.903
407.47	1.943
407.82	1.947
408.17	1.946
408.53	1.959
408.88	1.959
409.23	1.931
409.58	1.924
409.93	1.921
410.28	1.927
410.63	1.914
410.98	1.901
411.33	1.894
411.68	1.917
412.03	1.962
412.38	1.948
412.73	1.991
413.09	2.037
413.44	2.059
413.79	2.082
414.14	2.135
414.49	2.181
414.84	2.234
415.19	2.255
415.54	2.282
415.89	2.283
416.24	2.336
416.59	2.351
416.94	2.359
417.29	2.392
417.64	2.408
417.99	2.416
418.34	2.417
418.69	2.434
419.04	2.446
419.39	2.454
419.74	2.471
420.09	2.483
420.44	2.474
420.79	2.486
421.14	2.488
421.49	2.513
421.84	2.511
422.19	2.523
422.54	2.516
422.89	2.521
423.24	2.515
423.59	2.509
423.94	2.481
424.29	2.491
424.64	2.480
424.99	2.466
425.34	2.420
425.68	2.406
426.03	2.384
426.38	2.374
426.73	2.352
427.08	2.345
427.43	2.342
427.78	2.359
428.13	2.342
428.48	2.350
428.83	2.350
429.18	2.367
429.53	2.362
429.87	2.366
430.22	2.366
430.57	2.383
430.92	2.378
431.27	2.371
431.62	2.357
431.97	2.369
432.32	2.362
432.67	2.353
433.01	2.346
433.36	2.344
433.71	2.345
434.06	2.327
434.41	2.308
434.76	2.321
435.11	2.323
435.45	2.323
435.80	2.332
436.15	2.332
436.50	2.363
436.85	2.376
437.20	2.384
437.54	2.378
437.89	2.397
438.24	2.417
438.59	2.421
438.94	2.420
439.29	2.402
439.63	2.402
439.98	2.403
440.33	2.394
440.68	2.409
441.03	2.418
441.37	2.443
441.72	2.453
442.07	2.455
442.42	2.465
442.76	2.484
443.11	2.524
443.46	2.534
443.81	2.542
444.16	2.560
444.50	2.544
444.85	2.542
445.20	2.525
445.55	2.518
445.89	2.508
446.24	2.474
446.59	2.455
446.94	2.436
447.28	2.403
447.63	2.397
447.98	2.372
448.32	2.373
448.67	2.368
449.02	2.350
449.37	2.328
449.71	2.344
450.06	2.375
450.41	2.366
450.75	2.357
451.10	2.372
451.45	2.334
451.79	2.313
452.14	2.292
452.49	2.290
452.84	2.306
453.18	2.321
453.53	2.297
453.88	2.290
454.22	2.300
454.57	2.316
454.92	2.321
455.26	2.350
455.61	2.393
455.95	2.420
456.30	2.435
456.65	2.451
456.99	2.473
457.34	2.501
457.69	2.515
458.03	2.531
458.38	2.537
458.73	2.539
459.07	2.539
459.42	2.515
459.76	2.492
460.11	2.471
460.46	2.438
460.80	2.402
461.15	2.378
461.49	2.344
461.84	2.335
462.19	2.324
462.53	2.303
462.88	2.302
463.22	2.289
463.57	2.303
463.91	2.301
464.26	2.329
464.61	2.340
464.95	2.328
465.30	2.328
465.64	2.319
465.99	2.318
466.33	2.330
466.68	2.325
467.02	2.332
467.37	2.332
467.71	2.330
468.06	2.332
468.41	2.315
468.75	2.324
469.10	2.327
469.44	2.300
469.79	2.287
470.13	2.260
470.48	2.251
470.82	2.253
471.17	2.233
471.51	2.214
471.86	2.201
472.20	2.204
472.55	2.181
472.89	2.171
473.23	2.180
473.58	2.171
473.92	2.177
474.27	2.183
474.61	2.167
474.96	2.178
475.30	2.186
475.65	2.178
475.99	2.176
476.34	2.175
476.68	2.169
477.02	2.175
477.37	2.205
477.71	2.232
478.06	2.245
478.40	2.318
478.75	2.404
479.09	2.501
479.43	2.602
479.78	2.703
480.12	2.808
480.47	2.919
480.81	3.014
481.15	3.093
481.50	3.182
481.84	3.284
482.19	3.364
482.53	3.431
482.87	3.470
483.22	3.472
483.56	3.439
483.90	3.377
484.25	3.296
484.59	3.215
484.94	3.139
485.28	3.064
485.62	2.978
485.97	2.891
486.31	2.813
486.65	2.760
487.00	2.729
487.34	2.722
487.68	2.734
488.03	2.745
488.37	2.763
488.71	2.769
489.06	2.760
489.40	2.757
489.74	2.744
490.09	2.730
490.43	2.708
490.77	2.689
491.11	2.663
491.46	2.632
491.80	2.609
492.14	2.570
492.49	2.549
492.83	2.520
493.17	2.462
493.51	2.426
493.86	2.378
494.20	2.356
494.54	2.335
494.88	2.345
495.23	2.359
495.57	2.378
495.91	2.396
496.25	2.402
496.60	2.417
496.94	2.433
497.28	2.450
497.62	2.470
497.97	2.464
498.31	2.474
498.65	2.468
498.99	2.459
499.33	2.462
499.68	2.464
500.02	2.480
500.36	2.487
500.70	2.505
501.04	2.504
501.39	2.516
501.73	2.536
502.07	2.574
502.41	2.595
502.75	2.639
503.09	2.673
503.44	2.707
503.78	2.721
504.12	2.751
504.46	2.796
504.80	2.841
505.14	2.904
505.49	2.958
505.83	2.981
506.17	3.031
506.51	3.058
506.85	3.099
507.19	3.146
507.53	3.190
507.87	3.242
508.22	3.271
508.56	3.309
508.90	3.333
509.24	3.353
509.58	3.385
509.92	3.427
510.26	3.481
510.60	3.522
510.94	3.557
511.28	3.590
511.63	3.633
511.97	3.689
512.31	3.743
512.65	3.784
512.99	3.866
513.33	3.971
513.67	4.039
514.01	4.130
514.35	4.211
514.69	4.306
515.03	4.410
515.37	4.499
515.71	4.584
516.05	4.672
516.39	4.746
516.73	4.811
517.07	4.855
517.41	4.913
517.75	4.951
518.09	5.002
518.43	5.035
518.77	5.061
519.11	5.098
519.45	5.123
519.79	5.164
520.13	5.220
520.47	5.283
520.81	5.360
521.15	5.455
521.49	5.543
521.83	5.636
522.17	5.719
522.51	5.835
522.85	5.971
523.19	6.134
523.53	6.289
523.87	6.470
524.21	6.638
524.55	6.780
524.89	6.912
525.23	7.047
525.57	7.157
525.91	7.276
526.25	7.367
526.58	7.444
526.92	7.509
527.26	7.562
527.60	7.578
527.94	7.597
528.28	7.607
528.62	7.610
528.96	7.610
529.30	7.617
529.64	7.604
529.97	7.613
530.31	7.598
530.65	7.607
530.99	7.615
531.33	7.651
531.67	7.672
532.01	7.698
532.35	7.719
532.68	7.723
533.02	7.728
533.36	7.750
533.70	7.749
534.04	7.761
534.38	7.757
534.71	7.756
535.05	7.741
535.39	7.747
535.73	7.757
536.07	7.787
536.41	7.835
536.74	7.883
537.08	7.933
537.42	7.994
537.76	8.050
538.10	8.111
538.43	8.174
538.77	8.243
539.11	8.283
539.45	8.339
539.79	8.377
540.12	8.403
540.46	8.418
540.80	8.418
541.14	8.422
541.47	8.418
541.81	8.406
542.15	8.384
542.49	8.361
542.82	8.346
543.16	8.312
543.50	8.289
543.84	8.272
544.17	8.238
544.51	8.236
544.85	8.222
545.18	8.219
545.52	8.195
545.86	8.173
546.20	8.159
546.53	8.127
546.87	8.106
547.21	8.071
547.54	8.025
547.88	8.032
548.22	7.996
548.55	7.958
548.89	7.934
549.23	7.946
549.56	7.972
549.90	7.979
550.24	7.986
550.57	7.997
550.91	7.998
551.25	8.018
551.58	8.001
551.92	7.995
552.26	7.996
552.59	7.993
552.93	7.983
553.27	7.949
553.60	7.943
553.94	7.929
554.27	7.906
554.61	7.906
554.95	7.873
555.28	7.862
555.62	7.857
555.95	7.859
556.29	7.841
556.63	7.823
556.96	7.820
557.30	7.805
557.63	7.793
557.97	7.765
558.31	7.725
558.64	7.717
558.98	7.704
559.31	7.723
559.65	7.698
559.98	7.683
560.32	7.661
560.65	7.639
560.99	7.611
561.33	7.600
561.66	7.594
562.00	7.608
562.33	7.610
562.67	7.600
563.00	7.557
563.34	7.545
563.67	7.534
564.01	7.523
564.34	7.506
564.68	7.471
565.01	7.463
565.35	7.443
565.68	7.408
566.02	7.348
566.35	7.321
566.69	7.281
567.02	7.260
567.36	7.230
567.69	7.203
568.03	7.186
568.36	7.163
568.69	7.121
569.03	7.084
569.36	7.052
569.70	7.032
570.03	7.008
570.37	6.982
570.70	6.953
571.04	6.916
571.37	6.876
571.70	6.834
572.04	6.791
572.37	6.757
572.71	6.734
573.04	6.706
573.37	6.683
573.71	6.636
574.04	6.599
574.38	6.550
574.71	6.518
575.04	6.486
575.38	6.438
575.71	6.405
576.05	6.348
576.38	6.314
576.71	6.244
577.05	6.203
577.38	6.161
577.71	6.124
578.05	6.062
578.38	5.999
578.71	5.912
579.05	5.880
579.38	5.834
579.71	5.811
580.05	5.727
580.38	5.689
580.71	5.652
581.05	5.627
581.38	5.574
581.71	5.581
582.05	5.571
582.38	5.594
582.71	5.563
583.04	5.554
583.38	5.511
583.71	5.529
584.04	5.530
584.38	5.501
584.71	5.464
585.04	5.486
585.37	5.460
585.71	5.441
586.04	5.413
586.37	5.429
586.70	5.437
587.04	5.466
587.37	5.468
587.70	5.486
588.03	5.493
588.37	5.520
588.70	5.510
589.03	5.506
589.36	5.520
589.69	5.506
590.03	5.474
590.36	5.433
590.69	5.377
591.02	5.363
591.35	5.328
591.69	5.319
592.02	5.298
592.35	5.285
592.68	5.283
593.01	5.254
593.35	5.265
593.68	5.266
594.01	5.266
594.34	5.270
594.67	5.252
595.00	5.229
595.34	5.197
595.67	5.157
596.00	5.116
596.33	5.047
596.66	5.018
596.99	4.961
597.32	4.885
597.65	4.844
597.99	4.806
598.32	4.765
598.65	4.745
598.98	4.717
599.31	4.703
599.64	4.705
599.97	4.719
600.30	4.725
600.63	4.739
600.96	4.771
601.30	4.802
601.63	4.820
601.96	4.818
602.29	4.836
602.62	4.833
602.95	4.829
603.28	4.817
603.61	4.795
603.94	4.765
604.27	4.733
604.60	4.701
604.93	4.648
605.26	4.613
605.59	4.591
605.92	4.547
606.25	4.520
606.58	4.505
606.91	4.460
607.24	4.429
607.57	4.411
607.90	4.413
608.23	4.363
608.56	4.318
608.89	4.257
609.22	4.208
609.55	4.124
609.88	4.053
610.21	3.968
610.54	3.910
610.87	3.872
611.20	3.804
611.53	3.710
611.86	3.684
612.19	3.637
612.52	3.616
612.85	3.579
613.18	3.582
613.51	3.537
613.84	3.497
614.17	3.452
614.49	3.412
614.82	3.377
615.15	3.370
615.48	3.356
615.81	3.333
616.14	3.310
616.47	3.273
616.80	3.222
617.13	3.221
617.46	3.209
617.78	3.212
618.11	3.196
618.44	3.178
618.77	3.118
619.10	3.096
619.43	3.094
619.76	3.086
620.09	3.094
620.41	3.086
620.74	3.079
621.07	3.088
621.40	3.093
621.73	3.101
622.06	3.122
622.38	3.175
622.71	3.182
623.04	3.219
623.37	3.245
623.70	3.271
624.02	3.312
624.35	3.366
624.68	3.381
625.01	3.426
625.34	3.465
625.66	3.468
625.99	3.485
626.32	3.483
626.65	3.489
626.98	3.460
627.30	3.434
627.63	3.406
627.96	3.333
628.29	3.293
628.61	3.227
628.94	3.179
629.27	3.131
629.60	3.057
629.92	3.036
630.25	2.970
630.58	2.967
630.91	2.945
631.23	2.922
631.56	2.922
631.89	2.918
632.21	2.907
632.54	2.865
632.87	2.826
633.19	2.822
633.52	2.815
633.85	2.787
634.18	2.742
634.50	2.711
634.83	2.673
635.16	2.631
635.48	2.575
635.81	2.536
636.14	2.464
636.46	2.451
636.79	2.404
637.11	2.346
637.44	2.300
637.77	2.230
638.09	2.158
638.42	2.138
638.75	2.091
639.07	2.059
639.40	2.012
639.73	2.023
640.05	1.971
640.38	1.952
640.70	1.898
641.03	1.852
641.36	1.859
641.68	1.853
642.01	1.826
642.33	1.823
642.66	1.804
642.98	1.771
643.31	1.736
643.64	1.753
643.96	1.716
644.29	1.708
644.61	1.745
644.94	1.744
645.26	1.737
645.59	1.767
645.91	1.769
646.24	1.790
646.56	1.792
646.89	1.815
647.22	1.799
647.54	1.822
647.87	1.836
648.19	1.768
648.52	1.772
648.84	1.807
649.17	1.730
649.49	1.730
649.82	1.722
650.14	1.739
650.47	1.697
650.79	1.732
651.11	1.687
651.44	1.665
651.76	1.680
652.09	1.682
652.41	1.636
652.74	1.689
653.06	1.653
653.39	1.643
653.71	1.655
654.04	1.674
654.36	1.653
654.68	1.704
655.01	1.740
655.33	1.763
655.66	1.727
655.98	1.752
656.30	1.750
656.63	1.806
656.95	1.821
657.28	1.801
657.60	1.780
657.92	1.756
658.25	1.713
658.57	1.697
658.90	1.657
659.22	1.638
659.54	1.602
659.87	1.560
660.19	1.464
660.51	1.385
660.84	1.289
661.16	1.239
661.48	1.177
661.81	1.150
662.13	1.081
662.45	1.076
662.78	1.039
663.10	1.051
663.42	1.047
663.75	1.043
664.07	1.056
664.39	1.083
664.72	1.092
665.04	1.133
665.36	1.129
665.69	1.149
666.01	1.172
666.33	1.233
666.65	1.197
666.98	1.226
667.30	1.272
667.62	1.268
667.94	1.308
668.27	1.350
668.59	1.364
668.91	1.430
669.23	1.466
669.56	1.504
669.88	1.567
670.20	1.586
670.52	1.616
670.85	1.607
671.17	1.682
671.49	1.745
671.81	1.804
672.13	1.825
672.46	1.838
672.78	1.868
673.10	1.924
673.42	1.919
673.74	2.015
674.07	2.120
674.39	2.282
674.71	2.352
675.03	2.433
675.35	2.555
675.67	2.679
676.00	2.776
676.32	2.849
676.64	2.952
676.96	3.134
677.28	3.235
677.60	3.276
677.92	3.360
678.25	3.435
678.57	3.450
678.89	3.423
679.21	3.456
679.53	3.528
679.85	3.611
680.17	3.643
680.49	3.605
680.81	3.674
681.13	3.687
681.46	3.670
681.78	3.754
682.10	3.877
682.42	3.987
682.74	4.108
683.06	4.180
683.38	4.305
683.70	4.408
684.02	4.538
684.34	4.663
684.66	4.867
684.98	5.007
685.30	5.094
685.62	5.247
685.94	5.381
686.26	5.421
686.58	5.491
686.90	5.524
687.22	5.563
687.54	5.569
687.86	5.518
688.18	5.449
688.50	5.492
688.82	5.499
689.14	5.462
689.46	5.514
689.78	5.545
690.10	5.615
690.42	5.701
690.74	5.804
691.06	5.950
691.38	6.067
691.70	6.204
692.02	6.314
692.34	6.467
692.66	6.635
692.98	6.729
693.30	6.946
693.62	7.121
693.94	7.286
694.26	7.419
694.57	7.608
694.89	7.866
695.21	8.102
695.53	8.342
695.85	8.516
696.17	8.657
696.49	8.865
696.81	9.081
697.13	9.248
697.44	9.403
697.76	9.643
698.08	9.840
698.40	10.013
698.72	10.220
699.04	10.317
699.36	10.590
699.67	10.831
699.99	11.032
700.31	11.285
700.63	11.613
700.95	11.899
701.27	12.106
701.58	12.317
701.90	12.610
702.22	12.862
702.54	13.201
702.86	13.454
703.17	13.790
703.49	14.116
703.81	14.352
704.13	14.534
704.45	14.819
704.76	15.171
705.08	15.431
705.40	15.653
705.72	15.864
706.03	16.121
706.35	16.320
706.67	16.549
706.99	16.784
707.30	17.043
707.62	17.330
707.94	17.667
708.26	17.903
708.57	18.223
708.89	18.526
709.21	18.873
709.53	19.150
709.84	19.498
710.16	19.829
710.48	20.192
710.79	20.468
711.11	20.749
711.43	20.965
711.74	21.252
712.06	21.586
712.38	21.908
712.69	22.145
713.01	22.474
713.33	22.763
713.64	23.087
713.96	23.361
714.28	23.772
714.59	24.224
714.91	24.635
715.23	25.020
715.54	25.267
715.86	25.494
716.17	25.794
716.49	26.144
716.81	26.455
717.12	26.635
717.44	26.942
717.76	27.097
718.07	27.251
718.39	27.446
718.70	27.580
719.02	27.791
719.33	28.048
719.65	28.298
719.97	28.467
720.28	28.581
720.60	28.962
720.91	29.073
721.23	29.463
721.54	29.722
721.86	30.022
722.17	30.340
722.49	30.627
722.81	30.783
723.12	31.076
723.44	31.375
723.75	31.726
724.07	31.910
724.38	32.287
724.70	32.426
725.01	32.554
725.33	32.674
725.64	32.940
725.96	33.147
726.27	33.357
726.59	33.499
726.90	33.711
727.22	33.749
727.53	33.940
727.84	34.115
728.16	34.180
728.47	34.380
728.79	34.575
729.10	34.591
729.42	34.633
729.73	34.847
730.05	35.007
730.36	35.124
730.67	35.348
730.99	35.468
731.30	35.606
731.62	35.828
731.93	35.947
732.24	36.083
732.56	36.239
732.87	36.465
733.19	36.627
733.50	36.652
733.81	36.708
734.13	36.770
734.44	36.816
734.76	36.838
735.07	36.909
735.38	37.047
735.70	37.122
736.01	37.252
736.32	37.456
736.64	37.534
736.95	37.621
737.26	37.603
737.58	37.684
737.89	37.743
738.20	37.706
738.52	37.897
738.83	37.951
739.14	37.920
739.45	38.011
739.77	38.031
740.08	38.055
740.39	38.304
740.71	38.558
741.02	38.702
741.33	38.760
741.64	38.895
741.96	38.848
742.27	38.912
742.58	39.036
742.90	39.099
743.21	39.079
743.52	39.091
743.83	39.041
744.14	38.994
744.46	39.111
744.77	39.246
745.08	39.166
745.39	39.154
745.71	39.148
746.02	39.229
746.33	39.327
746.64	39.329
746.95	39.496
747.27	39.642
747.58	39.741
747.89	39.660
748.20	39.539
748.51	39.634
748.82	39.627
749.14	39.636
749.45	39.647
749.76	39.672
750.07	39.833
750.38	39.753
750.69	39.788
751.01	39.761
751.32	39.884
751.63	40.191
751.94	40.271
752.25	40.266
752.56	40.333
752.87	40.411
753.18	40.149
753.49	40.302
753.81	40.413
754.12	40.356
754.43	40.537
754.74	40.490
755.05	40.419
755.36	40.615
755.67	40.760
755.98	40.957
756.29	41.189
756.60	41.547
756.91	41.483
757.22	41.765
757.53	42.046
757.84	42.276
758.15	42.581
758.46	42.847
758.77	42.975
759.09	43.223
759.40	43.409
759.71	43.386
760.02	43.512
760.33	43.641
760.64	43.660
760.95	43.756
761.26	43.705
761.57	43.743
761.88	43.661
762.18	43.646
762.49	43.608
762.80	43.509
763.11	43.510
763.42	43.416
763.73	43.384
764.04	43.248
764.35	43.050
764.66	42.832
764.97	42.508
765.28	42.311
765.59	42.187
765.90	41.954
766.21	41.765
766.52	41.442
766.83	41.291
767.14	41.077
767.44	40.741
767.75	40.522
768.06	40.413
768.37	40.357
768.68	40.508
768.99	40.368
769.30	40.350
769.61	40.095
769.91	40.189
770.22	40.018
770.53	39.951
770.84	40.186
771.15	40.079
771.46	39.959
771.77	39.933
772.07	39.711
772.38	39.821
772.69	39.681
773.00	39.926
773.31	39.950
773.61	39.873
773.92	39.702
774.23	39.526
774.54	39.613
774.85	39.630
775.15	39.762
775.46	39.542
775.77	39.314
776.08	39.455
776.39	38.989
776.69	39.045
777.00	39.131
777.31	39.207
777.62	39.187
777.92	39.113
778.23	39.491
778.54	39.331
778.85	39.580
779.15	39.496
779.46	39.528
779.77	39.901
780.07	39.808
780.38	39.908
780.69	40.105
781.00	40.201
781.30	40.175
781.61	39.768
781.92	39.788
782.22	39.737
782.53	39.655
782.84	39.705
783.14	39.777
783.45	39.736
783.76	39.969
784.06	40.081
784.37	40.078
784.68	40.366
784.98	40.653
785.29	40.735
785.60	41.203
785.90	41.443
786.21	41.444
786.51	41.552
786.82	41.890
787.13	41.932
787.43	41.683
787.74	41.936
788.04	42.006
788.35	42.214
788.66	42.601
788.96	42.241
789.27	42.263
789.57	42.221
789.88	42.126
790.19	41.894
790.49	41.696
790.80	41.780
791.10	41.782
791.41	41.768
791.71	41.696
792.02	41.400
792.32	41.504
792.63	41.537
792.93	41.884
793.24	41.935
793.54	42.046
793.85	42.027
794.15	42.173
794.46	42.069
794.76	41.956
795.07	41.741
795.37	41.732
795.68	41.556
795.98	41.713
796.29	41.742
796.59	42.037
796.90	41.817
797.20	41.789
797.51	41.677
797.81	41.475
798.12	41.506
798.42	41.474
798.72	41.701
799.03	42.088
799.33	42.181
799.64	41.783
799.94	41.572
800.25	41.821
800.55	42.168
800.85	42.433
801.16	42.726
801.46	42.548
801.77	42.696
802.07	42.642
802.37	42.454
802.68	42.008
802.98	42.125
803.28	41.803
803.59	42.176
803.89	42.121
804.20	41.899
804.50	41.710
804.80	42.221
805.11	42.600
805.41	42.740
805.71	42.763
806.02	42.994
806.32	42.959
806.62	43.625
806.93	43.767
807.23	43.725
807.53	43.985
807.83	44.284
808.14	44.243
808.44	43.859
808.74	43.306
809.05	43.200
809.35	43.310
809.65	43.749
809.95	43.490
810.26	42.761
810.56	42.805
810.86	42.497
811.16	42.403
811.47	42.947
811.77	43.523
812.07	43.784
812.37	44.150
812.68	44.531
812.98	44.369
813.28	44.929
813.58	45.798
813.88	45.856
814.19	46.479
814.49	46.899
814.79	46.953
815.09	47.349
815.39	47.515
815.70	47.734
816.00	47.344
816.30	47.360
816.60	47.095
816.90	46.789
817.20	46.941
817.50	46.838
817.81	46.500
818.11	46.208
818.41	45.932
818.71	45.975
819.01	45.991
819.31	46.222
819.61	46.372
819.92	46.583
820.22	46.757
820.52	46.791
820.82	46.974
821.12	47.280
821.42	47.462
821.72	47.652
822.02	47.860
822.32	48.155
822.62	48.426
822.92	48.565
823.22	48.748
823.52	48.943
823.83	49.111
824.13	49.153
824.43	49.034
824.73	49.121
825.03	49.005
825.33	49.081
825.63	48.926
825.93	48.748
826.23	48.813
826.53	48.669
826.83	48.451
827.13	48.605
827.43	48.782
827.73	49.003
828.03	49.162
828.33	49.510
828.63	49.527
828.93	49.658
829.23	49.531
829.53	49.241
829.83	49.203
830.13	48.993
830.42	48.692
830.72	48.163
831.02	47.985
831.32	47.657
831.62	47.643
831.92	47.675
832.22	47.580
832.52	47.420
832.82	47.827
833.12	47.764
833.42	48.001
833.72	47.988
834.01	48.287
834.31	48.273
834.61	48.524
834.91	48.932
835.21	48.943
835.51	49.019
835.81	49.234
836.11	49.126
836.40	49.367
836.70	49.398
837.00	49.548
837.30	49.321
837.60	49.486
837.90	49.402
838.19	48.542
838.49	48.553
838.79	48.502
839.09	48.876
839.39	48.591
839.68	48.348
839.98	47.985
840.28	47.870
840.58	47.707
840.88	47.761
841.17	47.244
841.47	47.695
841.77	47.699
842.07	47.682
842.36	47.149
842.66	46.547
842.96	45.000
843.26	43.875
843.55	43.588
843.85	43.652
844.15	43.892
844.45	42.762
844.74	42.681
845.04	41.644
845.34	41.292
845.63	40.866
845.93	41.724
846.23	43.901
846.53	45.309
846.82	44.504
847.12	44.154
847.42	43.024
847.71	43.263
848.01	41.653
848.31	42.573
848.60	41.887
848.90	43.059
849.19	42.713
849.49	40.742
849.79	40.017
850.08	41.034
850.38	41.136
850.68	41.846
850.97	42.914
851.27	43.539
851.56	43.212
851.86	43.526
852.16	41.631
852.45	41.420
852.75	43.499
853.04	45.201
853.34	44.554
853.64	43.564
853.93	41.564
854.23	42.843
854.52	44.535
854.82	45.502
855.11	45.097
855.41	46.209
855.70	46.360
856.00	44.473
856.30	44.126
856.59	44.733
856.89	46.430
857.18	49.691
857.48	49.303
857.77	48.767
858.07	47.761
858.36	46.377
858.66	45.838
858.95	45.488
859.25	48.042
859.54	48.513
859.84	48.054
860.13	46.447
860.42	43.782
860.72	41.565
861.01	42.133
861.31	43.764
861.60	45.643
861.90	47.325
862.19	46.714
862.49	44.668
862.78	43.754
863.07	44.777
863.37	46.399
863.66	47.367
863.96	50.395
864.25	49.045
864.54	48.464
864.84	49.198
865.13	48.139
865.43	49.128
865.72	48.164
866.01	56.876
866.31	55.138
866.60	43.422
866.89	45.846
>>>>>End Spectral Data<<<<<
