OOIBase32 Version 2.0.0.6 Data File
++++++++++++++++++++++++++++++++++++
Date: 01-23-2012, 23:16:25
User: Valued Ocean Optics Customer
Spectrometer Serial Number: USB2E2917
Spectrometer Channel: Master
Integration Time (msec): 5
Spectra Averaged: 10
Boxcar Smoothing: 5
Correct for Electrical Dark: Enabled
Time Normalized: Disabled
Dual-beam Reference: Disabled
Reference Channel: Master
Temperature: Not acquired
Spectrometer Type: S2000
ADC Type: USB2000
Number of Pixels in File: 2048
Graph Title: 
>>>>>Begin Spectral Data<<<<<
180.30	0.000
180.67	0.000
181.03	63.594
181.40	746.446
181.77	5526.453
182.14	54.311
182.51	-290.208
182.88	-145.930
183.25	122.545
183.62	100.882
183.99	91.527
184.36	30.114
184.73	243.187
185.10	83.315
185.46	393.881
185.83	637.977
186.20	-57.203
186.57	87.913
186.94	104.533
187.31	27.938
187.68	-4.369
188.05	-12.046
188.42	-32.110
188.78	-106.637
189.15	-36.508
189.52	43.021
189.89	15.360
190.26	17.080
190.63	26.205
191.00	26.426
191.37	29.240
191.73	33.076
192.10	26.088
192.47	21.839
192.84	11.428
193.21	23.758
193.58	28.683
193.94	32.088
194.31	33.083
194.68	30.767
195.05	25.249
195.42	37.306
195.79	31.030
196.15	47.873
196.52	51.334
196.89	73.717
197.26	46.882
197.63	32.804
198.00	35.075
198.36	35.803
198.73	26.866
199.10	24.490
199.47	14.900
199.84	19.556
200.20	8.427
200.57	15.734
200.94	6.547
201.31	14.979
201.68	4.780
202.04	-4.144
202.41	-11.267
202.78	-15.961
203.15	-19.826
203.51	-22.042
203.88	-38.446
204.25	-47.585
204.62	-60.952
204.98	-72.884
205.35	-72.371
205.72	-66.170
206.09	-38.952
206.46	-74.761
206.82	-54.325
207.19	-62.417
207.56	-123.879
207.92	-79.770
208.29	-57.805
208.66	-33.073
209.03	-27.713
209.39	-10.914
209.76	-18.571
210.13	-91.213
210.50	-59.866
210.86	-59.539
211.23	-72.132
211.60	-42.893
211.96	-46.833
212.33	-41.769
212.70	-49.137
213.07	-41.116
213.43	-65.306
213.80	-68.309
214.17	-24.952
214.53	-19.738
214.90	-11.035
215.27	-2.789
215.63	-5.381
216.00	-5.761
216.37	-8.287
216.74	-19.629
217.10	-18.845
217.47	-22.891
217.84	-12.466
218.20	-12.702
218.57	-10.505
218.94	-12.436
219.30	-16.704
219.67	-22.102
220.04	-19.321
220.40	-20.662
220.77	-21.722
221.13	-17.285
221.50	-10.145
221.87	-8.750
222.23	-8.568
222.60	-14.147
222.97	-16.992
223.33	-14.348
223.70	-10.712
224.07	-12.403
224.43	-11.792
224.80	-7.201
225.16	-8.910
225.53	-9.137
225.90	-11.194
226.26	-8.763
226.63	-7.010
226.99	-5.760
227.36	-3.329
227.73	-0.777
228.09	0.213
228.46	2.530
228.82	3.559
229.19	4.277
229.56	5.071
229.92	6.588
230.29	6.467
230.65	7.718
231.02	6.901
231.38	3.587
231.75	0.060
232.12	-1.649
232.48	-4.593
232.85	-7.345
233.21	-8.605
233.58	-10.194
233.94	-9.462
234.31	-9.924
234.68	-10.252
235.04	-9.965
235.41	-7.785
235.77	-4.988
236.14	-4.553
236.50	-2.492
236.87	-1.067
237.23	0.238
237.60	-0.737
237.96	-1.644
238.33	-2.087
238.69	-2.196
239.06	-1.874
239.42	-1.706
239.79	-2.373
240.15	-1.894
240.52	-1.569
240.88	-1.366
241.25	-1.795
241.61	-0.559
241.98	-0.247
242.34	-0.081
242.71	0.312
243.07	0.554
243.44	0.535
243.80	0.929
244.17	0.873
244.53	0.394
244.90	0.308
245.26	0.571
245.63	0.259
245.99	0.271
246.36	0.254
246.72	0.185
247.09	0.024
247.45	-0.004
247.81	0.138
248.18	-0.089
248.54	0.099
248.91	-0.099
249.27	0.031
249.64	0.076
250.00	0.161
250.36	0.038
250.73	-0.282
251.09	-0.099
251.46	-0.152
251.82	-0.740
252.19	-0.583
252.55	-0.542
252.91	-0.374
253.28	-0.637
253.64	-0.932
254.01	-0.883
254.37	-0.403
254.73	0.453
255.10	0.791
255.46	1.136
255.83	1.146
256.19	1.237
256.55	1.092
256.92	1.202
257.28	1.056
257.65	1.282
258.01	1.319
258.37	1.258
258.74	0.958
259.10	0.764
259.46	0.687
259.83	0.769
260.19	0.736
260.55	0.705
260.92	0.612
261.28	0.669
261.64	0.696
262.01	0.550
262.37	0.605
262.73	0.486
263.10	0.526
263.46	0.416
263.82	0.268
264.19	0.298
264.55	0.041
264.91	0.073
265.28	0.205
265.64	0.070
266.00	0.168
266.37	0.266
266.73	0.485
267.09	0.548
267.46	0.578
267.82	0.533
268.18	0.626
268.54	0.862
268.91	0.794
269.27	0.655
269.63	0.772
270.00	0.783
270.36	0.654
270.72	0.892
271.08	0.835
271.45	0.697
271.81	0.762
272.17	0.527
272.53	0.472
272.90	0.513
273.26	0.780
273.62	0.640
273.98	0.516
274.35	0.412
274.71	0.058
275.07	0.073
275.43	0.240
275.80	0.371
276.16	0.447
276.52	0.407
276.88	0.187
277.25	-0.321
277.61	-0.458
277.97	-0.572
278.33	-0.553
278.69	-0.605
279.06	-0.537
279.42	-0.433
279.78	-0.402
280.14	-0.103
280.50	0.114
280.87	0.373
281.23	0.542
281.59	0.625
281.95	0.768
282.31	0.934
282.68	0.818
283.04	0.580
283.40	0.600
283.76	0.589
284.12	0.547
284.48	0.610
284.85	0.755
285.21	0.862
285.57	0.870
285.93	0.939
286.29	0.744
286.65	0.957
287.02	1.388
287.38	1.242
287.74	1.117
288.10	1.030
288.46	0.801
288.82	0.590
289.18	0.640
289.54	0.721
289.91	0.738
290.27	0.849
290.63	0.978
290.99	0.790
291.35	1.030
291.71	1.208
292.07	1.120
292.43	1.197
292.79	1.264
293.16	1.242
293.52	1.376
293.88	1.306
294.24	1.309
294.60	1.240
294.96	1.216
295.32	1.096
295.68	1.107
296.04	1.176
296.40	1.183
296.76	1.214
297.12	1.136
297.49	0.954
297.85	0.801
298.21	0.813
298.57	0.602
298.93	0.548
299.29	0.554
299.65	0.575
300.01	0.513
300.37	0.516
300.73	0.480
301.09	0.407
301.45	0.546
301.81	0.818
302.17	0.842
302.53	0.907
302.89	0.878
303.25	0.886
303.61	0.822
303.97	0.861
304.33	0.879
304.69	0.891
305.05	0.911
305.41	0.803
305.77	0.674
306.13	0.582
306.49	0.637
306.85	0.799
307.21	0.774
307.57	0.797
307.93	0.754
308.29	0.833
308.65	0.878
309.01	0.927
309.37	0.941
309.73	0.893
310.09	1.035
310.45	1.140
310.81	1.081
311.17	1.043
311.53	0.998
311.89	1.128
312.25	1.116
312.61	1.060
312.96	1.085
313.32	1.105
313.68	1.187
314.04	1.109
314.40	1.114
314.76	1.017
315.12	1.028
315.48	1.075
315.84	0.967
316.20	0.901
316.56	0.950
316.92	0.898
317.27	0.837
317.63	0.891
317.99	0.856
318.35	0.719
318.71	0.835
319.07	0.918
319.43	0.853
319.79	0.968
320.15	0.903
320.50	0.816
320.86	0.825
321.22	0.846
321.58	0.726
321.94	0.716
322.30	0.787
322.66	0.709
323.01	0.689
323.37	0.638
323.73	0.567
324.09	0.483
324.45	0.517
324.81	0.445
325.17	0.464
325.52	0.480
325.88	0.416
326.24	0.385
326.60	0.375
326.96	0.350
327.31	0.356
327.67	0.261
328.03	0.335
328.39	0.272
328.75	0.389
329.11	0.447
329.46	0.482
329.82	0.554
330.18	0.550
330.54	0.522
330.90	0.522
331.25	0.555
331.61	0.704
331.97	0.754
332.33	0.887
332.68	0.815
333.04	0.780
333.40	0.678
333.76	0.691
334.11	0.657
334.47	0.708
334.83	0.685
335.19	0.624
335.54	0.565
335.90	0.534
336.26	0.449
336.62	0.423
336.97	0.368
337.33	0.393
337.69	0.387
338.05	0.353
338.40	0.361
338.76	0.348
339.12	0.453
339.48	0.342
339.83	0.322
340.19	0.301
340.55	0.381
340.90	0.329
341.26	0.276
341.62	0.215
341.97	0.222
342.33	0.272
342.69	0.267
343.04	0.212
343.40	0.203
343.76	0.194
344.12	0.197
344.47	0.187
344.83	0.223
345.19	0.319
345.54	0.447
345.90	0.508
346.26	0.487
346.61	0.540
346.97	0.505
347.32	0.604
347.68	0.605
348.04	0.598
348.39	0.533
348.75	0.537
349.11	0.483
349.46	0.414
349.82	0.412
350.18	0.392
350.53	0.417
350.89	0.497
351.24	0.458
351.60	0.488
351.96	0.512
352.31	0.533
352.67	0.578
353.02	0.620
353.38	0.614
353.74	0.613
354.09	0.576
354.45	0.519
354.80	0.492
355.16	0.537
355.52	0.540
355.87	0.499
356.23	0.539
356.58	0.537
356.94	0.578
357.29	0.578
357.65	0.561
358.00	0.581
358.36	0.565
358.72	0.526
359.07	0.546
359.43	0.540
359.78	0.571
360.14	0.560
360.49	0.536
360.85	0.503
361.20	0.526
361.56	0.535
361.91	0.512
362.27	0.527
362.62	0.548
362.98	0.521
363.33	0.517
363.69	0.519
364.04	0.563
364.40	0.557
364.75	0.550
365.11	0.508
365.46	0.500
365.82	0.552
366.17	0.526
366.53	0.527
366.88	0.522
367.24	0.546
367.59	0.543
367.95	0.523
368.30	0.544
368.66	0.563
369.01	0.557
369.37	0.573
369.72	0.617
370.08	0.695
370.43	0.719
370.78	0.709
371.14	0.674
371.49	0.667
371.85	0.669
372.20	0.686
372.56	0.683
372.91	0.698
373.26	0.693
373.62	0.630
373.97	0.635
374.33	0.610
374.68	0.628
375.03	0.643
375.39	0.624
375.74	0.623
376.10	0.613
376.45	0.631
376.80	0.653
377.16	0.659
377.51	0.691
377.87	0.698
378.22	0.690
378.57	0.711
378.93	0.802
379.28	0.882
379.63	0.879
379.99	0.908
380.34	0.915
380.70	0.956
381.05	1.027
381.40	1.030
381.76	1.019
382.11	1.037
382.46	1.055
382.82	1.001
383.17	0.977
383.52	0.986
383.88	0.970
384.23	0.962
384.58	0.933
384.94	0.912
385.29	0.921
385.64	0.977
385.99	1.061
386.35	1.060
386.70	1.067
387.05	1.048
387.41	1.065
387.76	1.046
388.11	1.045
388.47	1.060
388.82	1.042
389.17	1.026
389.52	1.004
389.88	1.003
390.23	0.998
390.58	1.020
390.93	1.069
391.29	1.054
391.64	1.102
391.99	1.156
392.34	1.171
392.70	1.154
393.05	1.146
393.40	1.135
393.75	1.091
394.11	1.083
394.46	1.039
394.81	1.018
395.16	0.997
395.52	0.987
395.87	0.955
396.22	0.971
396.57	0.978
396.92	0.992
397.28	0.969
397.63	0.961
397.98	0.961
398.33	0.965
398.68	0.948
399.04	0.978
399.39	0.945
399.74	0.936
400.09	0.896
400.44	0.899
400.80	0.909
401.15	0.935
401.50	0.944
401.85	0.954
402.20	0.975
402.55	1.006
402.90	0.983
403.26	0.996
403.61	0.992
403.96	1.010
404.31	0.995
404.66	1.012
405.01	0.975
405.36	0.978
405.72	0.974
406.07	0.966
406.42	0.929
406.77	0.945
407.12	0.947
407.47	0.949
407.82	0.916
408.17	0.924
408.53	0.899
408.88	0.915
409.23	0.900
409.58	0.872
409.93	0.900
410.28	0.925
410.63	0.896
410.98	0.914
411.33	0.956
411.68	0.990
412.03	1.038
412.38	1.030
412.73	1.043
413.09	1.078
413.44	1.111
413.79	1.121
414.14	1.154
414.49	1.210
414.84	1.235
415.19	1.232
415.54	1.267
415.89	1.270
416.24	1.317
416.59	1.357
416.94	1.375
417.29	1.406
417.64	1.413
417.99	1.427
418.34	1.437
418.69	1.451
419.04	1.468
419.39	1.482
419.74	1.495
420.09	1.506
420.44	1.502
420.79	1.503
421.14	1.514
421.49	1.524
421.84	1.519
422.19	1.534
422.54	1.522
422.89	1.520
423.24	1.503
423.59	1.486
423.94	1.460
424.29	1.445
424.64	1.441
424.99	1.424
425.34	1.403
425.68	1.384
426.03	1.347
426.38	1.346
426.73	1.329
427.08	1.326
427.43	1.338
427.78	1.364
428.13	1.366
428.48	1.375
428.83	1.380
429.18	1.390
429.53	1.398
429.87	1.398
430.22	1.385
430.57	1.389
430.92	1.377
431.27	1.384
431.62	1.362
431.97	1.365
432.32	1.354
432.67	1.351
433.01	1.335
433.36	1.314
433.71	1.303
434.06	1.296
434.41	1.286
434.76	1.306
435.11	1.297
435.45	1.312
435.80	1.313
436.15	1.319
436.50	1.315
436.85	1.335
437.20	1.341
437.54	1.343
437.89	1.360
438.24	1.372
438.59	1.370
438.94	1.363
439.29	1.338
439.63	1.343
439.98	1.338
440.33	1.337
440.68	1.338
441.03	1.349
441.37	1.371
441.72	1.377
442.07	1.378
442.42	1.398
442.76	1.424
443.11	1.452
443.46	1.466
443.81	1.478
444.16	1.483
444.50	1.490
444.85	1.496
445.20	1.486
445.55	1.481
445.89	1.479
446.24	1.441
446.59	1.402
446.94	1.378
447.28	1.353
447.63	1.335
447.98	1.330
448.32	1.312
448.67	1.287
449.02	1.272
449.37	1.245
449.71	1.242
450.06	1.252
450.41	1.282
450.75	1.288
451.10	1.290
451.45	1.258
451.79	1.229
452.14	1.209
452.49	1.219
452.84	1.216
453.18	1.214
453.53	1.197
453.88	1.200
454.22	1.178
454.57	1.195
454.92	1.199
455.26	1.237
455.61	1.287
455.95	1.321
456.30	1.333
456.65	1.363
456.99	1.399
457.34	1.436
457.69	1.447
458.03	1.466
458.38	1.472
458.73	1.478
459.07	1.477
459.42	1.447
459.76	1.419
460.11	1.393
460.46	1.354
460.80	1.322
461.15	1.285
461.49	1.262
461.84	1.244
462.19	1.213
462.53	1.195
462.88	1.186
463.22	1.179
463.57	1.183
463.91	1.178
464.26	1.199
464.61	1.198
464.95	1.187
465.30	1.187
465.64	1.192
465.99	1.204
466.33	1.222
466.68	1.222
467.02	1.235
467.37	1.226
467.71	1.216
468.06	1.206
468.41	1.201
468.75	1.204
469.10	1.195
469.44	1.163
469.79	1.133
470.13	1.089
470.48	1.052
470.82	1.027
471.17	1.034
471.51	1.021
471.86	1.001
472.20	0.993
472.55	0.981
472.89	0.978
473.23	0.982
473.58	0.988
473.92	0.988
474.27	1.012
474.61	1.001
474.96	0.996
475.30	1.014
475.65	1.010
475.99	1.008
476.34	1.011
476.68	0.996
477.02	1.015
477.37	1.014
477.71	1.051
478.06	1.074
478.40	1.149
478.75	1.221
479.09	1.308
479.43	1.404
479.78	1.492
480.12	1.584
480.47	1.672
480.81	1.747
481.15	1.822
481.50	1.889
481.84	1.963
482.19	2.022
482.53	2.077
482.87	2.110
483.22	2.117
483.56	2.095
483.90	2.047
484.25	1.998
484.59	1.944
484.94	1.895
485.28	1.842
485.62	1.777
485.97	1.719
486.31	1.663
486.65	1.619
487.00	1.594
487.34	1.584
487.68	1.593
488.03	1.594
488.37	1.597
488.71	1.593
489.06	1.586
489.40	1.595
489.74	1.575
490.09	1.559
490.43	1.536
490.77	1.502
491.11	1.476
491.46	1.444
491.80	1.414
492.14	1.375
492.49	1.353
492.83	1.318
493.17	1.260
493.51	1.222
493.86	1.190
494.20	1.170
494.54	1.163
494.88	1.173
495.23	1.181
495.57	1.202
495.91	1.224
496.25	1.231
496.60	1.242
496.94	1.245
497.28	1.265
497.62	1.270
497.97	1.272
498.31	1.284
498.65	1.274
498.99	1.275
499.33	1.286
499.68	1.298
500.02	1.302
500.36	1.316
500.70	1.340
501.04	1.345
501.39	1.357
501.73	1.380
502.07	1.406
502.41	1.444
502.75	1.483
503.09	1.517
503.44	1.553
503.78	1.585
504.12	1.619
504.46	1.662
504.80	1.717
505.14	1.773
505.49	1.834
505.83	1.889
506.17	1.940
506.51	1.983
506.85	2.022
507.19	2.067
507.53	2.118
507.87	2.177
508.22	2.231
508.56	2.271
508.90	2.305
509.24	2.344
509.58	2.379
509.92	2.421
510.26	2.463
510.60	2.503
510.94	2.540
511.28	2.569
511.63	2.606
511.97	2.647
512.31	2.707
512.65	2.771
512.99	2.827
513.33	2.929
513.67	3.025
514.01	3.128
514.35	3.232
514.69	3.330
515.03	3.449
515.37	3.548
515.71	3.642
516.05	3.726
516.39	3.806
516.73	3.904
517.07	3.963
517.41	4.018
517.75	4.068
518.09	4.118
518.43	4.169
518.77	4.208
519.11	4.254
519.45	4.298
519.79	4.362
520.13	4.426
520.47	4.487
520.81	4.575
521.15	4.668
521.49	4.765
521.83	4.872
522.17	4.963
522.51	5.089
522.85	5.236
523.19	5.402
523.53	5.586
523.87	5.778
524.21	5.947
524.55	6.099
524.89	6.236
525.23	6.381
525.57	6.493
525.91	6.623
526.25	6.724
526.58	6.808
526.92	6.885
527.26	6.922
527.60	6.949
527.94	6.981
528.28	7.003
528.62	7.027
528.96	7.037
529.30	7.064
529.64	7.068
529.97	7.081
530.31	7.090
530.65	7.098
530.99	7.125
531.33	7.163
531.67	7.192
532.01	7.230
532.35	7.249
532.68	7.266
533.02	7.267
533.36	7.275
533.70	7.281
534.04	7.294
534.38	7.306
534.71	7.316
535.05	7.315
535.39	7.324
535.73	7.327
536.07	7.367
536.41	7.392
536.74	7.448
537.08	7.495
537.42	7.568
537.76	7.629
538.10	7.691
538.43	7.772
538.77	7.855
539.11	7.912
539.45	7.960
539.79	8.013
540.12	8.068
540.46	8.086
540.80	8.103
541.14	8.102
541.47	8.090
541.81	8.082
542.15	8.050
542.49	8.005
542.82	7.977
543.16	7.960
543.50	7.929
543.84	7.886
544.17	7.857
544.51	7.851
544.85	7.834
545.18	7.834
545.52	7.822
545.86	7.822
546.20	7.823
546.53	7.810
546.87	7.776
547.21	7.745
547.54	7.717
547.88	7.732
548.22	7.730
548.55	7.707
548.89	7.701
549.23	7.708
549.56	7.698
549.90	7.726
550.24	7.737
550.57	7.762
550.91	7.751
551.25	7.771
551.58	7.753
551.92	7.734
552.26	7.741
552.59	7.732
552.93	7.711
553.27	7.717
553.60	7.675
553.94	7.652
554.27	7.622
554.61	7.631
554.95	7.622
555.28	7.610
555.62	7.585
555.95	7.585
556.29	7.574
556.63	7.560
556.96	7.536
557.30	7.548
557.63	7.544
557.97	7.529
558.31	7.479
558.64	7.458
558.98	7.455
559.31	7.478
559.65	7.449
559.98	7.440
560.32	7.426
560.65	7.394
560.99	7.363
561.33	7.332
561.66	7.304
562.00	7.316
562.33	7.303
562.67	7.282
563.00	7.232
563.34	7.222
563.67	7.204
564.01	7.174
564.34	7.160
564.68	7.128
565.01	7.117
565.35	7.098
565.68	7.052
566.02	7.005
566.35	6.961
566.69	6.906
567.02	6.861
567.36	6.801
567.69	6.781
568.03	6.762
568.36	6.721
568.69	6.675
569.03	6.655
569.36	6.637
569.70	6.598
570.03	6.580
570.37	6.570
570.70	6.541
571.04	6.516
571.37	6.472
571.70	6.409
572.04	6.377
572.37	6.332
572.71	6.266
573.04	6.223
573.37	6.197
573.71	6.146
574.04	6.093
574.38	6.029
574.71	5.982
575.04	5.916
575.38	5.881
575.71	5.812
576.05	5.766
576.38	5.752
576.71	5.667
577.05	5.605
577.38	5.540
577.71	5.488
578.05	5.439
578.38	5.383
578.71	5.339
579.05	5.283
579.38	5.240
579.71	5.191
580.05	5.114
580.38	5.090
580.71	5.038
581.05	5.017
581.38	4.988
581.71	4.973
582.05	4.950
582.38	4.935
582.71	4.915
583.04	4.899
583.38	4.862
583.71	4.856
584.04	4.838
584.38	4.829
584.71	4.815
585.04	4.828
585.37	4.803
585.71	4.792
586.04	4.778
586.37	4.779
586.70	4.793
587.04	4.783
587.37	4.785
587.70	4.784
588.03	4.801
588.37	4.793
588.70	4.773
589.03	4.789
589.36	4.788
589.69	4.762
590.03	4.737
590.36	4.707
590.69	4.704
591.02	4.662
591.35	4.641
591.69	4.602
592.02	4.584
592.35	4.566
592.68	4.544
593.01	4.513
593.35	4.531
593.68	4.515
594.01	4.506
594.34	4.495
594.67	4.493
595.00	4.475
595.34	4.438
595.67	4.404
596.00	4.387
596.33	4.332
596.66	4.279
596.99	4.216
597.32	4.178
597.65	4.140
597.99	4.104
598.32	4.059
598.65	4.023
598.98	4.007
599.31	4.000
599.64	3.965
599.97	3.967
600.30	3.998
600.63	4.004
600.96	4.010
601.30	4.020
601.63	4.036
601.96	4.039
602.29	4.043
602.62	4.042
602.95	4.025
603.28	4.013
603.61	3.981
603.94	3.943
604.27	3.922
604.60	3.884
604.93	3.839
605.26	3.781
605.59	3.749
605.92	3.724
606.25	3.698
606.58	3.680
606.91	3.619
607.24	3.621
607.57	3.594
607.90	3.560
608.23	3.510
608.56	3.470
608.89	3.414
609.22	3.371
609.55	3.305
609.88	3.232
610.21	3.152
610.54	3.112
610.87	3.031
611.20	2.956
611.53	2.917
611.86	2.873
612.19	2.799
612.52	2.766
612.85	2.735
613.18	2.697
613.51	2.640
613.84	2.611
614.17	2.572
614.49	2.547
614.82	2.513
615.15	2.448
615.48	2.447
615.81	2.430
616.14	2.421
616.47	2.382
616.80	2.319
617.13	2.309
617.46	2.257
617.78	2.226
618.11	2.193
618.44	2.171
618.77	2.140
619.10	2.095
619.43	2.080
619.76	2.052
620.09	2.015
620.41	2.024
620.74	2.018
621.07	2.037
621.40	2.073
621.73	2.076
622.06	2.124
622.38	2.130
622.71	2.147
623.04	2.183
623.37	2.210
623.70	2.233
624.02	2.268
624.35	2.327
624.68	2.362
625.01	2.374
625.34	2.401
625.66	2.397
625.99	2.449
626.32	2.454
626.65	2.425
626.98	2.423
627.30	2.444
627.63	2.432
627.96	2.343
628.29	2.280
628.61	2.238
628.94	2.195
629.27	2.144
629.60	2.071
629.92	2.029
630.25	2.014
630.58	1.978
630.91	1.935
631.23	1.902
631.56	1.927
631.89	1.910
632.21	1.888
632.54	1.851
632.87	1.825
633.19	1.784
633.52	1.753
633.85	1.737
634.18	1.674
634.50	1.607
634.83	1.566
635.16	1.492
635.48	1.430
635.81	1.364
636.14	1.325
636.46	1.273
636.79	1.225
637.11	1.166
637.44	1.052
637.77	1.016
638.09	0.965
638.42	0.905
638.75	0.872
639.07	0.829
639.40	0.776
639.73	0.711
640.05	0.654
640.38	0.650
640.70	0.568
641.03	0.569
641.36	0.554
641.68	0.508
642.01	0.478
642.33	0.459
642.66	0.417
642.98	0.393
643.31	0.371
643.64	0.368
643.96	0.333
644.29	0.351
644.61	0.357
644.94	0.326
645.26	0.350
645.59	0.361
645.91	0.353
646.24	0.380
646.56	0.428
646.89	0.431
647.22	0.396
647.54	0.394
647.87	0.430
648.19	0.391
648.52	0.392
648.84	0.369
649.17	0.332
649.49	0.298
649.82	0.310
650.14	0.262
650.47	0.239
650.79	0.255
651.11	0.258
651.44	0.225
651.76	0.231
652.09	0.254
652.41	0.297
652.74	0.327
653.06	0.360
653.39	0.359
653.71	0.369
654.04	0.368
654.36	0.423
654.68	0.429
655.01	0.492
655.33	0.532
655.66	0.519
655.98	0.515
656.30	0.490
656.63	0.515
656.95	0.550
657.28	0.560
657.60	0.570
657.92	0.532
658.25	0.511
658.57	0.456
658.90	0.415
659.22	0.386
659.54	0.362
659.87	0.366
660.19	0.301
660.51	0.229
660.84	0.179
661.16	0.142
661.48	0.124
661.81	0.142
662.13	0.130
662.45	0.117
662.78	0.118
663.10	0.115
663.42	0.127
663.75	0.188
664.07	0.192
664.39	0.187
664.72	0.227
665.04	0.268
665.36	0.282
665.69	0.341
666.01	0.432
666.33	0.495
666.65	0.520
666.98	0.587
667.30	0.632
667.62	0.704
667.94	0.777
668.27	0.863
668.59	0.923
668.91	0.994
669.23	1.065
669.56	1.098
669.88	1.185
670.20	1.267
670.52	1.327
670.85	1.388
671.17	1.477
671.49	1.601
671.81	1.732
672.13	1.799
672.46	1.933
672.78	2.054
673.10	2.207
673.42	2.308
673.74	2.437
674.07	2.554
674.39	2.723
674.71	2.837
675.03	2.992
675.35	3.120
675.67	3.303
676.00	3.405
676.32	3.476
676.64	3.572
676.96	3.710
677.28	3.820
677.60	3.939
677.92	4.023
678.25	4.158
678.57	4.246
678.89	4.288
679.21	4.370
679.53	4.463
679.85	4.560
680.17	4.657
680.49	4.760
680.81	4.891
681.13	4.977
681.46	5.084
681.78	5.219
682.10	5.348
682.42	5.473
682.74	5.628
683.06	5.749
683.38	5.969
683.70	6.142
684.02	6.299
684.34	6.505
684.66	6.669
684.98	6.782
685.30	6.896
685.62	7.032
685.94	7.215
686.26	7.253
686.58	7.367
686.90	7.430
687.22	7.510
687.54	7.532
687.86	7.517
688.18	7.592
688.50	7.732
688.82	7.776
689.14	7.844
689.46	7.987
689.78	8.125
690.10	8.234
690.42	8.325
690.74	8.460
691.06	8.591
691.38	8.792
691.70	8.996
692.02	9.161
692.34	9.415
692.66	9.651
692.98	9.741
693.30	10.051
693.62	10.276
693.94	10.563
694.26	10.760
694.57	11.049
694.89	11.264
695.21	11.498
695.53	11.719
695.85	11.925
696.17	12.092
696.49	12.364
696.81	12.567
697.13	12.750
697.44	12.961
697.76	13.190
698.08	13.434
698.40	13.673
698.72	13.934
699.04	14.207
699.36	14.485
699.67	14.806
699.99	15.070
700.31	15.341
700.63	15.815
700.95	16.139
701.27	16.514
701.58	16.802
701.90	17.119
702.22	17.394
702.54	17.722
702.86	18.051
703.17	18.328
703.49	18.668
703.81	19.012
704.13	19.160
704.45	19.401
704.76	19.611
705.08	19.891
705.40	20.112
705.72	20.277
706.03	20.482
706.35	20.664
706.67	20.900
706.99	21.114
707.30	21.312
707.62	21.581
707.94	21.849
708.26	22.108
708.57	22.313
708.89	22.608
709.21	22.932
709.53	23.169
709.84	23.481
710.16	23.750
710.48	24.038
710.79	24.294
711.11	24.478
711.43	24.712
711.74	24.893
712.06	25.185
712.38	25.470
712.69	25.800
713.01	26.138
713.33	26.334
713.64	26.667
713.96	26.924
714.28	27.188
714.59	27.629
714.91	28.020
715.23	28.476
715.54	28.757
715.86	29.034
716.17	29.226
716.49	29.522
716.81	29.859
717.12	30.066
717.44	30.366
717.76	30.689
718.07	30.774
718.39	30.882
718.70	31.110
719.02	31.337
719.33	31.591
719.65	31.841
719.97	32.002
720.28	32.197
720.60	32.541
720.91	32.810
721.23	33.066
721.54	33.411
721.86	33.751
722.17	33.938
722.49	34.238
722.81	34.408
723.12	34.700
723.44	34.943
723.75	35.246
724.07	35.417
724.38	35.554
724.70	35.776
725.01	35.930
725.33	35.979
725.64	36.093
725.96	36.257
726.27	36.352
726.59	36.474
726.90	36.636
727.22	36.636
727.53	36.716
727.84	36.863
728.16	36.919
728.47	36.933
728.79	37.161
729.10	37.265
729.42	37.311
729.73	37.511
730.05	37.588
730.36	37.620
730.67	37.768
730.99	37.918
731.30	38.001
731.62	38.111
731.93	38.361
732.24	38.477
732.56	38.668
732.87	38.880
733.19	38.989
733.50	39.097
733.81	39.253
734.13	39.384
734.44	39.444
734.76	39.577
735.07	39.686
735.38	39.673
735.70	39.811
736.01	39.895
736.32	40.010
736.64	40.182
736.95	40.242
737.26	40.302
737.58	40.567
737.89	40.684
738.20	40.704
738.52	40.705
738.83	40.898
739.14	40.834
739.45	40.881
739.77	40.803
740.08	40.864
740.39	41.105
740.71	41.178
741.02	40.964
741.33	40.996
741.64	41.116
741.96	41.265
742.27	41.279
742.58	41.426
742.90	41.454
743.21	41.724
743.52	41.859
743.83	41.750
744.14	41.826
744.46	42.157
744.77	42.289
745.08	42.233
745.39	42.223
745.71	42.188
746.02	42.253
746.33	42.295
746.64	42.230
746.95	41.927
747.27	41.973
747.58	42.046
747.89	42.016
748.20	41.884
748.51	41.984
748.82	42.112
749.14	42.320
749.45	42.312
749.76	42.339
750.07	42.292
750.38	42.617
750.69	42.675
751.01	42.596
751.32	42.597
751.63	42.801
751.94	42.638
752.25	42.451
752.56	42.360
752.87	42.364
753.18	42.405
753.49	42.564
753.81	42.487
754.12	42.551
754.43	42.582
754.74	42.499
755.05	42.429
755.36	42.737
755.67	43.042
755.98	43.318
756.29	43.383
756.60	43.505
756.91	43.503
757.22	43.740
757.53	43.969
757.84	44.351
758.15	44.528
758.46	44.796
758.77	44.818
759.09	44.762
759.40	44.642
759.71	44.634
760.02	44.608
760.33	44.622
760.64	44.514
760.95	44.388
761.26	44.249
761.57	44.215
761.88	44.074
762.18	44.018
762.49	44.021
762.80	44.064
763.11	44.103
763.42	44.073
763.73	44.055
764.04	43.979
764.35	43.945
764.66	43.842
764.97	43.622
765.28	43.521
765.59	43.443
765.90	43.234
766.21	42.980
766.52	42.757
766.83	42.611
767.14	42.513
767.44	42.293
767.75	42.074
768.06	41.912
768.37	41.940
768.68	41.984
768.99	41.881
769.30	41.974
769.61	41.988
769.91	41.828
770.22	41.619
770.53	41.411
770.84	41.559
771.15	41.570
771.46	41.523
771.77	41.458
772.07	41.171
772.38	41.189
772.69	40.961
773.00	41.070
773.31	41.323
773.61	41.540
773.92	41.581
774.23	41.404
774.54	41.314
774.85	41.100
775.15	41.177
775.46	41.348
775.77	41.301
776.08	41.462
776.39	41.259
776.69	41.307
777.00	41.379
777.31	41.379
777.62	41.449
777.92	41.467
778.23	41.558
778.54	41.445
778.85	41.354
779.15	41.378
779.46	41.502
779.77	41.622
780.07	41.690
780.38	41.770
780.69	41.756
781.00	41.984
781.30	42.027
781.61	42.085
781.92	42.328
782.22	42.549
782.53	42.298
782.84	41.938
783.14	42.000
783.45	41.743
783.76	41.788
784.06	41.992
784.37	41.733
784.68	41.809
784.98	42.484
785.29	42.368
785.60	41.999
785.90	42.391
786.21	42.636
786.51	42.612
786.82	42.967
787.13	43.038
787.43	43.151
787.74	43.391
788.04	43.581
788.35	43.107
788.66	43.176
788.96	43.667
789.27	43.676
789.57	43.619
789.88	43.667
790.19	43.469
790.49	43.356
790.80	43.027
791.10	42.998
791.41	43.095
791.71	43.188
792.02	43.201
792.32	42.738
792.63	42.852
792.93	42.943
793.24	42.895
793.54	42.765
793.85	42.749
794.15	42.926
794.46	42.979
794.76	42.766
795.07	42.949
795.37	43.161
795.68	43.501
795.98	43.390
796.29	43.901
796.59	44.104
796.90	44.372
797.20	44.613
797.51	44.602
797.81	44.448
798.12	44.772
798.42	44.952
798.72	45.005
799.03	45.394
799.33	45.618
799.64	45.431
799.94	45.347
800.25	45.503
800.55	45.332
800.85	45.476
801.16	46.013
801.46	45.475
801.77	45.049
802.07	45.089
802.37	44.698
802.68	44.355
802.98	44.048
803.28	43.988
803.59	43.818
803.89	43.769
804.20	43.699
804.50	43.091
804.80	43.426
805.11	43.840
805.41	43.643
805.71	43.567
806.02	43.779
806.32	43.497
806.62	43.740
806.93	43.705
807.23	44.065
807.53	44.390
807.83	44.544
808.14	45.139
808.44	45.131
808.74	45.449
809.05	45.611
809.35	45.463
809.65	46.531
809.95	46.703
810.26	46.614
810.56	46.317
810.86	46.189
811.16	46.652
811.47	46.252
811.77	46.479
812.07	46.225
812.37	46.574
812.68	47.066
812.98	46.474
813.28	46.487
813.58	46.974
813.88	47.013
814.19	47.582
814.49	47.728
814.79	47.965
815.09	47.897
815.39	48.280
815.70	48.190
816.00	48.081
816.30	47.946
816.60	47.943
816.90	47.738
817.20	48.104
817.50	47.613
817.81	47.156
818.11	46.977
818.41	46.863
818.71	46.705
819.01	46.727
819.31	46.936
819.61	47.135
819.92	47.389
820.22	47.658
820.52	47.799
820.82	48.051
821.12	48.376
821.42	48.648
821.72	48.897
822.02	49.295
822.32	49.663
822.62	49.971
822.92	50.307
823.22	50.576
823.52	50.847
823.83	51.027
824.13	51.155
824.43	51.180
824.73	51.377
825.03	51.369
825.33	51.323
825.63	51.238
825.93	51.147
826.23	50.983
826.53	50.806
826.83	50.471
827.13	50.588
827.43	50.767
827.73	51.075
828.03	51.162
828.33	51.617
828.63	51.714
828.93	51.875
829.23	51.984
829.53	51.963
829.83	51.503
830.13	51.526
830.42	51.368
830.72	50.992
831.02	50.624
831.32	50.169
831.62	49.791
831.92	49.541
832.22	49.428
832.52	49.209
832.82	49.443
833.12	49.743
833.42	50.073
833.72	50.140
834.01	50.572
834.31	50.760
834.61	51.032
834.91	51.538
835.21	51.714
835.51	51.970
835.81	51.968
836.11	52.013
836.40	52.606
836.70	52.977
837.00	52.818
837.30	52.062
837.60	51.596
837.90	51.460
838.19	51.184
838.49	51.422
838.79	51.113
839.09	51.227
839.39	51.668
839.68	51.145
839.98	49.935
840.28	49.588
840.58	49.828
840.88	50.366
841.17	49.667
841.47	49.273
841.77	48.956
842.07	48.687
842.36	48.845
842.66	47.138
842.96	45.970
843.26	45.647
843.55	46.198
843.85	46.100
844.15	45.963
844.45	46.232
844.74	46.993
845.04	47.288
845.34	47.705
845.63	46.991
845.93	47.716
846.23	49.388
846.53	51.082
846.82	50.185
847.12	49.304
847.42	48.752
847.71	48.158
848.01	46.301
848.31	45.590
848.60	45.592
848.90	45.814
849.19	45.729
849.49	45.302
849.79	44.453
850.08	44.523
850.38	45.342
850.68	45.589
850.97	48.231
851.27	48.287
851.56	49.994
851.86	49.898
852.16	49.918
852.45	49.310
852.75	47.250
853.04	47.838
853.34	48.019
853.64	47.043
853.93	47.075
854.23	43.804
854.52	44.836
854.82	44.276
855.11	42.749
855.41	44.040
855.70	45.793
856.00	46.801
856.30	46.128
856.59	48.074
856.89	49.377
857.18	49.557
857.48	51.607
857.77	51.304
858.07	52.238
858.36	53.854
858.66	53.218
858.95	51.714
859.25	53.113
859.54	52.759
859.84	51.716
860.13	50.808
860.42	51.285
860.72	50.010
861.01	50.303
861.31	48.936
861.60	50.695
861.90	49.733
862.19	50.797
862.49	50.450
862.78	49.915
863.07	49.658
863.37	49.602
863.66	48.801
863.96	50.539
864.25	51.102
864.54	50.587
864.84	48.603
865.13	48.750
865.43	47.531
865.72	55.072
866.01	43.774
866.31	50.645
866.60	41.972
866.89	39.335
>>>>>End Spectral Data<<<<<
