OOIBase32 Version 2.0.0.6 Data File
++++++++++++++++++++++++++++++++++++
Date: 01-23-2012, 23:05:17
User: Valued Ocean Optics Customer
Spectrometer Serial Number: USB2E2917
Spectrometer Channel: Master
Integration Time (msec): 5
Spectra Averaged: 10
Boxcar Smoothing: 5
Correct for Electrical Dark: Enabled
Time Normalized: Disabled
Dual-beam Reference: Disabled
Reference Channel: Master
Temperature: Not acquired
Spectrometer Type: S2000
ADC Type: USB2000
Number of Pixels in File: 2048
Graph Title: 
>>>>>Begin Spectral Data<<<<<
180.30	0.000
180.67	0.000
181.03	-9.044
181.40	121.450
181.77	-14672.477
182.14	137.174
182.51	-597.679
182.88	-350.682
183.25	35.484
183.62	116.909
183.99	360.027
184.36	38.313
184.73	16.463
185.10	-127.798
185.46	-176.698
185.83	-457.230
186.20	1404.254
186.57	160.911
186.94	35.985
187.31	26.754
187.68	30.253
188.05	27.283
188.42	60.791
188.78	154.136
189.15	436.447
189.52	-132.608
189.89	-28.507
190.26	-20.325
190.63	-0.831
191.00	15.725
191.37	19.923
191.73	34.871
192.10	35.615
192.47	34.801
192.84	38.675
193.21	46.738
193.58	42.228
193.94	35.763
194.31	35.355
194.68	24.272
195.05	19.365
195.42	10.769
195.79	-6.732
196.15	-15.309
196.52	-17.593
196.89	-43.582
197.26	-51.294
197.63	-37.469
198.00	-17.154
198.36	-12.349
198.73	-5.402
199.10	-21.209
199.47	-0.959
199.84	7.797
200.20	3.004
200.57	-4.387
200.94	6.955
201.31	9.914
201.68	17.160
202.04	1.616
202.41	-3.861
202.78	-9.547
203.15	-8.108
203.51	-17.539
203.88	-29.965
204.25	-41.456
204.62	-56.031
204.98	-66.913
205.35	-72.920
205.72	-87.713
206.09	-79.131
206.46	-160.027
206.82	-126.313
207.19	-103.795
207.56	-143.178
207.92	-105.772
208.29	-115.773
208.66	-76.371
209.03	-79.807
209.39	-53.242
209.76	-45.435
210.13	-86.534
210.50	-45.523
210.86	-49.146
211.23	-79.556
211.60	-57.684
211.96	-65.175
212.33	-46.982
212.70	-42.129
213.07	-38.141
213.43	-79.556
213.80	-85.730
214.17	-44.187
214.53	-34.197
214.90	-21.567
215.27	-11.045
215.63	-11.971
216.00	-6.685
216.37	-9.165
216.74	-26.500
217.10	-15.400
217.47	-14.008
217.84	-8.309
218.20	-13.418
218.57	-8.655
218.94	-7.528
219.30	-11.673
219.67	-13.923
220.04	-10.708
220.40	-11.562
220.77	-9.646
221.13	-9.847
221.50	-4.463
221.87	-4.301
222.23	-5.243
222.60	-15.532
222.97	-11.912
223.33	-7.567
223.70	-4.783
224.07	-8.999
224.43	-4.669
224.80	-0.722
225.16	-2.724
225.53	-3.544
225.90	-5.627
226.26	-4.358
226.63	-3.273
226.99	-3.243
227.36	-2.041
227.73	-1.167
228.09	-0.902
228.46	-0.394
228.82	0.723
229.19	0.816
229.56	1.512
229.92	4.583
230.29	7.106
230.65	9.262
231.02	8.054
231.38	5.477
231.75	3.978
232.12	3.348
232.48	0.524
232.85	-0.818
233.21	0.312
233.58	-2.309
233.94	-3.135
234.31	-5.634
234.68	-6.835
235.04	-5.200
235.41	-1.436
235.77	1.203
236.14	2.911
236.50	4.272
236.87	3.534
237.23	3.908
237.60	4.692
237.96	4.562
238.33	4.482
238.69	3.278
239.06	2.644
239.42	1.196
239.79	-0.759
240.15	-0.854
240.52	-0.776
240.88	-0.121
241.25	-0.466
241.61	-0.329
241.98	-1.099
242.34	-1.084
242.71	0.139
243.07	0.260
243.44	0.545
243.80	1.347
244.17	1.215
244.53	0.864
244.90	0.740
245.26	0.727
245.63	0.677
245.99	0.826
246.36	0.853
246.72	0.701
247.09	0.421
247.45	0.418
247.81	0.419
248.18	0.655
248.54	1.167
248.91	0.952
249.27	1.116
249.64	1.410
250.00	1.567
250.36	1.479
250.73	1.389
251.09	1.620
251.46	1.565
251.82	1.101
252.19	0.624
252.55	0.129
252.91	0.520
253.28	0.133
253.64	-0.525
254.01	-0.746
254.37	-0.489
254.73	0.185
255.10	0.864
255.46	1.409
255.83	1.636
256.19	1.630
256.55	1.465
256.92	1.642
257.28	1.910
257.65	2.131
258.01	2.294
258.37	2.119
258.74	1.667
259.10	1.246
259.46	0.865
259.83	0.836
260.19	0.905
260.55	0.960
260.92	0.715
261.28	0.518
261.64	0.648
262.01	0.716
262.37	1.040
262.73	1.345
263.10	1.823
263.46	1.876
263.82	1.746
264.19	1.704
264.55	1.540
264.91	1.371
265.28	1.417
265.64	1.110
266.00	1.089
266.37	0.783
266.73	0.660
267.09	0.635
267.46	0.842
267.82	0.806
268.18	0.856
268.54	0.931
268.91	0.952
269.27	0.734
269.63	0.863
270.00	0.716
270.36	0.894
270.72	1.198
271.08	1.129
271.45	1.023
271.81	1.019
272.17	0.935
272.53	1.002
272.90	1.151
273.26	1.393
273.62	1.045
273.98	1.142
274.35	1.123
274.71	0.981
275.07	0.874
275.43	0.866
275.80	0.880
276.16	0.879
276.52	0.950
276.88	0.781
277.25	0.268
277.61	0.315
277.97	0.063
278.33	0.049
278.69	-0.228
279.06	-0.106
279.42	-0.057
279.78	-0.011
280.14	0.056
280.50	0.108
280.87	0.115
281.23	0.476
281.59	0.629
281.95	0.868
282.31	0.919
282.68	0.904
283.04	0.751
283.40	0.759
283.76	0.888
284.12	1.076
284.48	1.101
284.85	1.105
285.21	0.988
285.57	1.006
285.93	0.925
286.29	0.831
286.65	0.935
287.02	1.283
287.38	1.262
287.74	1.199
288.10	0.937
288.46	0.849
288.82	0.726
289.18	0.850
289.54	0.905
289.91	0.843
290.27	0.833
290.63	0.917
290.99	0.680
291.35	0.712
291.71	0.691
292.07	0.759
292.43	0.757
292.79	0.915
293.16	0.901
293.52	0.892
293.88	0.926
294.24	0.884
294.60	0.787
294.96	0.790
295.32	0.882
295.68	0.941
296.04	0.910
296.40	0.970
296.76	1.000
297.12	0.913
297.49	0.764
297.85	0.737
298.21	0.762
298.57	0.691
298.93	0.692
299.29	0.526
299.65	0.522
300.01	0.509
300.37	0.381
300.73	0.468
301.09	0.571
301.45	0.805
301.81	0.954
302.17	1.034
302.53	0.964
302.89	0.990
303.25	1.097
303.61	1.004
303.97	0.887
304.33	0.937
304.69	0.886
305.05	0.823
305.41	0.672
305.77	0.626
306.13	0.599
306.49	0.690
306.85	0.630
307.21	0.644
307.57	0.619
307.93	0.713
308.29	0.798
308.65	0.774
309.01	0.754
309.37	0.754
309.73	0.798
310.09	0.879
310.45	0.880
310.81	0.894
311.17	0.807
311.53	0.824
311.89	0.849
312.25	0.772
312.61	0.680
312.96	0.738
313.32	0.899
313.68	0.704
314.04	0.594
314.40	0.715
314.76	0.617
315.12	0.609
315.48	0.707
315.84	0.692
316.20	0.671
316.56	0.708
316.92	0.637
317.27	0.481
317.63	0.619
317.99	0.554
318.35	0.475
318.71	0.592
319.07	0.707
319.43	0.652
319.79	0.719
320.15	0.808
320.50	0.897
320.86	0.989
321.22	1.066
321.58	1.066
321.94	1.138
322.30	1.119
322.66	1.053
323.01	0.974
323.37	1.027
323.73	1.036
324.09	0.943
324.45	0.985
324.81	0.834
325.17	0.800
325.52	0.709
325.88	0.683
326.24	0.746
326.60	0.765
326.96	0.810
327.31	0.712
327.67	0.638
328.03	0.691
328.39	0.509
328.75	0.616
329.11	0.662
329.46	0.739
329.82	0.757
330.18	0.674
330.54	0.592
330.90	0.525
331.25	0.485
331.61	0.538
331.97	0.436
332.33	0.553
332.68	0.558
333.04	0.586
333.40	0.474
333.76	0.446
334.11	0.356
334.47	0.486
334.83	0.493
335.19	0.480
335.54	0.431
335.90	0.480
336.26	0.506
336.62	0.499
336.97	0.370
337.33	0.377
337.69	0.393
338.05	0.423
338.40	0.340
338.76	0.373
339.12	0.424
339.48	0.362
339.83	0.367
340.19	0.290
340.55	0.314
340.90	0.302
341.26	0.282
341.62	0.296
341.97	0.289
342.33	0.347
342.69	0.337
343.04	0.330
343.40	0.309
343.76	0.331
344.12	0.358
344.47	0.374
344.83	0.428
345.19	0.544
345.54	0.550
345.90	0.634
346.26	0.701
346.61	0.757
346.97	0.767
347.32	0.819
347.68	0.826
348.04	0.819
348.39	0.697
348.75	0.708
349.11	0.645
349.46	0.642
349.82	0.650
350.18	0.559
350.53	0.480
350.89	0.488
351.24	0.463
351.60	0.432
351.96	0.435
352.31	0.506
352.67	0.551
353.02	0.518
353.38	0.474
353.74	0.465
354.09	0.430
354.45	0.478
354.80	0.493
355.16	0.571
355.52	0.593
355.87	0.541
356.23	0.558
356.58	0.539
356.94	0.612
357.29	0.672
357.65	0.656
358.00	0.705
358.36	0.663
358.72	0.642
359.07	0.651
359.43	0.699
359.78	0.749
360.14	0.755
360.49	0.714
360.85	0.703
361.20	0.641
361.56	0.665
361.91	0.687
362.27	0.734
362.62	0.727
362.98	0.756
363.33	0.670
363.69	0.664
364.04	0.678
364.40	0.696
364.75	0.651
365.11	0.668
365.46	0.618
365.82	0.626
366.17	0.614
366.53	0.693
366.88	0.680
367.24	0.745
367.59	0.743
367.95	0.738
368.30	0.726
368.66	0.789
369.01	0.800
369.37	0.849
369.72	0.861
370.08	0.889
370.43	0.829
370.78	0.803
371.14	0.731
371.49	0.765
371.85	0.782
372.20	0.813
372.56	0.744
372.91	0.761
373.26	0.773
373.62	0.734
373.97	0.742
374.33	0.779
374.68	0.814
375.03	0.893
375.39	0.890
375.74	0.856
376.10	0.850
376.45	0.914
376.80	0.927
377.16	0.923
377.51	0.959
377.87	0.987
378.22	0.951
378.57	0.917
378.93	0.912
379.28	0.953
379.63	0.953
379.99	0.995
380.34	0.989
380.70	1.030
381.05	1.049
381.40	1.036
381.76	1.003
382.11	1.053
382.46	1.078
382.82	1.081
383.17	1.020
383.52	1.042
383.88	1.003
384.23	1.039
384.58	1.011
384.94	1.014
385.29	1.034
385.64	1.072
385.99	1.077
386.35	1.083
386.70	1.104
387.05	1.135
387.41	1.128
387.76	1.137
388.11	1.092
388.47	1.073
388.82	1.084
389.17	1.086
389.52	1.069
389.88	1.088
390.23	1.083
390.58	1.097
390.93	1.106
391.29	1.105
391.64	1.128
391.99	1.214
392.34	1.240
392.70	1.253
393.05	1.251
393.40	1.260
393.75	1.215
394.11	1.220
394.46	1.188
394.81	1.185
395.16	1.185
395.52	1.180
395.87	1.134
396.22	1.160
396.57	1.083
396.92	1.067
397.28	1.041
397.63	1.031
397.98	1.009
398.33	1.004
398.68	0.980
399.04	0.983
399.39	0.947
399.74	0.941
400.09	0.889
400.44	0.930
400.80	0.921
401.15	0.942
401.50	0.943
401.85	0.989
402.20	0.972
402.55	1.008
402.90	1.011
403.26	1.070
403.61	1.039
403.96	1.074
404.31	1.061
404.66	1.078
405.01	1.042
405.36	1.051
405.72	0.993
406.07	1.001
406.42	0.964
406.77	0.937
407.12	0.888
407.47	0.910
407.82	0.857
408.17	0.860
408.53	0.867
408.88	0.879
409.23	0.869
409.58	0.844
409.93	0.865
410.28	0.874
410.63	0.876
410.98	0.859
411.33	0.862
411.68	0.902
412.03	0.925
412.38	0.901
412.73	0.912
413.09	0.935
413.44	0.988
413.79	0.999
414.14	1.023
414.49	1.072
414.84	1.116
415.19	1.150
415.54	1.171
415.89	1.192
416.24	1.249
416.59	1.288
416.94	1.312
417.29	1.333
417.64	1.319
417.99	1.345
418.34	1.361
418.69	1.370
419.04	1.364
419.39	1.371
419.74	1.375
420.09	1.367
420.44	1.361
420.79	1.360
421.14	1.360
421.49	1.396
421.84	1.378
422.19	1.365
422.54	1.361
422.89	1.358
423.24	1.346
423.59	1.333
423.94	1.316
424.29	1.306
424.64	1.289
424.99	1.281
425.34	1.244
425.68	1.232
426.03	1.220
426.38	1.198
426.73	1.203
427.08	1.207
427.43	1.206
427.78	1.216
428.13	1.216
428.48	1.237
428.83	1.229
429.18	1.231
429.53	1.228
429.87	1.234
430.22	1.239
430.57	1.252
430.92	1.238
431.27	1.243
431.62	1.228
431.97	1.239
432.32	1.212
432.67	1.200
433.01	1.186
433.36	1.184
433.71	1.162
434.06	1.155
434.41	1.128
434.76	1.145
435.11	1.125
435.45	1.120
435.80	1.107
436.15	1.118
436.50	1.137
436.85	1.165
437.20	1.166
437.54	1.179
437.89	1.190
438.24	1.198
438.59	1.197
438.94	1.216
439.29	1.204
439.63	1.212
439.98	1.217
440.33	1.207
440.68	1.191
441.03	1.199
441.37	1.203
441.72	1.209
442.07	1.212
442.42	1.219
442.76	1.230
443.11	1.251
443.46	1.254
443.81	1.258
444.16	1.268
444.50	1.267
444.85	1.263
445.20	1.261
445.55	1.255
445.89	1.247
446.24	1.236
446.59	1.204
446.94	1.190
447.28	1.171
447.63	1.145
447.98	1.128
448.32	1.129
448.67	1.109
449.02	1.085
449.37	1.070
449.71	1.061
450.06	1.047
450.41	1.062
450.75	1.055
451.10	1.056
451.45	1.053
451.79	1.046
452.14	1.034
452.49	1.031
452.84	1.039
453.18	1.028
453.53	1.017
453.88	1.022
454.22	1.027
454.57	1.037
454.92	1.043
455.26	1.066
455.61	1.094
455.95	1.119
456.30	1.153
456.65	1.173
456.99	1.188
457.34	1.201
457.69	1.215
458.03	1.213
458.38	1.222
458.73	1.222
459.07	1.210
459.42	1.179
459.76	1.151
460.11	1.109
460.46	1.075
460.80	1.043
461.15	1.018
461.49	0.980
461.84	0.967
462.19	0.937
462.53	0.918
462.88	0.925
463.22	0.927
463.57	0.920
463.91	0.920
464.26	0.942
464.61	0.958
464.95	0.964
465.30	0.977
465.64	0.971
465.99	0.984
466.33	0.993
466.68	0.976
467.02	0.974
467.37	0.975
467.71	0.972
468.06	0.966
468.41	0.955
468.75	0.942
469.10	0.935
469.44	0.912
469.79	0.897
470.13	0.862
470.48	0.856
470.82	0.853
471.17	0.846
471.51	0.833
471.86	0.799
472.20	0.788
472.55	0.779
472.89	0.774
473.23	0.770
473.58	0.766
473.92	0.767
474.27	0.773
474.61	0.751
474.96	0.758
475.30	0.772
475.65	0.783
475.99	0.784
476.34	0.792
476.68	0.794
477.02	0.802
477.37	0.802
477.71	0.841
478.06	0.864
478.40	0.937
478.75	1.000
479.09	1.089
479.43	1.175
479.78	1.259
480.12	1.330
480.47	1.404
480.81	1.476
481.15	1.541
481.50	1.600
481.84	1.672
482.19	1.727
482.53	1.779
482.87	1.806
483.22	1.803
483.56	1.783
483.90	1.753
484.25	1.704
484.59	1.657
484.94	1.618
485.28	1.572
485.62	1.510
485.97	1.450
486.31	1.399
486.65	1.358
487.00	1.341
487.34	1.333
487.68	1.333
488.03	1.339
488.37	1.338
488.71	1.325
489.06	1.310
489.40	1.309
489.74	1.296
490.09	1.281
490.43	1.252
490.77	1.222
491.11	1.184
491.46	1.148
491.80	1.112
492.14	1.073
492.49	1.056
492.83	1.016
493.17	0.961
493.51	0.929
493.86	0.886
494.20	0.864
494.54	0.848
494.88	0.859
495.23	0.865
495.57	0.873
495.91	0.891
496.25	0.899
496.60	0.911
496.94	0.921
497.28	0.933
497.62	0.941
497.97	0.941
498.31	0.954
498.65	0.949
498.99	0.943
499.33	0.962
499.68	0.985
500.02	0.990
500.36	1.010
500.70	1.035
501.04	1.035
501.39	1.041
501.73	1.074
502.07	1.101
502.41	1.144
502.75	1.190
503.09	1.214
503.44	1.236
503.78	1.269
504.12	1.297
504.46	1.345
504.80	1.405
505.14	1.484
505.49	1.531
505.83	1.583
506.17	1.636
506.51	1.683
506.85	1.747
507.19	1.808
507.53	1.863
507.87	1.941
508.22	1.994
508.56	2.043
508.90	2.075
509.24	2.129
509.58	2.182
509.92	2.229
510.26	2.290
510.60	2.356
510.94	2.419
511.28	2.480
511.63	2.542
511.97	2.613
512.31	2.703
512.65	2.801
512.99	2.915
513.33	3.041
513.67	3.164
514.01	3.313
514.35	3.450
514.69	3.589
515.03	3.719
515.37	3.854
515.71	3.989
516.05	4.120
516.39	4.224
516.73	4.328
517.07	4.427
517.41	4.523
517.75	4.593
518.09	4.662
518.43	4.745
518.77	4.834
519.11	4.915
519.45	4.991
519.79	5.085
520.13	5.209
520.47	5.334
520.81	5.467
521.15	5.625
521.49	5.794
521.83	5.957
522.17	6.122
522.51	6.304
522.85	6.503
523.19	6.726
523.53	6.959
523.87	7.204
524.21	7.443
524.55	7.651
524.89	7.844
525.23	8.025
525.57	8.185
525.91	8.340
526.25	8.473
526.58	8.593
526.92	8.689
527.26	8.762
527.60	8.802
527.94	8.846
528.28	8.892
528.62	8.928
528.96	8.954
529.30	8.995
529.64	9.014
529.97	9.043
530.31	9.064
530.65	9.098
530.99	9.141
531.33	9.213
531.67	9.264
532.01	9.309
532.35	9.349
532.68	9.385
533.02	9.392
533.36	9.415
533.70	9.424
534.04	9.435
534.38	9.446
534.71	9.460
535.05	9.472
535.39	9.486
535.73	9.507
536.07	9.536
536.41	9.584
536.74	9.647
537.08	9.694
537.42	9.769
537.76	9.834
538.10	9.910
538.43	9.973
538.77	10.035
539.11	10.097
539.45	10.133
539.79	10.185
540.12	10.198
540.46	10.213
540.80	10.231
541.14	10.219
541.47	10.211
541.81	10.197
542.15	10.190
542.49	10.175
542.82	10.140
543.16	10.123
543.50	10.077
543.84	10.066
544.17	10.048
544.51	10.043
544.85	10.029
545.18	10.029
545.52	10.009
545.86	9.986
546.20	9.965
546.53	9.949
546.87	9.929
547.21	9.901
547.54	9.901
547.88	9.883
548.22	9.839
548.55	9.834
548.89	9.830
549.23	9.836
549.56	9.827
549.90	9.820
550.24	9.827
550.57	9.833
550.91	9.840
551.25	9.826
551.58	9.816
551.92	9.804
552.26	9.780
552.59	9.741
552.93	9.715
553.27	9.704
553.60	9.691
553.94	9.652
554.27	9.628
554.61	9.586
554.95	9.525
555.28	9.496
555.62	9.458
555.95	9.441
556.29	9.413
556.63	9.370
556.96	9.312
557.30	9.245
557.63	9.196
557.97	9.135
558.31	9.073
558.64	9.015
558.98	8.945
559.31	8.917
559.65	8.852
559.98	8.801
560.32	8.739
560.65	8.668
560.99	8.601
561.33	8.533
561.66	8.479
562.00	8.446
562.33	8.413
562.67	8.390
563.00	8.326
563.34	8.291
563.67	8.219
564.01	8.172
564.34	8.116
564.68	8.056
565.01	8.020
565.35	7.950
565.68	7.875
566.02	7.774
566.35	7.668
566.69	7.569
567.02	7.480
567.36	7.394
567.69	7.310
568.03	7.247
568.36	7.168
568.69	7.071
569.03	6.985
569.36	6.912
569.70	6.848
570.03	6.792
570.37	6.733
570.70	6.656
571.04	6.584
571.37	6.499
571.70	6.399
572.04	6.299
572.37	6.212
572.71	6.146
573.04	6.079
573.37	6.009
573.71	5.923
574.04	5.839
574.38	5.760
574.71	5.703
575.04	5.632
575.38	5.567
575.71	5.515
576.05	5.447
576.38	5.369
576.71	5.263
577.05	5.200
577.38	5.124
577.71	5.047
578.05	4.975
578.38	4.899
578.71	4.819
579.05	4.757
579.38	4.700
579.71	4.626
580.05	4.575
580.38	4.544
580.71	4.470
581.05	4.430
581.38	4.406
581.71	4.364
582.05	4.309
582.38	4.297
582.71	4.244
583.04	4.223
583.38	4.181
583.71	4.139
584.04	4.099
584.38	4.083
584.71	4.056
585.04	4.039
585.37	4.008
585.71	3.998
586.04	3.976
586.37	3.991
586.70	3.972
587.04	3.973
587.37	3.977
587.70	3.959
588.03	3.956
588.37	3.937
588.70	3.887
589.03	3.867
589.36	3.860
589.69	3.831
590.03	3.807
590.36	3.768
590.69	3.747
591.02	3.698
591.35	3.672
591.69	3.619
592.02	3.596
592.35	3.616
592.68	3.626
593.01	3.601
593.35	3.579
593.68	3.574
594.01	3.587
594.34	3.565
594.67	3.573
595.00	3.554
595.34	3.548
595.67	3.496
596.00	3.463
596.33	3.412
596.66	3.376
596.99	3.339
597.32	3.264
597.65	3.213
597.99	3.143
598.32	3.077
598.65	3.027
598.98	2.983
599.31	2.997
599.64	2.976
599.97	2.956
600.30	2.950
600.63	2.958
600.96	2.992
601.30	2.977
601.63	3.008
601.96	3.027
602.29	3.041
602.62	3.040
602.95	3.018
603.28	2.983
603.61	2.942
603.94	2.921
604.27	2.893
604.60	2.811
604.93	2.783
605.26	2.738
605.59	2.684
605.92	2.637
606.25	2.590
606.58	2.545
606.91	2.480
607.24	2.484
607.57	2.435
607.90	2.396
608.23	2.374
608.56	2.323
608.89	2.249
609.22	2.192
609.55	2.120
609.88	2.050
610.21	1.986
610.54	1.942
610.87	1.837
611.20	1.767
611.53	1.694
611.86	1.636
612.19	1.557
612.52	1.538
612.85	1.471
613.18	1.444
613.51	1.385
613.84	1.343
614.17	1.317
614.49	1.321
614.82	1.283
615.15	1.258
615.48	1.241
615.81	1.210
616.14	1.173
616.47	1.137
616.80	1.065
617.13	1.049
617.46	0.999
617.78	0.970
618.11	0.910
618.44	0.881
618.77	0.819
619.10	0.807
619.43	0.803
619.76	0.772
620.09	0.794
620.41	0.804
620.74	0.813
621.07	0.849
621.40	0.861
621.73	0.885
622.06	0.888
622.38	0.921
622.71	0.931
623.04	0.948
623.37	0.996
623.70	1.006
624.02	1.064
624.35	1.102
624.68	1.099
625.01	1.139
625.34	1.171
625.66	1.191
625.99	1.199
626.32	1.171
626.65	1.165
626.98	1.130
627.30	1.116
627.63	1.079
627.96	1.023
628.29	1.009
628.61	0.926
628.94	0.879
629.27	0.811
629.60	0.740
629.92	0.757
630.25	0.718
630.58	0.692
630.91	0.664
631.23	0.626
631.56	0.638
631.89	0.588
632.21	0.583
632.54	0.523
632.87	0.526
633.19	0.509
633.52	0.432
633.85	0.403
634.18	0.353
634.50	0.279
634.83	0.247
635.16	0.146
635.48	0.112
635.81	0.039
636.14	-0.010
636.46	-0.078
636.79	-0.122
637.11	-0.188
637.44	-0.267
637.77	-0.308
638.09	-0.327
638.42	-0.399
638.75	-0.405
639.07	-0.435
639.40	-0.469
639.73	-0.487
640.05	-0.502
640.38	-0.483
640.70	-0.518
641.03	-0.514
641.36	-0.544
641.68	-0.553
642.01	-0.586
642.33	-0.603
642.66	-0.630
642.98	-0.625
643.31	-0.629
643.64	-0.654
643.96	-0.700
644.29	-0.659
644.61	-0.660
644.94	-0.644
645.26	-0.647
645.59	-0.580
645.91	-0.550
646.24	-0.536
646.56	-0.533
646.89	-0.521
647.22	-0.513
647.54	-0.494
647.87	-0.495
648.19	-0.518
648.52	-0.524
648.84	-0.511
649.17	-0.541
649.49	-0.557
649.82	-0.564
650.14	-0.563
650.47	-0.560
650.79	-0.549
651.11	-0.572
651.44	-0.567
651.76	-0.552
652.09	-0.458
652.41	-0.435
652.74	-0.403
653.06	-0.399
653.39	-0.382
653.71	-0.358
654.04	-0.388
654.36	-0.368
654.68	-0.333
655.01	-0.278
655.33	-0.220
655.66	-0.260
655.98	-0.228
656.30	-0.244
656.63	-0.206
656.95	-0.169
657.28	-0.159
657.60	-0.125
657.92	-0.125
658.25	-0.125
658.57	-0.157
658.90	-0.179
659.22	-0.186
659.54	-0.226
659.87	-0.247
660.19	-0.300
660.51	-0.353
660.84	-0.416
661.16	-0.447
661.48	-0.453
661.81	-0.448
662.13	-0.476
662.45	-0.482
662.78	-0.449
663.10	-0.396
663.42	-0.315
663.75	-0.264
664.07	-0.221
664.39	-0.180
664.72	-0.140
665.04	-0.103
665.36	-0.026
665.69	0.048
666.01	0.110
666.33	0.122
666.65	0.144
666.98	0.194
667.30	0.254
667.62	0.342
667.94	0.429
668.27	0.571
668.59	0.699
668.91	0.776
669.23	0.900
669.56	1.024
669.88	1.148
670.20	1.224
670.52	1.366
670.85	1.443
671.17	1.557
671.49	1.707
671.81	1.822
672.13	1.929
672.46	2.026
672.78	2.158
673.10	2.296
673.42	2.408
673.74	2.581
674.07	2.693
674.39	2.888
674.71	3.001
675.03	3.216
675.35	3.341
675.67	3.462
676.00	3.577
676.32	3.667
676.64	3.786
676.96	3.957
677.28	4.047
677.60	4.191
677.92	4.325
678.25	4.431
678.57	4.473
678.89	4.475
679.21	4.591
679.53	4.725
679.85	4.851
680.17	4.941
680.49	5.012
680.81	5.170
681.13	5.233
681.46	5.352
681.78	5.507
682.10	5.630
682.42	5.814
682.74	5.963
683.06	6.083
683.38	6.176
683.70	6.282
684.02	6.419
684.34	6.548
684.66	6.674
684.98	6.758
685.30	6.821
685.62	6.914
685.94	7.013
686.26	7.020
686.58	7.039
686.90	7.052
687.22	7.079
687.54	7.082
687.86	7.036
688.18	7.044
688.50	7.057
688.82	7.072
689.14	7.064
689.46	7.123
689.78	7.160
690.10	7.268
690.42	7.340
690.74	7.482
691.06	7.641
691.38	7.752
691.70	7.890
692.02	8.037
692.34	8.179
692.66	8.309
692.98	8.388
693.30	8.561
693.62	8.694
693.94	8.877
694.26	8.978
694.57	9.075
694.89	9.318
695.21	9.493
695.53	9.606
695.85	9.763
696.17	10.021
696.49	10.269
696.81	10.535
697.13	10.750
697.44	11.004
697.76	11.295
698.08	11.664
698.40	11.943
698.72	12.258
699.04	12.678
699.36	13.151
699.67	13.467
699.99	13.902
700.31	14.312
700.63	14.791
700.95	15.333
701.27	15.834
701.58	16.199
701.90	16.613
702.22	17.086
702.54	17.468
702.86	17.841
703.17	18.355
703.49	18.833
703.81	19.382
704.13	19.889
704.45	20.316
704.76	20.821
705.08	21.330
705.40	21.845
705.72	22.327
706.03	22.833
706.35	23.383
706.67	23.914
706.99	24.315
707.30	24.685
707.62	25.148
707.94	25.604
708.26	26.029
708.57	26.473
708.89	26.912
709.21	27.375
709.53	27.845
709.84	28.341
710.16	28.780
710.48	29.340
710.79	29.878
711.11	30.408
711.43	30.986
711.74	31.543
712.06	32.086
712.38	32.686
712.69	33.274
713.01	33.861
713.33	34.433
713.64	35.052
713.96	35.612
714.28	36.246
714.59	36.897
714.91	37.492
715.23	38.072
715.54	38.676
715.86	39.350
716.17	40.005
716.49	40.729
716.81	41.277
717.12	41.944
717.44	42.671
717.76	43.392
718.07	43.899
718.39	44.508
718.70	45.147
719.02	45.701
719.33	46.241
719.65	46.785
719.97	47.199
720.28	47.836
720.60	48.452
720.91	48.912
721.23	49.353
721.54	49.994
721.86	50.484
722.17	50.987
722.49	51.579
722.81	52.045
723.12	52.612
723.44	53.095
723.75	53.515
724.07	53.834
724.38	54.248
724.70	54.661
725.01	54.921
725.33	55.434
725.64	55.890
725.96	56.368
726.27	56.600
726.59	56.942
726.90	57.392
727.22	57.669
727.53	58.077
727.84	58.522
728.16	58.902
728.47	59.356
728.79	59.694
729.10	59.993
729.42	60.382
729.73	60.923
730.05	61.273
730.36	61.640
730.67	62.076
730.99	62.556
731.30	62.891
731.62	63.276
731.93	63.722
732.24	64.136
732.56	64.415
732.87	64.785
733.19	65.215
733.50	65.621
733.81	65.895
734.13	66.180
734.44	66.474
734.76	66.846
735.07	67.219
735.38	67.545
735.70	67.786
736.01	68.227
736.32	68.340
736.64	68.532
736.95	68.648
737.26	68.975
737.58	69.358
737.89	69.646
738.20	69.904
738.52	70.139
738.83	70.324
739.14	70.569
739.45	70.788
739.77	71.185
740.08	71.680
740.39	72.028
740.71	72.467
741.02	72.737
741.33	72.803
741.64	73.146
741.96	73.306
742.27	73.642
742.58	73.991
742.90	74.062
743.21	74.066
743.52	73.920
743.83	74.054
744.14	74.006
744.46	74.116
744.77	74.422
745.08	74.406
745.39	74.598
745.71	74.293
746.02	74.200
746.33	74.264
746.64	74.423
746.95	74.366
747.27	74.444
747.58	74.623
747.89	74.575
748.20	74.441
748.51	74.422
748.82	74.362
749.14	74.398
749.45	74.417
749.76	74.617
750.07	74.634
750.38	74.761
750.69	74.675
751.01	74.558
751.32	74.706
751.63	74.901
751.94	74.732
752.25	74.498
752.56	74.523
752.87	74.441
753.18	74.313
753.49	74.297
753.81	74.338
754.12	74.268
754.43	74.274
754.74	74.192
755.05	74.032
755.36	74.151
755.67	74.271
755.98	74.517
756.29	74.477
756.60	74.662
756.91	74.647
757.22	74.614
757.53	74.682
757.84	74.784
758.15	74.751
758.46	74.681
758.77	74.400
759.09	74.301
759.40	74.174
759.71	73.956
760.02	73.739
760.33	73.465
760.64	73.238
760.95	73.129
761.26	72.709
761.57	72.542
761.88	72.384
762.18	72.379
762.49	72.270
762.80	72.188
763.11	72.324
763.42	72.204
763.73	72.293
764.04	72.285
764.35	72.316
764.66	72.535
764.97	72.639
765.28	72.766
765.59	72.822
765.90	72.908
766.21	72.760
766.52	72.706
766.83	72.755
767.14	72.706
767.44	72.672
767.75	72.582
768.06	72.384
768.37	72.178
768.68	71.900
768.99	71.812
769.30	71.553
769.61	71.585
769.91	71.604
770.22	71.534
770.53	71.281
770.84	71.287
771.15	71.301
771.46	71.359
771.77	71.376
772.07	71.561
772.38	71.175
772.69	71.346
773.00	71.333
773.31	71.081
773.61	70.877
773.92	71.177
774.23	70.978
774.54	70.644
774.85	70.449
775.15	70.508
775.46	70.504
775.77	70.947
776.08	71.030
776.39	70.917
776.69	71.143
777.00	71.202
777.31	71.167
777.62	71.311
777.92	71.325
778.23	71.532
778.54	71.480
778.85	71.449
779.15	71.042
779.46	70.845
779.77	70.872
780.07	70.946
780.38	71.080
780.69	70.940
781.00	70.956
781.30	71.188
781.61	70.681
781.92	70.516
782.22	70.567
782.53	70.940
782.84	71.047
783.14	71.120
783.45	70.521
783.76	70.554
784.06	70.733
784.37	70.737
784.68	70.566
784.98	70.888
785.29	71.142
785.60	71.131
785.90	71.017
786.21	70.858
786.51	70.567
786.82	70.956
787.13	70.953
787.43	70.863
787.74	70.955
788.04	71.168
788.35	71.188
788.66	71.055
788.96	71.198
789.27	71.674
789.57	71.555
789.88	71.783
790.19	71.574
790.49	71.178
790.80	70.932
791.10	70.840
791.41	70.882
791.71	70.959
792.02	70.842
792.32	70.491
792.63	70.088
792.93	69.985
793.24	70.107
793.54	70.316
793.85	70.475
794.15	70.745
794.46	70.692
794.76	70.447
795.07	70.366
795.37	70.466
795.68	70.235
795.98	70.672
796.29	71.332
796.59	71.399
796.90	71.257
797.20	71.288
797.51	70.989
797.81	71.141
798.12	71.368
798.42	71.266
798.72	71.029
799.03	71.149
799.33	70.682
799.64	70.244
799.94	70.288
800.25	70.344
800.55	70.472
800.85	71.014
801.16	71.072
801.46	70.681
801.77	70.912
802.07	71.399
802.37	71.389
802.68	71.303
802.98	71.612
803.28	71.431
803.59	71.473
803.89	71.451
804.20	71.027
804.50	70.775
804.80	70.931
805.11	70.996
805.41	70.801
805.71	71.203
806.02	71.273
806.32	71.139
806.62	71.372
806.93	71.645
807.23	71.988
807.53	71.975
807.83	71.825
808.14	71.997
808.44	71.702
808.74	71.907
809.05	71.890
809.35	71.499
809.65	72.102
809.95	72.137
810.26	71.556
810.56	71.014
810.86	71.255
811.16	71.550
811.47	71.402
811.77	72.181
812.07	71.530
812.37	71.423
812.68	71.947
812.98	71.714
813.28	71.798
813.58	72.032
813.88	72.239
814.19	72.798
814.49	72.822
814.79	73.095
815.09	72.809
815.39	73.181
815.70	73.467
816.00	73.434
816.30	72.958
816.60	72.253
816.90	72.053
817.20	72.273
817.50	72.000
817.81	71.786
818.11	71.611
818.41	71.541
818.71	71.370
819.01	71.376
819.31	71.507
819.61	71.702
819.92	71.999
820.22	72.258
820.52	72.342
820.82	72.448
821.12	72.796
821.42	73.055
821.72	73.243
822.02	73.638
822.32	73.958
822.62	74.219
822.92	74.425
823.22	74.712
823.52	74.847
823.83	75.121
824.13	75.341
824.43	75.229
824.73	75.242
825.03	75.223
825.33	75.132
825.63	74.903
825.93	74.797
826.23	74.779
826.53	74.539
826.83	74.559
827.13	74.436
827.43	74.461
827.73	74.835
828.03	75.247
828.33	75.685
828.63	75.825
828.93	76.046
829.23	76.093
829.53	75.822
829.83	75.691
830.13	75.321
830.42	75.239
830.72	74.815
831.02	74.409
831.32	73.715
831.62	73.314
831.92	73.145
832.22	73.110
832.52	73.064
832.82	73.552
833.12	73.716
833.42	73.820
833.72	73.631
834.01	73.772
834.31	73.740
834.61	74.145
834.91	74.816
835.21	75.380
835.51	75.617
835.81	75.554
836.11	75.353
836.40	75.294
836.70	75.874
837.00	76.426
837.30	76.194
837.60	76.486
837.90	76.352
838.19	75.526
838.49	74.710
838.79	74.991
839.09	74.887
839.39	74.754
839.68	74.597
839.98	74.512
840.28	74.057
840.58	74.542
840.88	75.211
841.17	75.004
841.47	75.324
841.77	75.911
842.07	75.576
842.36	76.836
842.66	77.064
842.96	76.605
843.26	76.040
843.55	76.187
843.85	75.954
844.15	75.243
844.45	74.195
844.74	74.210
845.04	72.300
845.34	71.752
845.63	69.797
845.93	69.983
846.23	71.333
846.53	70.317
846.82	70.883
847.12	71.629
847.42	69.621
847.71	69.618
848.01	68.087
848.31	69.689
848.60	69.006
848.90	68.085
849.19	67.218
849.49	66.675
849.79	68.685
850.08	68.566
850.38	66.377
850.68	68.063
850.97	69.269
851.27	69.822
851.56	69.430
851.86	70.308
852.16	73.468
852.45	73.084
852.75	72.364
853.04	73.154
853.34	72.699
853.64	74.268
853.93	74.162
854.23	74.098
854.52	74.092
854.82	72.437
855.11	70.900
855.41	71.102
855.70	73.405
856.00	74.495
856.30	73.863
856.59	74.909
856.89	76.367
857.18	76.826
857.48	76.541
857.77	75.677
858.07	76.954
858.36	77.593
858.66	75.344
858.95	75.145
859.25	75.395
859.54	75.311
859.84	75.086
860.13	73.034
860.42	71.803
860.72	70.821
861.01	70.398
861.31	71.307
861.60	73.082
861.90	74.812
862.19	74.027
862.49	73.413
862.78	71.785
863.07	71.450
863.37	72.599
863.66	73.021
863.96	76.002
864.25	78.030
864.54	78.450
864.84	77.493
865.13	76.235
865.43	77.314
865.72	83.580
866.01	84.772
866.31	77.791
866.60	65.006
866.89	88.576
>>>>>End Spectral Data<<<<<
