OOIBase32 Version 2.0.0.6 Data File
++++++++++++++++++++++++++++++++++++
Date: 01-23-2012, 23:05:26
User: Valued Ocean Optics Customer
Spectrometer Serial Number: USB2E2917
Spectrometer Channel: Master
Integration Time (msec): 5
Spectra Averaged: 10
Boxcar Smoothing: 5
Correct for Electrical Dark: Enabled
Time Normalized: Disabled
Dual-beam Reference: Disabled
Reference Channel: Master
Temperature: Not acquired
Spectrometer Type: S2000
ADC Type: USB2000
Number of Pixels in File: 2048
Graph Title: 
>>>>>Begin Spectral Data<<<<<
180.30	0.000
180.67	0.000
181.03	0.580
181.40	208.322
181.77	-10981.498
182.14	42.007
182.51	-686.261
182.88	4.582
183.25	112.946
183.62	128.135
183.99	19.565
184.36	65.718
184.73	229.694
185.10	-6.766
185.46	-370.524
185.83	-298.019
186.20	550.797
186.57	86.245
186.94	115.956
187.31	11.614
187.68	0.373
188.05	21.190
188.42	29.836
188.78	31.141
189.15	292.963
189.52	-44.509
189.89	-13.892
190.26	15.970
190.63	14.377
191.00	27.397
191.37	28.371
191.73	29.989
192.10	28.999
192.47	22.473
192.84	16.533
193.21	19.338
193.58	9.784
193.94	4.089
194.31	-5.733
194.68	-9.455
195.05	-17.781
195.42	-18.416
195.79	-27.789
196.15	-35.918
196.52	-42.122
196.89	-37.112
197.26	-47.117
197.63	-25.446
198.00	-15.894
198.36	-13.602
198.73	-33.969
199.10	-27.251
199.47	-18.146
199.84	-12.198
200.20	-18.415
200.57	-1.820
200.94	-6.701
201.31	9.815
201.68	3.620
202.04	-4.741
202.41	7.218
202.78	13.049
203.15	2.280
203.51	-8.334
203.88	-20.786
204.25	-28.045
204.62	-39.343
204.98	-49.174
205.35	-65.443
205.72	-49.723
206.09	-31.643
206.46	-97.478
206.82	-77.295
207.19	-83.598
207.56	-135.211
207.92	-101.948
208.29	-104.085
208.66	-77.584
209.03	-65.480
209.39	-40.016
209.76	-54.377
210.13	-103.453
210.50	-60.218
210.86	-53.274
211.23	-48.648
211.60	-15.144
211.96	-19.450
212.33	10.152
212.70	10.944
213.07	10.617
213.43	-20.210
213.80	-27.254
214.17	-4.907
214.53	-6.754
214.90	-1.004
215.27	-0.025
215.63	-5.584
216.00	-3.387
216.37	-15.966
216.74	-18.309
217.10	-13.180
217.47	-11.641
217.84	-6.918
218.20	-16.501
218.57	-6.931
218.94	-3.597
219.30	-2.730
219.67	-8.897
220.04	-6.426
220.40	-11.977
220.77	-20.366
221.13	-19.391
221.50	-11.647
221.87	-9.384
222.23	-11.852
222.60	-15.953
222.97	-16.415
223.33	-14.882
223.70	-10.802
224.07	-11.397
224.43	-6.973
224.80	-2.208
225.16	-4.626
225.53	-5.408
225.90	-6.629
226.26	-2.762
226.63	-2.435
226.99	-2.489
227.36	-1.581
227.73	0.749
228.09	1.915
228.46	2.788
228.82	4.089
229.19	3.485
229.56	3.702
229.92	5.082
230.29	4.896
230.65	5.158
231.02	3.260
231.38	0.288
231.75	-2.115
232.12	-6.789
232.48	-9.594
232.85	-10.926
233.21	-8.540
233.58	-8.358
233.94	-10.773
234.31	-10.494
234.68	-11.154
235.04	-9.374
235.41	-6.916
235.77	-5.481
236.14	-1.434
236.50	0.820
236.87	1.608
237.23	2.749
237.60	2.625
237.96	4.014
238.33	3.063
238.69	3.227
239.06	2.857
239.42	2.578
239.79	1.423
240.15	0.855
240.52	0.850
240.88	0.585
241.25	-0.227
241.61	-0.305
241.98	-1.016
242.34	-0.470
242.71	-0.156
243.07	0.042
243.44	0.246
243.80	0.784
244.17	1.025
244.53	0.779
244.90	0.649
245.26	0.726
245.63	0.783
245.99	0.955
246.36	0.769
246.72	0.845
247.09	0.424
247.45	0.617
247.81	1.000
248.18	0.754
248.54	0.993
248.91	1.006
249.27	1.257
249.64	1.857
250.00	2.206
250.36	2.270
250.73	2.030
251.09	2.658
251.46	2.327
251.82	1.538
252.19	1.675
252.55	1.527
252.91	1.639
253.28	1.442
253.64	0.454
254.01	0.334
254.37	0.153
254.73	0.389
255.10	0.805
255.46	1.331
255.83	1.726
256.19	1.752
256.55	1.538
256.92	1.692
257.28	1.782
257.65	2.086
258.01	2.223
258.37	2.319
258.74	2.254
259.10	1.953
259.46	1.660
259.83	1.555
260.19	1.364
260.55	1.541
260.92	1.298
261.28	1.228
261.64	1.049
262.01	0.933
262.37	0.798
262.73	0.742
263.10	0.826
263.46	1.082
263.82	1.005
264.19	0.923
264.55	0.396
264.91	0.584
265.28	0.591
265.64	0.517
266.00	0.352
266.37	0.326
266.73	0.270
267.09	0.496
267.46	0.397
267.82	0.134
268.18	0.450
268.54	0.852
268.91	0.612
269.27	0.583
269.63	0.707
270.00	0.846
270.36	0.896
270.72	1.267
271.08	1.073
271.45	1.022
271.81	1.193
272.17	1.141
272.53	0.992
272.90	1.138
273.26	1.133
273.62	1.105
273.98	0.846
274.35	0.756
274.71	0.690
275.07	0.757
275.43	0.920
275.80	0.879
276.16	0.778
276.52	0.923
276.88	0.924
277.25	0.673
277.61	0.405
277.97	0.333
278.33	0.624
278.69	0.144
279.06	0.156
279.42	0.046
279.78	0.366
280.14	0.685
280.50	0.864
280.87	1.002
281.23	1.207
281.59	1.432
281.95	1.489
282.31	1.428
282.68	1.592
283.04	1.536
283.40	1.623
283.76	1.428
284.12	1.261
284.48	1.142
284.85	1.082
285.21	1.111
285.57	1.016
285.93	1.065
286.29	1.057
286.65	1.184
287.02	1.452
287.38	1.371
287.74	1.363
288.10	1.361
288.46	1.279
288.82	1.273
289.18	1.326
289.54	1.447
289.91	1.458
290.27	1.480
290.63	1.508
290.99	1.264
291.35	1.178
291.71	1.210
292.07	1.211
292.43	1.162
292.79	1.134
293.16	0.935
293.52	0.996
293.88	1.108
294.24	1.104
294.60	1.029
294.96	1.144
295.32	1.322
295.68	1.383
296.04	1.389
296.40	1.506
296.76	1.607
297.12	1.711
297.49	1.556
297.85	1.429
298.21	1.279
298.57	1.142
298.93	1.068
299.29	0.782
299.65	0.762
300.01	0.768
300.37	0.793
300.73	0.776
301.09	0.690
301.45	0.679
301.81	0.780
302.17	0.863
302.53	0.792
302.89	0.806
303.25	1.111
303.61	1.028
303.97	0.940
304.33	0.854
304.69	0.832
305.05	0.840
305.41	0.947
305.77	1.018
306.13	1.139
306.49	1.219
306.85	1.280
307.21	1.130
307.57	1.114
307.93	1.189
308.29	1.322
308.65	1.352
309.01	1.325
309.37	1.308
309.73	1.271
310.09	1.322
310.45	1.345
310.81	1.325
311.17	1.358
311.53	1.326
311.89	1.357
312.25	1.400
312.61	1.284
312.96	1.421
313.32	1.467
313.68	1.332
314.04	1.233
314.40	1.307
314.76	1.233
315.12	1.168
315.48	1.200
315.84	1.107
316.20	0.961
316.56	0.948
316.92	0.855
317.27	0.809
317.63	0.860
317.99	0.746
318.35	0.658
318.71	0.707
319.07	0.819
319.43	0.864
319.79	1.043
320.15	1.101
320.50	1.263
320.86	1.264
321.22	1.218
321.58	1.300
321.94	1.338
322.30	1.347
322.66	1.253
323.01	1.202
323.37	1.223
323.73	1.081
324.09	0.980
324.45	0.884
324.81	0.775
325.17	0.828
325.52	0.745
325.88	0.715
326.24	0.756
326.60	0.787
326.96	0.761
327.31	0.633
327.67	0.525
328.03	0.612
328.39	0.508
328.75	0.655
329.11	0.645
329.46	0.687
329.82	0.735
330.18	0.675
330.54	0.618
330.90	0.578
331.25	0.603
331.61	0.784
331.97	0.801
332.33	0.961
332.68	0.950
333.04	0.902
333.40	0.762
333.76	0.689
334.11	0.663
334.47	0.735
334.83	0.772
335.19	0.759
335.54	0.687
335.90	0.574
336.26	0.446
336.62	0.357
336.97	0.337
337.33	0.359
337.69	0.420
338.05	0.415
338.40	0.357
338.76	0.293
339.12	0.454
339.48	0.438
339.83	0.467
340.19	0.611
340.55	0.721
340.90	0.646
341.26	0.681
341.62	0.588
341.97	0.548
342.33	0.646
342.69	0.723
343.04	0.637
343.40	0.517
343.76	0.432
344.12	0.417
344.47	0.379
344.83	0.573
345.19	0.646
345.54	0.745
345.90	0.825
346.26	0.821
346.61	0.831
346.97	0.839
347.32	0.992
347.68	1.072
348.04	1.005
348.39	0.937
348.75	0.884
349.11	0.827
349.46	0.742
349.82	0.675
350.18	0.611
350.53	0.549
350.89	0.535
351.24	0.459
351.60	0.447
351.96	0.424
352.31	0.461
352.67	0.438
353.02	0.390
353.38	0.426
353.74	0.486
354.09	0.463
354.45	0.512
354.80	0.539
355.16	0.575
355.52	0.644
355.87	0.643
356.23	0.661
356.58	0.653
356.94	0.708
357.29	0.729
357.65	0.703
358.00	0.743
358.36	0.745
358.72	0.707
359.07	0.690
359.43	0.662
359.78	0.679
360.14	0.692
360.49	0.663
360.85	0.654
361.20	0.654
361.56	0.645
361.91	0.607
362.27	0.607
362.62	0.635
362.98	0.673
363.33	0.631
363.69	0.579
364.04	0.592
364.40	0.586
364.75	0.588
365.11	0.539
365.46	0.503
365.82	0.571
366.17	0.534
366.53	0.553
366.88	0.530
367.24	0.582
367.59	0.628
367.95	0.643
368.30	0.666
368.66	0.674
369.01	0.708
369.37	0.768
369.72	0.771
370.08	0.834
370.43	0.790
370.78	0.815
371.14	0.745
371.49	0.745
371.85	0.712
372.20	0.726
372.56	0.732
372.91	0.737
373.26	0.718
373.62	0.642
373.97	0.598
374.33	0.586
374.68	0.562
375.03	0.611
375.39	0.602
375.74	0.560
376.10	0.542
376.45	0.529
376.80	0.535
377.16	0.532
377.51	0.569
377.87	0.577
378.22	0.560
378.57	0.565
378.93	0.605
379.28	0.622
379.63	0.684
379.99	0.734
380.34	0.744
380.70	0.734
381.05	0.786
381.40	0.747
381.76	0.750
382.11	0.800
382.46	0.853
382.82	0.811
383.17	0.818
383.52	0.783
383.88	0.749
384.23	0.745
384.58	0.752
384.94	0.680
385.29	0.728
385.64	0.746
385.99	0.749
386.35	0.726
386.70	0.728
387.05	0.681
387.41	0.665
387.76	0.645
388.11	0.649
388.47	0.632
388.82	0.669
389.17	0.658
389.52	0.651
389.88	0.650
390.23	0.640
390.58	0.651
390.93	0.672
391.29	0.677
391.64	0.704
391.99	0.764
392.34	0.806
392.70	0.819
393.05	0.800
393.40	0.790
393.75	0.798
394.11	0.801
394.46	0.759
394.81	0.778
395.16	0.771
395.52	0.750
395.87	0.706
396.22	0.675
396.57	0.639
396.92	0.609
397.28	0.629
397.63	0.580
397.98	0.587
398.33	0.591
398.68	0.575
399.04	0.593
399.39	0.602
399.74	0.591
400.09	0.596
400.44	0.608
400.80	0.649
401.15	0.633
401.50	0.647
401.85	0.633
402.20	0.661
402.55	0.692
402.90	0.676
403.26	0.681
403.61	0.670
403.96	0.667
404.31	0.663
404.66	0.673
405.01	0.659
405.36	0.668
405.72	0.669
406.07	0.639
406.42	0.611
406.77	0.614
407.12	0.615
407.47	0.620
407.82	0.631
408.17	0.621
408.53	0.618
408.88	0.607
409.23	0.604
409.58	0.576
409.93	0.600
410.28	0.601
410.63	0.591
410.98	0.564
411.33	0.570
411.68	0.587
412.03	0.620
412.38	0.602
412.73	0.649
413.09	0.669
413.44	0.728
413.79	0.764
414.14	0.810
414.49	0.866
414.84	0.918
415.19	0.946
415.54	0.971
415.89	0.981
416.24	1.044
416.59	1.062
416.94	1.089
417.29	1.107
417.64	1.109
417.99	1.114
418.34	1.126
418.69	1.137
419.04	1.150
419.39	1.157
419.74	1.175
420.09	1.165
420.44	1.179
420.79	1.176
421.14	1.175
421.49	1.196
421.84	1.181
422.19	1.190
422.54	1.182
422.89	1.178
423.24	1.169
423.59	1.157
423.94	1.147
424.29	1.132
424.64	1.135
424.99	1.110
425.34	1.075
425.68	1.069
426.03	1.029
426.38	1.028
426.73	1.001
427.08	0.990
427.43	1.006
427.78	1.022
428.13	1.020
428.48	1.008
428.83	1.028
429.18	1.039
429.53	1.049
429.87	1.058
430.22	1.046
430.57	1.061
430.92	1.064
431.27	1.060
431.62	1.041
431.97	1.045
432.32	1.036
432.67	1.026
433.01	1.006
433.36	0.994
433.71	0.993
434.06	0.991
434.41	0.978
434.76	0.986
435.11	0.966
435.45	0.978
435.80	0.968
436.15	0.983
436.50	1.001
436.85	1.021
437.20	1.032
437.54	1.025
437.89	1.038
438.24	1.057
438.59	1.051
438.94	1.066
439.29	1.054
439.63	1.054
439.98	1.042
440.33	1.028
440.68	1.033
441.03	1.046
441.37	1.061
441.72	1.061
442.07	1.057
442.42	1.068
442.76	1.072
443.11	1.084
443.46	1.107
443.81	1.119
444.16	1.137
444.50	1.131
444.85	1.122
445.20	1.115
445.55	1.126
445.89	1.126
446.24	1.106
446.59	1.082
446.94	1.069
447.28	1.042
447.63	1.031
447.98	1.003
448.32	0.982
448.67	0.967
449.02	0.956
449.37	0.924
449.71	0.908
450.06	0.907
450.41	0.912
450.75	0.904
451.10	0.899
451.45	0.883
451.79	0.862
452.14	0.864
452.49	0.865
452.84	0.849
453.18	0.827
453.53	0.811
453.88	0.813
454.22	0.812
454.57	0.835
454.92	0.849
455.26	0.863
455.61	0.919
455.95	0.942
456.30	0.954
456.65	0.984
456.99	1.014
457.34	1.048
457.69	1.063
458.03	1.075
458.38	1.072
458.73	1.066
459.07	1.053
459.42	1.017
459.76	0.986
460.11	0.961
460.46	0.923
460.80	0.894
461.15	0.853
461.49	0.800
461.84	0.792
462.19	0.759
462.53	0.747
462.88	0.744
463.22	0.730
463.57	0.742
463.91	0.739
464.26	0.765
464.61	0.763
464.95	0.760
465.30	0.773
465.64	0.762
465.99	0.769
466.33	0.769
466.68	0.766
467.02	0.774
467.37	0.748
467.71	0.739
468.06	0.728
468.41	0.713
468.75	0.713
469.10	0.723
469.44	0.695
469.79	0.678
470.13	0.637
470.48	0.626
470.82	0.609
471.17	0.625
471.51	0.612
471.86	0.594
472.20	0.590
472.55	0.576
472.89	0.562
473.23	0.557
473.58	0.558
473.92	0.572
474.27	0.558
474.61	0.535
474.96	0.533
475.30	0.544
475.65	0.533
475.99	0.533
476.34	0.539
476.68	0.532
477.02	0.545
477.37	0.552
477.71	0.582
478.06	0.630
478.40	0.720
478.75	0.782
479.09	0.862
479.43	0.962
479.78	1.045
480.12	1.115
480.47	1.188
480.81	1.254
481.15	1.317
481.50	1.380
481.84	1.439
482.19	1.481
482.53	1.524
482.87	1.552
483.22	1.544
483.56	1.523
483.90	1.495
484.25	1.451
484.59	1.408
484.94	1.361
485.28	1.307
485.62	1.254
485.97	1.199
486.31	1.154
486.65	1.109
487.00	1.092
487.34	1.079
487.68	1.064
488.03	1.059
488.37	1.053
488.71	1.049
489.06	1.035
489.40	1.022
489.74	1.011
490.09	0.992
490.43	0.973
490.77	0.938
491.11	0.896
491.46	0.874
491.80	0.846
492.14	0.806
492.49	0.778
492.83	0.736
493.17	0.694
493.51	0.651
493.86	0.604
494.20	0.570
494.54	0.545
494.88	0.560
495.23	0.562
495.57	0.567
495.91	0.587
496.25	0.582
496.60	0.604
496.94	0.614
497.28	0.616
497.62	0.620
497.97	0.621
498.31	0.626
498.65	0.626
498.99	0.610
499.33	0.620
499.68	0.610
500.02	0.627
500.36	0.624
500.70	0.619
501.04	0.619
501.39	0.626
501.73	0.640
502.07	0.676
502.41	0.681
502.75	0.719
503.09	0.741
503.44	0.763
503.78	0.776
504.12	0.798
504.46	0.840
504.80	0.899
505.14	0.953
505.49	1.007
505.83	1.033
506.17	1.098
506.51	1.134
506.85	1.183
507.19	1.233
507.53	1.271
507.87	1.329
508.22	1.369
508.56	1.399
508.90	1.429
509.24	1.456
509.58	1.490
509.92	1.525
510.26	1.564
510.60	1.606
510.94	1.666
511.28	1.721
511.63	1.782
511.97	1.839
512.31	1.913
512.65	1.985
512.99	2.083
513.33	2.214
513.67	2.321
514.01	2.474
514.35	2.600
514.69	2.717
515.03	2.852
515.37	2.978
515.71	3.111
516.05	3.230
516.39	3.350
516.73	3.458
517.07	3.549
517.41	3.629
517.75	3.691
518.09	3.773
518.43	3.840
518.77	3.893
519.11	3.957
519.45	4.025
519.79	4.119
520.13	4.211
520.47	4.319
520.81	4.441
521.15	4.592
521.49	4.730
521.83	4.864
522.17	5.010
522.51	5.201
522.85	5.397
523.19	5.628
523.53	5.841
523.87	6.081
524.21	6.296
524.55	6.495
524.89	6.671
525.23	6.849
525.57	6.999
525.91	7.154
526.25	7.282
526.58	7.401
526.92	7.486
527.26	7.559
527.60	7.601
527.94	7.651
528.28	7.687
528.62	7.712
528.96	7.736
529.30	7.774
529.64	7.789
529.97	7.805
530.31	7.812
530.65	7.838
530.99	7.879
531.33	7.936
531.67	7.973
532.01	8.015
532.35	8.057
532.68	8.095
533.02	8.115
533.36	8.142
533.70	8.169
534.04	8.194
534.38	8.208
534.71	8.217
535.05	8.219
535.39	8.244
535.73	8.264
536.07	8.308
536.41	8.338
536.74	8.386
537.08	8.428
537.42	8.495
537.76	8.559
538.10	8.612
538.43	8.673
538.77	8.739
539.11	8.784
539.45	8.829
539.79	8.865
540.12	8.895
540.46	8.905
540.80	8.916
541.14	8.905
541.47	8.880
541.81	8.882
542.15	8.862
542.49	8.831
542.82	8.792
543.16	8.762
543.50	8.740
543.84	8.709
544.17	8.690
544.51	8.677
544.85	8.652
545.18	8.664
545.52	8.621
545.86	8.604
546.20	8.593
546.53	8.596
546.87	8.572
547.21	8.544
547.54	8.518
547.88	8.514
548.22	8.474
548.55	8.456
548.89	8.428
549.23	8.451
549.56	8.439
549.90	8.435
550.24	8.445
550.57	8.437
550.91	8.413
551.25	8.420
551.58	8.396
551.92	8.394
552.26	8.385
552.59	8.376
552.93	8.358
553.27	8.353
553.60	8.331
553.94	8.253
554.27	8.227
554.61	8.200
554.95	8.145
555.28	8.097
555.62	8.054
555.95	8.027
556.29	7.984
556.63	7.901
556.96	7.851
557.30	7.799
557.63	7.766
557.97	7.724
558.31	7.649
558.64	7.597
558.98	7.581
559.31	7.562
559.65	7.500
559.98	7.452
560.32	7.415
560.65	7.361
560.99	7.313
561.33	7.268
561.66	7.224
562.00	7.204
562.33	7.187
562.67	7.109
563.00	7.033
563.34	6.982
563.67	6.924
564.01	6.874
564.34	6.826
564.68	6.770
565.01	6.700
565.35	6.625
565.68	6.554
566.02	6.464
566.35	6.381
566.69	6.287
567.02	6.217
567.36	6.125
567.69	6.055
568.03	5.978
568.36	5.882
568.69	5.811
569.03	5.750
569.36	5.684
569.70	5.612
570.03	5.575
570.37	5.545
570.70	5.488
571.04	5.431
571.37	5.341
571.70	5.253
572.04	5.197
572.37	5.154
572.71	5.071
573.04	4.995
573.37	4.935
573.71	4.867
574.04	4.781
574.38	4.706
574.71	4.634
575.04	4.588
575.38	4.520
575.71	4.438
576.05	4.342
576.38	4.286
576.71	4.201
577.05	4.124
577.38	4.031
577.71	3.948
578.05	3.850
578.38	3.786
578.71	3.704
579.05	3.644
579.38	3.582
579.71	3.526
580.05	3.445
580.38	3.393
580.71	3.332
581.05	3.272
581.38	3.243
581.71	3.235
582.05	3.209
582.38	3.186
582.71	3.150
583.04	3.128
583.38	3.092
583.71	3.085
584.04	3.071
584.38	3.056
584.71	3.053
585.04	3.042
585.37	3.009
585.71	2.966
586.04	2.961
586.37	2.979
586.70	2.988
587.04	2.983
587.37	2.989
587.70	2.989
588.03	2.986
588.37	2.981
588.70	2.973
589.03	2.965
589.36	2.951
589.69	2.911
590.03	2.872
590.36	2.836
590.69	2.793
591.02	2.755
591.35	2.723
591.69	2.695
592.02	2.689
592.35	2.677
592.68	2.683
593.01	2.675
593.35	2.692
593.68	2.685
594.01	2.679
594.34	2.675
594.67	2.670
595.00	2.668
595.34	2.640
595.67	2.601
596.00	2.559
596.33	2.478
596.66	2.438
596.99	2.362
597.32	2.286
597.65	2.229
597.99	2.173
598.32	2.105
598.65	2.026
598.98	2.004
599.31	1.966
599.64	1.966
599.97	1.966
600.30	1.989
600.63	1.998
600.96	2.034
601.30	2.040
601.63	2.078
601.96	2.079
602.29	2.096
602.62	2.080
602.95	2.090
603.28	2.082
603.61	2.053
603.94	1.990
604.27	1.990
604.60	1.932
604.93	1.909
605.26	1.859
605.59	1.835
605.92	1.803
606.25	1.764
606.58	1.698
606.91	1.622
607.24	1.609
607.57	1.597
607.90	1.537
608.23	1.494
608.56	1.450
608.89	1.404
609.22	1.354
609.55	1.296
609.88	1.228
610.21	1.200
610.54	1.147
610.87	1.067
611.20	0.996
611.53	0.910
611.86	0.879
612.19	0.792
612.52	0.712
612.85	0.685
613.18	0.629
613.51	0.587
613.84	0.531
614.17	0.494
614.49	0.508
614.82	0.469
615.15	0.472
615.48	0.457
615.81	0.409
616.14	0.416
616.47	0.356
616.80	0.330
617.13	0.312
617.46	0.250
617.78	0.233
618.11	0.175
618.44	0.151
618.77	0.108
619.10	0.062
619.43	0.092
619.76	0.045
620.09	0.040
620.41	0.033
620.74	0.061
621.07	0.111
621.40	0.114
621.73	0.145
622.06	0.162
622.38	0.179
622.71	0.198
623.04	0.200
623.37	0.238
623.70	0.247
624.02	0.280
624.35	0.282
624.68	0.267
625.01	0.294
625.34	0.302
625.66	0.328
625.99	0.359
626.32	0.352
626.65	0.365
626.98	0.343
627.30	0.360
627.63	0.334
627.96	0.290
628.29	0.271
628.61	0.248
628.94	0.210
629.27	0.174
629.60	0.086
629.92	0.095
630.25	0.048
630.58	0.024
630.91	-0.013
631.23	-0.034
631.56	-0.045
631.89	-0.087
632.21	-0.117
632.54	-0.154
632.87	-0.199
633.19	-0.205
633.52	-0.276
633.85	-0.298
634.18	-0.342
634.50	-0.385
634.83	-0.419
635.16	-0.471
635.48	-0.510
635.81	-0.577
636.14	-0.617
636.46	-0.666
636.79	-0.709
637.11	-0.746
637.44	-0.829
637.77	-0.871
638.09	-0.922
638.42	-0.990
638.75	-1.046
639.07	-1.063
639.40	-1.106
639.73	-1.141
640.05	-1.188
640.38	-1.180
640.70	-1.202
641.03	-1.212
641.36	-1.243
641.68	-1.256
642.01	-1.252
642.33	-1.217
642.66	-1.217
642.98	-1.219
643.31	-1.233
643.64	-1.205
643.96	-1.234
644.29	-1.234
644.61	-1.199
644.94	-1.167
645.26	-1.171
645.59	-1.163
645.91	-1.178
646.24	-1.154
646.56	-1.148
646.89	-1.122
647.22	-1.121
647.54	-1.124
647.87	-1.123
648.19	-1.153
648.52	-1.185
648.84	-1.172
649.17	-1.201
649.49	-1.180
649.82	-1.205
650.14	-1.193
650.47	-1.210
650.79	-1.228
651.11	-1.227
651.44	-1.216
651.76	-1.221
652.09	-1.170
652.41	-1.164
652.74	-1.149
653.06	-1.150
653.39	-1.136
653.71	-1.129
654.04	-1.121
654.36	-1.068
654.68	-1.036
655.01	-1.003
655.33	-0.940
655.66	-0.957
655.98	-0.962
656.30	-0.978
656.63	-0.957
656.95	-0.965
657.28	-0.958
657.60	-0.966
657.92	-0.999
658.25	-1.058
658.57	-1.086
658.90	-1.150
659.22	-1.155
659.54	-1.177
659.87	-1.168
660.19	-1.242
660.51	-1.285
660.84	-1.349
661.16	-1.377
661.48	-1.399
661.81	-1.382
662.13	-1.448
662.45	-1.471
662.78	-1.487
663.10	-1.447
663.42	-1.452
663.75	-1.386
664.07	-1.398
664.39	-1.414
664.72	-1.414
665.04	-1.396
665.36	-1.350
665.69	-1.280
666.01	-1.183
666.33	-1.106
666.65	-1.086
666.98	-0.995
667.30	-0.977
667.62	-0.865
667.94	-0.764
668.27	-0.694
668.59	-0.596
668.91	-0.548
669.23	-0.475
669.56	-0.433
669.88	-0.368
670.20	-0.307
670.52	-0.301
670.85	-0.225
671.17	-0.155
671.49	-0.111
671.81	-0.014
672.13	0.019
672.46	0.082
672.78	0.140
673.10	0.242
673.42	0.328
673.74	0.434
674.07	0.573
674.39	0.697
674.71	0.776
675.03	0.964
675.35	1.107
675.67	1.227
676.00	1.356
676.32	1.444
676.64	1.534
676.96	1.615
677.28	1.714
677.60	1.820
677.92	1.931
678.25	1.996
678.57	2.065
678.89	2.089
679.21	2.145
679.53	2.234
679.85	2.344
680.17	2.396
680.49	2.474
680.81	2.509
681.13	2.578
681.46	2.611
681.78	2.738
682.10	2.805
682.42	2.887
682.74	3.002
683.06	3.052
683.38	3.148
683.70	3.258
684.02	3.356
684.34	3.451
684.66	3.519
684.98	3.619
685.30	3.667
685.62	3.715
685.94	3.813
686.26	3.850
686.58	3.860
686.90	3.883
687.22	3.893
687.54	3.879
687.86	3.902
688.18	3.848
688.50	3.829
688.82	3.811
689.14	3.791
689.46	3.790
689.78	3.788
690.10	3.837
690.42	3.842
690.74	3.917
691.06	4.000
691.38	4.074
691.70	4.228
692.02	4.316
692.34	4.448
692.66	4.639
692.98	4.838
693.30	5.085
693.62	5.298
693.94	5.545
694.26	5.772
694.57	6.021
694.89	6.293
695.21	6.543
695.53	6.845
695.85	7.092
696.17	7.359
696.49	7.633
696.81	7.866
697.13	8.148
697.44	8.399
697.76	8.706
698.08	9.033
698.40	9.345
698.72	9.671
699.04	9.950
699.36	10.358
699.67	10.689
699.99	11.003
700.31	11.434
700.63	11.923
700.95	12.398
701.27	12.849
701.58	13.214
701.90	13.604
702.22	14.133
702.54	14.676
702.86	15.120
703.17	15.618
703.49	16.132
703.81	16.585
704.13	16.938
704.45	17.419
704.76	17.896
705.08	18.419
705.40	18.969
705.72	19.406
706.03	19.862
706.35	20.332
706.67	20.752
706.99	21.303
707.30	21.818
707.62	22.333
707.94	22.830
708.26	23.332
708.57	23.861
708.89	24.358
709.21	24.851
709.53	25.327
709.84	25.879
710.16	26.446
710.48	26.914
710.79	27.423
711.11	27.951
711.43	28.506
711.74	28.999
712.06	29.555
712.38	30.144
712.69	30.691
713.01	31.232
713.33	31.819
713.64	32.510
713.96	33.068
714.28	33.719
714.59	34.407
714.91	34.973
715.23	35.586
715.54	36.059
715.86	36.651
716.17	37.292
716.49	37.885
716.81	38.487
717.12	38.995
717.44	39.674
717.76	40.288
718.07	40.667
718.39	41.216
718.70	41.715
719.02	42.369
719.33	42.863
719.65	43.342
719.97	43.853
720.28	44.226
720.60	44.728
720.91	45.177
721.23	45.684
721.54	46.385
721.86	46.974
722.17	47.557
722.49	47.971
722.81	48.426
723.12	48.913
723.44	49.400
723.75	49.964
724.07	50.351
724.38	50.792
724.70	51.182
725.01	51.552
725.33	51.918
725.64	52.267
725.96	52.732
726.27	52.996
726.59	53.492
726.90	53.926
727.22	54.101
727.53	54.623
727.84	54.934
728.16	55.222
728.47	55.610
728.79	55.921
729.10	56.268
729.42	56.534
729.73	56.869
730.05	57.063
730.36	57.448
730.67	57.843
730.99	58.107
731.30	58.341
731.62	58.615
731.93	58.773
732.24	59.024
732.56	59.368
732.87	59.863
733.19	60.316
733.50	60.662
733.81	60.844
734.13	61.237
734.44	61.523
734.76	61.842
735.07	62.234
735.38	62.622
735.70	63.003
736.01	63.210
736.32	63.334
736.64	63.645
736.95	63.734
737.26	63.858
737.58	64.033
737.89	64.161
738.20	64.394
738.52	64.517
738.83	64.716
739.14	64.876
739.45	65.111
739.77	65.266
740.08	65.385
740.39	65.787
740.71	66.256
741.02	66.555
741.33	66.726
741.64	66.972
741.96	67.340
742.27	67.549
742.58	67.865
742.90	67.916
743.21	68.089
743.52	68.284
743.83	68.088
744.14	68.169
744.46	68.520
744.77	68.819
745.08	68.754
745.39	68.621
745.71	68.736
746.02	68.685
746.33	68.940
746.64	68.803
746.95	68.540
747.27	68.672
747.58	68.773
747.89	68.540
748.20	68.662
748.51	69.023
748.82	69.099
749.14	69.164
749.45	69.388
749.76	69.437
750.07	69.901
750.38	70.290
750.69	70.589
751.01	70.497
751.32	70.631
751.63	70.669
751.94	70.421
752.25	70.330
752.56	70.256
752.87	70.068
753.18	69.995
753.49	69.922
753.81	69.931
754.12	69.858
754.43	70.060
754.74	70.003
755.05	69.915
755.36	70.141
755.67	70.398
755.98	70.483
756.29	70.560
756.60	70.712
756.91	70.566
757.22	70.696
757.53	70.776
757.84	70.617
758.15	70.695
758.46	70.722
758.77	70.625
759.09	70.561
759.40	70.613
759.71	70.609
760.02	70.477
760.33	70.408
760.64	70.111
760.95	70.025
761.26	70.034
761.57	69.936
761.88	69.872
762.18	69.954
762.49	69.965
762.80	69.968
763.11	70.046
763.42	70.011
763.73	70.028
764.04	70.101
764.35	70.145
764.66	70.081
764.97	70.187
765.28	70.292
765.59	70.188
765.90	70.113
766.21	70.040
766.52	69.902
766.83	69.931
767.14	70.001
767.44	69.941
767.75	69.807
768.06	69.851
768.37	69.590
768.68	69.376
768.99	69.321
769.30	69.234
769.61	69.047
769.91	68.885
770.22	68.612
770.53	68.310
770.84	68.354
771.15	68.343
771.46	68.230
771.77	68.302
772.07	68.474
772.38	68.426
772.69	68.497
773.00	68.468
773.31	68.425
773.61	68.450
773.92	68.807
774.23	68.920
774.54	68.929
774.85	68.935
775.15	68.541
775.46	67.966
775.77	67.995
776.08	67.983
776.39	67.783
776.69	67.769
777.00	67.909
777.31	67.796
777.62	67.539
777.92	67.499
778.23	67.387
778.54	67.647
778.85	67.843
779.15	67.776
779.46	67.435
779.77	67.674
780.07	67.777
780.38	67.984
780.69	67.776
781.00	67.723
781.30	67.706
781.61	67.734
781.92	67.779
782.22	68.042
782.53	68.024
782.84	68.261
783.14	68.549
783.45	68.499
783.76	68.460
784.06	68.489
784.37	68.543
784.68	68.399
784.98	68.489
785.29	68.729
785.60	68.632
785.90	68.909
786.21	68.642
786.51	68.532
786.82	68.812
787.13	68.968
787.43	69.172
787.74	69.575
788.04	69.972
788.35	70.050
788.66	69.994
788.96	70.244
789.27	69.966
789.57	70.202
789.88	70.249
790.19	70.009
790.49	69.674
790.80	69.492
791.10	69.173
791.41	68.906
791.71	68.914
792.02	68.934
792.32	68.675
792.63	68.730
792.93	68.854
793.24	68.650
793.54	68.760
793.85	68.716
794.15	68.644
794.46	68.725
794.76	68.863
795.07	68.876
795.37	68.637
795.68	68.808
795.98	69.168
796.29	69.414
796.59	69.326
796.90	69.283
797.20	69.441
797.51	69.570
797.81	69.477
798.12	69.386
798.42	69.566
798.72	69.791
799.03	69.719
799.33	69.553
799.64	69.166
799.94	69.572
800.25	69.332
800.55	69.385
800.85	69.528
801.16	69.737
801.46	69.527
801.77	69.361
802.07	69.571
802.37	69.723
802.68	69.687
802.98	70.032
803.28	69.965
803.59	70.570
803.89	71.039
804.20	71.184
804.50	71.114
804.80	71.412
805.11	71.415
805.41	71.058
805.71	70.685
806.02	70.483
806.32	70.527
806.62	70.479
806.93	70.131
807.23	70.083
807.53	69.726
807.83	69.392
808.14	69.689
808.44	69.832
808.74	69.882
809.05	70.114
809.35	69.906
809.65	69.997
809.95	70.089
810.26	70.087
810.56	69.634
810.86	69.875
811.16	70.314
811.47	70.641
811.77	70.935
812.07	70.810
812.37	70.861
812.68	71.197
812.98	71.031
813.28	71.113
813.58	71.451
813.88	71.251
814.19	71.802
814.49	72.404
814.79	72.056
815.09	71.926
815.39	72.246
815.70	72.459
816.00	72.519
816.30	72.384
816.60	72.365
816.90	71.729
817.20	71.750
817.50	71.150
817.81	70.370
818.11	69.946
818.41	69.513
818.71	69.403
819.01	69.432
819.31	69.758
819.61	70.004
819.92	70.278
820.22	70.628
820.52	70.742
820.82	71.033
821.12	71.449
821.42	71.825
821.72	72.135
822.02	72.646
822.32	73.078
822.62	73.416
822.92	73.776
823.22	74.083
823.52	74.400
823.83	74.755
824.13	74.932
824.43	74.786
824.73	74.917
825.03	75.056
825.33	74.962
825.63	74.754
825.93	74.467
826.23	74.161
826.53	73.928
826.83	73.762
827.13	73.891
827.43	74.026
827.73	74.708
828.03	75.029
828.33	75.456
828.63	75.509
828.93	75.855
829.23	76.064
829.53	76.127
829.83	75.693
830.13	75.332
830.42	74.711
830.72	74.225
831.02	73.638
831.32	73.150
831.62	72.849
831.92	72.625
832.22	72.061
832.52	71.922
832.82	72.210
833.12	72.473
833.42	72.608
833.72	72.668
834.01	73.204
834.31	73.484
834.61	73.717
834.91	74.259
835.21	74.474
835.51	74.781
835.81	75.008
836.11	74.806
836.40	74.687
836.70	74.820
837.00	74.934
837.30	74.106
837.60	73.513
837.90	73.065
838.19	72.037
838.49	72.584
838.79	72.930
839.09	72.892
839.39	73.290
839.68	73.474
839.98	73.096
840.28	73.038
840.58	73.053
840.88	73.765
841.17	73.564
841.47	74.512
841.77	73.500
842.07	73.550
842.36	73.641
842.66	73.091
842.96	72.122
843.26	72.766
843.55	72.590
843.85	73.120
844.15	72.593
844.45	72.250
844.74	70.974
845.04	70.449
845.34	70.780
845.63	70.291
845.93	70.873
846.23	73.947
846.53	72.350
846.82	72.583
847.12	73.177
847.42	72.929
847.71	72.876
848.01	73.138
848.31	74.595
848.60	73.815
848.90	73.827
849.19	73.677
849.49	72.127
849.79	73.634
850.08	75.059
850.38	73.348
850.68	73.722
850.97	75.489
851.27	75.079
851.56	74.124
851.86	74.127
852.16	75.363
852.45	75.043
852.75	75.883
853.04	76.959
853.34	76.167
853.64	77.570
853.93	76.284
854.23	74.810
854.52	74.865
854.82	75.043
855.11	74.320
855.41	74.729
855.70	75.695
856.00	75.222
856.30	74.015
856.59	75.488
856.89	74.632
857.18	76.180
857.48	76.532
857.77	75.691
858.07	74.941
858.36	75.364
858.66	73.999
858.95	72.757
859.25	71.998
859.54	72.462
859.84	70.945
860.13	69.703
860.42	69.442
860.72	69.241
861.01	71.470
861.31	71.473
861.60	72.372
861.90	73.795
862.19	74.580
862.49	73.666
862.78	72.726
863.07	74.202
863.37	75.727
863.66	73.502
863.96	74.438
864.25	73.367
864.54	73.934
864.84	74.066
865.13	73.037
865.43	73.067
865.72	77.043
866.01	70.858
866.31	79.177
866.60	72.908
866.89	75.511
>>>>>End Spectral Data<<<<<
