OOIBase32 Version 2.0.0.6 Data File
++++++++++++++++++++++++++++++++++++
Date: 01-23-2012, 23:18:45
User: Valued Ocean Optics Customer
Spectrometer Serial Number: USB2E2917
Spectrometer Channel: Master
Integration Time (msec): 5
Spectra Averaged: 10
Boxcar Smoothing: 5
Correct for Electrical Dark: Enabled
Time Normalized: Disabled
Dual-beam Reference: Disabled
Reference Channel: Master
Temperature: Not acquired
Spectrometer Type: S2000
ADC Type: USB2000
Number of Pixels in File: 2048
Graph Title: 
>>>>>Begin Spectral Data<<<<<
180.30	0.000
180.67	0.000
181.03	156.552
181.40	822.648
181.77	-5897.401
182.14	65.294
182.51	-427.019
182.88	-33.362
183.25	11.856
183.62	8.805
183.99	38.471
184.36	145.427
184.73	253.447
185.10	46.759
185.46	99.205
185.83	-479.349
186.20	875.864
186.57	31.146
186.94	22.366
187.31	41.012
187.68	73.109
188.05	47.280
188.42	94.361
188.78	151.477
189.15	226.466
189.52	-24.016
189.89	28.521
190.26	30.008
190.63	34.493
191.00	54.538
191.37	46.787
191.73	48.012
192.10	37.619
192.47	37.621
192.84	41.790
193.21	44.185
193.58	42.762
193.94	36.804
194.31	29.394
194.68	23.946
195.05	6.864
195.42	13.462
195.79	11.828
196.15	14.941
196.52	24.669
196.89	16.643
197.26	-11.926
197.63	-1.569
198.00	16.087
198.36	15.330
198.73	4.041
199.10	20.784
199.47	4.031
199.84	2.847
200.20	6.816
200.57	23.609
200.94	18.071
201.31	26.509
201.68	20.483
202.04	14.562
202.41	27.321
202.78	31.925
203.15	45.905
203.51	62.726
203.88	50.992
204.25	31.453
204.62	2.141
204.98	1.762
205.35	5.157
205.72	11.063
206.09	17.541
206.46	-8.950
206.82	-5.072
207.19	-17.411
207.56	-44.759
207.92	-32.314
208.29	-14.380
208.66	15.919
209.03	12.078
209.39	28.050
209.76	39.074
210.13	23.161
210.50	23.730
210.86	17.653
211.23	15.864
211.60	22.721
211.96	20.504
212.33	23.185
212.70	0.783
213.07	3.178
213.43	-25.086
213.80	-31.830
214.17	2.862
214.53	8.912
214.90	20.434
215.27	19.822
215.63	17.121
216.00	18.803
216.37	13.769
216.74	10.956
217.10	10.083
217.47	7.541
217.84	4.803
218.20	-1.484
218.57	-6.223
218.94	-9.310
219.30	-13.333
219.67	-16.663
220.04	-15.351
220.40	-16.601
220.77	-18.241
221.13	-18.065
221.50	-14.161
221.87	-13.121
222.23	-13.707
222.60	-22.544
222.97	-23.535
223.33	-14.085
223.70	-10.874
224.07	-11.486
224.43	-8.736
224.80	-3.926
225.16	-1.938
225.53	0.366
225.90	-0.007
226.26	2.249
226.63	3.581
226.99	4.164
227.36	3.109
227.73	3.732
228.09	4.613
228.46	6.268
228.82	6.540
229.19	5.888
229.56	5.017
229.92	6.916
230.29	5.898
230.65	6.638
231.02	4.898
231.38	3.476
231.75	2.031
232.12	0.261
232.48	-2.488
232.85	-3.340
233.21	-3.675
233.58	-5.276
233.94	-6.581
234.31	-7.958
234.68	-6.846
235.04	-6.003
235.41	-5.321
235.77	-2.518
236.14	-1.619
236.50	0.343
236.87	0.135
237.23	0.741
237.60	1.065
237.96	0.031
238.33	0.096
238.69	-1.247
239.06	-0.167
239.42	0.215
239.79	-0.691
240.15	-0.734
240.52	-0.488
240.88	0.203
241.25	0.320
241.61	0.512
241.98	0.497
242.34	0.532
242.71	1.355
243.07	1.455
243.44	1.488
243.80	1.543
244.17	1.847
244.53	1.371
244.90	1.399
245.26	1.356
245.63	1.382
245.99	1.616
246.36	1.588
246.72	1.642
247.09	1.575
247.45	1.600
247.81	1.959
248.18	1.754
248.54	2.207
248.91	2.136
249.27	2.581
249.64	2.605
250.00	2.580
250.36	2.791
250.73	2.319
251.09	2.233
251.46	2.107
251.82	1.529
252.19	1.369
252.55	0.753
252.91	0.854
253.28	-0.011
253.64	-0.449
254.01	-0.346
254.37	-0.173
254.73	0.358
255.10	0.715
255.46	1.362
255.83	1.514
256.19	1.654
256.55	1.520
256.92	1.482
257.28	1.837
257.65	2.115
258.01	2.261
258.37	2.093
258.74	1.864
259.10	1.520
259.46	1.311
259.83	1.238
260.19	1.154
260.55	1.502
260.92	1.416
261.28	1.210
261.64	1.114
262.01	0.854
262.37	1.084
262.73	1.337
263.10	1.612
263.46	1.594
263.82	1.566
264.19	1.394
264.55	0.847
264.91	0.886
265.28	0.722
265.64	0.526
266.00	0.464
266.37	0.520
266.73	0.560
267.09	0.546
267.46	0.447
267.82	0.518
268.18	0.762
268.54	0.989
268.91	0.951
269.27	1.076
269.63	1.371
270.00	1.342
270.36	1.163
270.72	1.239
271.08	1.219
271.45	1.236
271.81	1.281
272.17	1.345
272.53	1.501
272.90	1.709
273.26	1.974
273.62	1.744
273.98	1.710
274.35	1.684
274.71	1.590
275.07	1.574
275.43	1.485
275.80	1.340
276.16	1.175
276.52	1.047
276.88	0.882
277.25	0.389
277.61	0.351
277.97	0.477
278.33	0.742
278.69	0.536
279.06	0.425
279.42	0.506
279.78	0.715
280.14	0.736
280.50	0.807
280.87	0.904
281.23	1.042
281.59	1.154
281.95	1.143
282.31	1.007
282.68	0.966
283.04	0.967
283.40	1.051
283.76	1.045
284.12	1.267
284.48	1.230
284.85	1.162
285.21	1.231
285.57	1.244
285.93	1.285
286.29	1.212
286.65	1.448
287.02	1.919
287.38	1.800
287.74	1.643
288.10	1.497
288.46	1.460
288.82	1.323
289.18	1.440
289.54	1.489
289.91	1.538
290.27	1.717
290.63	1.889
290.99	1.657
291.35	1.858
291.71	2.058
292.07	1.985
292.43	1.952
292.79	2.010
293.16	1.788
293.52	1.782
293.88	1.680
294.24	1.628
294.60	1.419
294.96	1.242
295.32	1.192
295.68	1.227
296.04	1.263
296.40	1.309
296.76	1.402
297.12	1.358
297.49	1.264
297.85	1.276
298.21	1.200
298.57	1.124
298.93	1.340
299.29	1.217
299.65	1.095
300.01	1.040
300.37	1.073
300.73	1.257
301.09	1.434
301.45	1.473
301.81	1.581
302.17	1.643
302.53	1.582
302.89	1.468
303.25	1.633
303.61	1.543
303.97	1.430
304.33	1.419
304.69	1.233
305.05	1.170
305.41	1.198
305.77	1.119
306.13	1.150
306.49	1.181
306.85	1.120
307.21	1.155
307.57	1.356
307.93	1.425
308.29	1.520
308.65	1.451
309.01	1.416
309.37	1.318
309.73	1.251
310.09	1.343
310.45	1.446
310.81	1.478
311.17	1.396
311.53	1.289
311.89	1.367
312.25	1.307
312.61	1.319
312.96	1.350
313.32	1.522
313.68	1.503
314.04	1.353
314.40	1.350
314.76	1.412
315.12	1.464
315.48	1.528
315.84	1.435
316.20	1.397
316.56	1.422
316.92	1.347
317.27	1.231
317.63	1.291
317.99	1.240
318.35	1.142
318.71	1.070
319.07	1.073
319.43	1.060
319.79	1.109
320.15	1.075
320.50	1.080
320.86	1.137
321.22	1.169
321.58	1.176
321.94	1.209
322.30	1.180
322.66	1.240
323.01	1.112
323.37	1.025
323.73	1.036
324.09	1.043
324.45	1.102
324.81	1.113
325.17	1.112
325.52	1.134
325.88	1.089
326.24	1.109
326.60	1.013
326.96	1.122
327.31	1.096
327.67	1.037
328.03	1.018
328.39	0.945
328.75	0.980
329.11	1.006
329.46	1.042
329.82	1.177
330.18	1.305
330.54	1.354
330.90	1.366
331.25	1.523
331.61	1.627
331.97	1.646
332.33	1.723
332.68	1.685
333.04	1.683
333.40	1.518
333.76	1.386
334.11	1.290
334.47	1.291
334.83	1.191
335.19	1.030
335.54	0.985
335.90	0.955
336.26	0.834
336.62	0.767
336.97	0.635
337.33	0.601
337.69	0.605
338.05	0.532
338.40	0.496
338.76	0.529
339.12	0.595
339.48	0.525
339.83	0.505
340.19	0.571
340.55	0.676
340.90	0.734
341.26	0.755
341.62	0.795
341.97	0.840
342.33	0.899
342.69	0.948
343.04	0.942
343.40	0.937
343.76	0.945
344.12	0.947
344.47	0.941
344.83	1.000
345.19	1.150
345.54	1.164
345.90	1.158
346.26	1.191
346.61	1.184
346.97	1.186
347.32	1.253
347.68	1.268
348.04	1.252
348.39	1.146
348.75	1.164
349.11	1.127
349.46	1.097
349.82	1.138
350.18	1.091
350.53	1.127
350.89	1.134
351.24	1.069
351.60	1.086
351.96	1.104
352.31	1.143
352.67	1.166
353.02	1.125
353.38	1.177
353.74	1.168
354.09	1.103
354.45	1.038
354.80	1.027
355.16	1.090
355.52	1.123
355.87	1.053
356.23	1.096
356.58	1.034
356.94	1.059
357.29	1.054
357.65	1.110
358.00	1.168
358.36	1.184
358.72	1.152
359.07	1.147
359.43	1.118
359.78	1.159
360.14	1.188
360.49	1.186
360.85	1.183
361.20	1.128
361.56	1.067
361.91	1.077
362.27	1.086
362.62	1.105
362.98	1.126
363.33	1.095
363.69	1.096
364.04	1.052
364.40	1.035
364.75	1.031
365.11	1.090
365.46	1.060
365.82	1.087
366.17	1.023
366.53	1.075
366.88	1.035
367.24	1.080
367.59	1.098
367.95	1.140
368.30	1.181
368.66	1.204
369.01	1.150
369.37	1.210
369.72	1.247
370.08	1.307
370.43	1.294
370.78	1.340
371.14	1.303
371.49	1.314
371.85	1.243
372.20	1.232
372.56	1.226
372.91	1.261
373.26	1.228
373.62	1.145
373.97	1.135
374.33	1.130
374.68	1.123
375.03	1.170
375.39	1.157
375.74	1.173
376.10	1.188
376.45	1.209
376.80	1.231
377.16	1.235
377.51	1.251
377.87	1.297
378.22	1.252
378.57	1.245
378.93	1.251
379.28	1.293
379.63	1.328
379.99	1.367
380.34	1.378
380.70	1.372
381.05	1.428
381.40	1.449
381.76	1.454
382.11	1.546
382.46	1.573
382.82	1.596
383.17	1.594
383.52	1.559
383.88	1.514
384.23	1.477
384.58	1.483
384.94	1.463
385.29	1.484
385.64	1.493
385.99	1.476
386.35	1.487
386.70	1.491
387.05	1.450
387.41	1.475
387.76	1.475
388.11	1.485
388.47	1.462
388.82	1.480
389.17	1.437
389.52	1.424
389.88	1.452
390.23	1.486
390.58	1.492
390.93	1.542
391.29	1.594
391.64	1.649
391.99	1.695
392.34	1.758
392.70	1.767
393.05	1.812
393.40	1.845
393.75	1.822
394.11	1.779
394.46	1.761
394.81	1.754
395.16	1.706
395.52	1.683
395.87	1.658
396.22	1.669
396.57	1.639
396.92	1.620
397.28	1.570
397.63	1.562
397.98	1.567
398.33	1.567
398.68	1.552
399.04	1.572
399.39	1.576
399.74	1.568
400.09	1.525
400.44	1.564
400.80	1.577
401.15	1.581
401.50	1.579
401.85	1.608
402.20	1.613
402.55	1.648
402.90	1.623
403.26	1.611
403.61	1.602
403.96	1.628
404.31	1.606
404.66	1.609
405.01	1.620
405.36	1.613
405.72	1.577
406.07	1.569
406.42	1.534
406.77	1.533
407.12	1.532
407.47	1.557
407.82	1.547
408.17	1.527
408.53	1.516
408.88	1.493
409.23	1.502
409.58	1.494
409.93	1.483
410.28	1.500
410.63	1.468
410.98	1.458
411.33	1.449
411.68	1.459
412.03	1.495
412.38	1.468
412.73	1.513
413.09	1.526
413.44	1.546
413.79	1.570
414.14	1.572
414.49	1.630
414.84	1.655
415.19	1.665
415.54	1.666
415.89	1.653
416.24	1.704
416.59	1.701
416.94	1.717
417.29	1.747
417.64	1.744
417.99	1.759
418.34	1.768
418.69	1.777
419.04	1.791
419.39	1.809
419.74	1.826
420.09	1.833
420.44	1.849
420.79	1.845
421.14	1.840
421.49	1.863
421.84	1.864
422.19	1.882
422.54	1.884
422.89	1.888
423.24	1.877
423.59	1.877
423.94	1.851
424.29	1.827
424.64	1.839
424.99	1.822
425.34	1.788
425.68	1.775
426.03	1.728
426.38	1.725
426.73	1.704
427.08	1.697
427.43	1.695
427.78	1.707
428.13	1.701
428.48	1.670
428.83	1.666
429.18	1.671
429.53	1.670
429.87	1.670
430.22	1.652
430.57	1.665
430.92	1.660
431.27	1.659
431.62	1.661
431.97	1.673
432.32	1.679
432.67	1.686
433.01	1.664
433.36	1.671
433.71	1.671
434.06	1.649
434.41	1.633
434.76	1.638
435.11	1.623
435.45	1.617
435.80	1.608
436.15	1.618
436.50	1.619
436.85	1.654
437.20	1.649
437.54	1.662
437.89	1.686
438.24	1.687
438.59	1.696
438.94	1.708
439.29	1.693
439.63	1.720
439.98	1.709
440.33	1.702
440.68	1.696
441.03	1.697
441.37	1.712
441.72	1.719
442.07	1.731
442.42	1.732
442.76	1.729
443.11	1.749
443.46	1.745
443.81	1.760
444.16	1.778
444.50	1.786
444.85	1.783
445.20	1.762
445.55	1.758
445.89	1.748
446.24	1.738
446.59	1.731
446.94	1.715
447.28	1.700
447.63	1.686
447.98	1.664
448.32	1.636
448.67	1.619
449.02	1.610
449.37	1.591
449.71	1.596
450.06	1.586
450.41	1.574
450.75	1.599
451.10	1.601
451.45	1.572
451.79	1.567
452.14	1.564
452.49	1.579
452.84	1.590
453.18	1.582
453.53	1.554
453.88	1.556
454.22	1.580
454.57	1.566
454.92	1.566
455.26	1.599
455.61	1.628
455.95	1.656
456.30	1.673
456.65	1.695
456.99	1.723
457.34	1.754
457.69	1.765
458.03	1.770
458.38	1.792
458.73	1.797
459.07	1.802
459.42	1.783
459.76	1.760
460.11	1.721
460.46	1.695
460.80	1.660
461.15	1.637
461.49	1.613
461.84	1.598
462.19	1.559
462.53	1.551
462.88	1.531
463.22	1.523
463.57	1.514
463.91	1.524
464.26	1.532
464.61	1.549
464.95	1.522
465.30	1.509
465.64	1.499
465.99	1.504
466.33	1.506
466.68	1.506
467.02	1.497
467.37	1.507
467.71	1.512
468.06	1.497
468.41	1.481
468.75	1.489
469.10	1.497
469.44	1.503
469.79	1.488
470.13	1.433
470.48	1.420
470.82	1.416
471.17	1.408
471.51	1.391
471.86	1.381
472.20	1.369
472.55	1.364
472.89	1.358
473.23	1.334
473.58	1.335
473.92	1.351
474.27	1.343
474.61	1.329
474.96	1.327
475.30	1.325
475.65	1.321
475.99	1.330
476.34	1.334
476.68	1.339
477.02	1.353
477.37	1.355
477.71	1.405
478.06	1.433
478.40	1.508
478.75	1.574
479.09	1.659
479.43	1.747
479.78	1.842
480.12	1.934
480.47	2.025
480.81	2.105
481.15	2.180
481.50	2.248
481.84	2.335
482.19	2.404
482.53	2.467
482.87	2.515
483.22	2.523
483.56	2.500
483.90	2.455
484.25	2.396
484.59	2.336
484.94	2.278
485.28	2.219
485.62	2.151
485.97	2.078
486.31	2.020
486.65	1.966
487.00	1.944
487.34	1.930
487.68	1.930
488.03	1.934
488.37	1.941
488.71	1.948
489.06	1.947
489.40	1.953
489.74	1.946
490.09	1.934
490.43	1.918
490.77	1.893
491.11	1.869
491.46	1.856
491.80	1.836
492.14	1.805
492.49	1.791
492.83	1.756
493.17	1.710
493.51	1.689
493.86	1.675
494.20	1.662
494.54	1.660
494.88	1.688
495.23	1.703
495.57	1.732
495.91	1.782
496.25	1.796
496.60	1.833
496.94	1.860
497.28	1.892
497.62	1.912
497.97	1.930
498.31	1.970
498.65	1.989
498.99	2.011
499.33	2.055
499.68	2.071
500.02	2.105
500.36	2.137
500.70	2.183
501.04	2.222
501.39	2.248
501.73	2.313
502.07	2.381
502.41	2.437
502.75	2.515
503.09	2.569
503.44	2.649
503.78	2.727
504.12	2.797
504.46	2.885
504.80	2.987
505.14	3.090
505.49	3.181
505.83	3.252
506.17	3.350
506.51	3.437
506.85	3.535
507.19	3.626
507.53	3.735
507.87	3.850
508.22	3.930
508.56	4.011
508.90	4.106
509.24	4.204
509.58	4.304
509.92	4.420
510.26	4.524
510.60	4.630
510.94	4.756
511.28	4.858
511.63	4.967
511.97	5.110
512.31	5.251
512.65	5.402
512.99	5.568
513.33	5.765
513.67	5.945
514.01	6.164
514.35	6.371
514.69	6.573
515.03	6.786
515.37	7.000
515.71	7.189
516.05	7.381
516.39	7.553
516.73	7.718
517.07	7.865
517.41	8.008
517.75	8.139
518.09	8.271
518.43	8.398
518.77	8.514
519.11	8.636
519.45	8.763
519.79	8.899
520.13	9.052
520.47	9.226
520.81	9.420
521.15	9.630
521.49	9.834
521.83	10.037
522.17	10.236
522.51	10.466
522.85	10.709
523.19	10.959
523.53	11.251
523.87	11.548
524.21	11.813
524.55	12.084
524.89	12.309
525.23	12.531
525.57	12.741
525.91	12.946
526.25	13.121
526.58	13.271
526.92	13.415
527.26	13.501
527.60	13.570
527.94	13.635
528.28	13.668
528.62	13.709
528.96	13.746
529.30	13.779
529.64	13.788
529.97	13.816
530.31	13.830
530.65	13.861
530.99	13.920
531.33	13.980
531.67	14.037
532.01	14.103
532.35	14.154
532.68	14.192
533.02	14.212
533.36	14.236
533.70	14.236
534.04	14.263
534.38	14.276
534.71	14.284
535.05	14.293
535.39	14.311
535.73	14.304
536.07	14.333
536.41	14.360
536.74	14.407
537.08	14.460
537.42	14.540
537.76	14.608
538.10	14.674
538.43	14.741
538.77	14.823
539.11	14.894
539.45	14.972
539.79	15.026
540.12	15.064
540.46	15.092
540.80	15.104
541.14	15.093
541.47	15.069
541.81	15.062
542.15	15.057
542.49	15.020
542.82	14.976
543.16	14.932
543.50	14.891
543.84	14.852
544.17	14.821
544.51	14.813
544.85	14.788
545.18	14.809
545.52	14.796
545.86	14.773
546.20	14.782
546.53	14.782
546.87	14.773
547.21	14.757
547.54	14.740
547.88	14.733
548.22	14.721
548.55	14.727
548.89	14.722
549.23	14.705
549.56	14.686
549.90	14.711
550.24	14.712
550.57	14.709
550.91	14.712
551.25	14.724
551.58	14.718
551.92	14.705
552.26	14.679
552.59	14.640
552.93	14.621
553.27	14.630
553.60	14.560
553.94	14.515
554.27	14.490
554.61	14.474
554.95	14.439
555.28	14.396
555.62	14.357
555.95	14.342
556.29	14.332
556.63	14.284
556.96	14.223
557.30	14.182
557.63	14.126
557.97	14.067
558.31	13.990
558.64	13.917
558.98	13.853
559.31	13.815
559.65	13.747
559.98	13.640
560.32	13.579
560.65	13.511
560.99	13.421
561.33	13.354
561.66	13.268
562.00	13.179
562.33	13.121
562.67	13.039
563.00	12.951
563.34	12.895
563.67	12.853
564.01	12.784
564.34	12.706
564.68	12.623
565.01	12.537
565.35	12.454
565.68	12.370
566.02	12.260
566.35	12.166
566.69	12.055
567.02	11.933
567.36	11.780
567.69	11.658
568.03	11.552
568.36	11.442
568.69	11.337
569.03	11.243
569.36	11.149
569.70	11.042
570.03	10.973
570.37	10.880
570.70	10.810
571.04	10.754
571.37	10.663
571.70	10.557
572.04	10.474
572.37	10.377
572.71	10.267
573.04	10.178
573.37	10.113
573.71	10.010
574.04	9.921
574.38	9.805
574.71	9.704
575.04	9.608
575.38	9.517
575.71	9.434
576.05	9.346
576.38	9.293
576.71	9.209
577.05	9.097
577.38	9.009
577.71	8.904
578.05	8.823
578.38	8.738
578.71	8.665
579.05	8.591
579.38	8.501
579.71	8.437
580.05	8.339
580.38	8.256
580.71	8.191
581.05	8.117
581.38	8.065
581.71	8.019
582.05	7.962
582.38	7.931
582.71	7.890
583.04	7.879
583.38	7.784
583.71	7.733
584.04	7.701
584.38	7.678
584.71	7.659
585.04	7.630
585.37	7.584
585.71	7.557
586.04	7.509
586.37	7.503
586.70	7.454
587.04	7.485
587.37	7.455
587.70	7.438
588.03	7.424
588.37	7.390
588.70	7.372
589.03	7.341
589.36	7.315
589.69	7.288
590.03	7.239
590.36	7.210
590.69	7.148
591.02	7.110
591.35	7.076
591.69	7.034
592.02	7.015
592.35	6.974
592.68	6.994
593.01	6.965
593.35	6.956
593.68	6.963
594.01	6.949
594.34	6.936
594.67	6.935
595.00	6.902
595.34	6.859
595.67	6.815
596.00	6.802
596.33	6.724
596.66	6.678
596.99	6.606
597.32	6.522
597.65	6.460
597.99	6.405
598.32	6.332
598.65	6.285
598.98	6.242
599.31	6.202
599.64	6.178
599.97	6.162
600.30	6.170
600.63	6.170
600.96	6.156
601.30	6.149
601.63	6.173
601.96	6.201
602.29	6.187
602.62	6.185
602.95	6.175
603.28	6.144
603.61	6.103
603.94	6.036
604.27	6.011
604.60	5.981
604.93	5.944
605.26	5.865
605.59	5.808
605.92	5.763
606.25	5.707
606.58	5.650
606.91	5.585
607.24	5.544
607.57	5.522
607.90	5.464
608.23	5.379
608.56	5.303
608.89	5.242
609.22	5.165
609.55	5.076
609.88	4.994
610.21	4.913
610.54	4.817
610.87	4.718
611.20	4.622
611.53	4.538
611.86	4.482
612.19	4.399
612.52	4.335
612.85	4.295
613.18	4.260
613.51	4.191
613.84	4.123
614.17	4.091
614.49	4.074
614.82	4.008
615.15	3.962
615.48	3.934
615.81	3.901
616.14	3.875
616.47	3.788
616.80	3.736
617.13	3.708
617.46	3.658
617.78	3.639
618.11	3.585
618.44	3.567
618.77	3.525
619.10	3.477
619.43	3.452
619.76	3.378
620.09	3.372
620.41	3.369
620.74	3.365
621.07	3.396
621.40	3.390
621.73	3.389
622.06	3.414
622.38	3.449
622.71	3.473
623.04	3.507
623.37	3.543
623.70	3.548
624.02	3.563
624.35	3.590
624.68	3.589
625.01	3.581
625.34	3.608
625.66	3.593
625.99	3.570
626.32	3.563
626.65	3.562
626.98	3.543
627.30	3.525
627.63	3.496
627.96	3.424
628.29	3.388
628.61	3.360
628.94	3.316
629.27	3.281
629.60	3.207
629.92	3.190
630.25	3.114
630.58	3.075
630.91	3.054
631.23	3.025
631.56	3.050
631.89	2.997
632.21	2.976
632.54	2.935
632.87	2.897
633.19	2.881
633.52	2.806
633.85	2.778
634.18	2.735
634.50	2.688
634.83	2.639
635.16	2.533
635.48	2.478
635.81	2.372
636.14	2.281
636.46	2.227
636.79	2.171
637.11	2.089
637.44	1.986
637.77	1.896
638.09	1.789
638.42	1.702
638.75	1.652
639.07	1.608
639.40	1.563
639.73	1.498
640.05	1.396
640.38	1.360
640.70	1.268
641.03	1.233
641.36	1.184
641.68	1.150
642.01	1.090
642.33	1.050
642.66	1.000
642.98	0.966
643.31	0.963
643.64	0.952
643.96	0.910
644.29	0.934
644.61	0.914
644.94	0.904
645.26	0.929
645.59	0.953
645.91	0.939
646.24	0.970
646.56	0.953
646.89	0.955
647.22	0.957
647.54	0.952
647.87	0.970
648.19	0.959
648.52	0.975
648.84	0.971
649.17	0.937
649.49	0.978
649.82	0.941
650.14	0.990
650.47	0.954
650.79	0.947
651.11	0.933
651.44	0.913
651.76	0.928
652.09	0.963
652.41	0.968
652.74	0.981
653.06	0.974
653.39	0.993
653.71	1.009
654.04	1.030
654.36	1.078
654.68	1.153
655.01	1.215
655.33	1.259
655.66	1.258
655.98	1.282
656.30	1.286
656.63	1.294
656.95	1.326
657.28	1.322
657.60	1.366
657.92	1.339
658.25	1.308
658.57	1.316
658.90	1.304
659.22	1.313
659.54	1.292
659.87	1.331
660.19	1.324
660.51	1.315
660.84	1.325
661.16	1.288
661.48	1.327
661.81	1.321
662.13	1.304
662.45	1.327
662.78	1.389
663.10	1.471
663.42	1.544
663.75	1.634
664.07	1.695
664.39	1.711
664.72	1.806
665.04	1.905
665.36	2.042
665.69	2.185
666.01	2.326
666.33	2.436
666.65	2.475
666.98	2.595
667.30	2.739
667.62	2.858
667.94	3.039
668.27	3.232
668.59	3.381
668.91	3.565
669.23	3.670
669.56	3.858
669.88	4.011
670.20	4.246
670.52	4.411
670.85	4.551
671.17	4.816
671.49	5.010
671.81	5.211
672.13	5.397
672.46	5.622
672.78	5.891
673.10	6.081
673.42	6.330
673.74	6.603
674.07	6.842
674.39	7.134
674.71	7.296
675.03	7.569
675.35	7.849
675.67	8.051
676.00	8.274
676.32	8.418
676.64	8.544
676.96	8.737
677.28	8.867
677.60	9.048
677.92	9.204
678.25	9.417
678.57	9.583
678.89	9.672
679.21	9.861
679.53	10.032
679.85	10.274
680.17	10.570
680.49	10.730
680.81	10.984
681.13	11.171
681.46	11.398
681.78	11.652
682.10	11.888
682.42	12.120
682.74	12.368
683.06	12.525
683.38	12.722
683.70	12.866
684.02	13.055
684.34	13.202
684.66	13.330
684.98	13.431
685.30	13.514
685.62	13.600
685.94	13.720
686.26	13.763
686.58	13.821
686.90	13.809
687.22	13.870
687.54	13.866
687.86	13.892
688.18	13.948
688.50	13.973
688.82	14.004
689.14	14.083
689.46	14.185
689.78	14.312
690.10	14.481
690.42	14.648
690.74	14.823
691.06	15.081
691.38	15.214
691.70	15.477
692.02	15.774
692.34	15.989
692.66	16.246
692.98	16.382
693.30	16.656
693.62	16.883
693.94	17.111
694.26	17.268
694.57	17.482
694.89	17.768
695.21	17.982
695.53	18.161
695.85	18.329
696.17	18.500
696.49	18.791
696.81	19.003
697.13	19.215
697.44	19.469
697.76	19.811
698.08	20.161
698.40	20.544
698.72	20.941
699.04	21.410
699.36	22.019
699.67	22.568
699.99	23.108
700.31	23.680
700.63	24.368
700.95	25.041
701.27	25.694
701.58	26.256
701.90	26.770
702.22	27.325
702.54	27.793
702.86	28.202
703.17	28.570
703.49	28.925
703.81	29.320
704.13	29.687
704.45	30.094
704.76	30.465
705.08	30.829
705.40	31.185
705.72	31.517
706.03	31.952
706.35	32.278
706.67	32.677
706.99	33.011
707.30	33.446
707.62	33.860
707.94	34.208
708.26	34.524
708.57	34.954
708.89	35.287
709.21	35.579
709.53	35.936
709.84	36.365
710.16	36.770
710.48	37.321
710.79	37.690
711.11	38.073
711.43	38.464
711.74	38.962
712.06	39.329
712.38	39.843
712.69	40.360
713.01	40.830
713.33	41.372
713.64	41.980
713.96	42.358
714.28	42.861
714.59	43.372
714.91	43.929
715.23	44.415
715.54	44.918
715.86	45.468
716.17	46.032
716.49	46.613
716.81	47.142
717.12	47.577
717.44	48.249
717.76	48.957
718.07	49.418
718.39	50.035
718.70	50.504
719.02	51.002
719.33	51.467
719.65	51.904
719.97	52.164
720.28	52.604
720.60	53.051
720.91	53.413
721.23	53.665
721.54	54.064
721.86	54.375
722.17	54.635
722.49	55.088
722.81	55.346
723.12	55.618
723.44	55.955
723.75	56.205
724.07	56.421
724.38	56.562
724.70	56.780
725.01	57.005
725.33	57.195
725.64	57.583
725.96	57.813
726.27	57.902
726.59	58.255
726.90	58.589
727.22	58.650
727.53	58.912
727.84	59.195
728.16	59.368
728.47	59.575
728.79	59.947
729.10	60.064
729.42	60.196
729.73	60.556
730.05	60.699
730.36	60.848
730.67	61.142
730.99	61.364
731.30	61.747
731.62	62.091
731.93	62.276
732.24	62.369
732.56	62.639
732.87	63.006
733.19	63.412
733.50	63.748
733.81	63.853
734.13	64.104
734.44	64.382
734.76	64.540
735.07	64.681
735.38	65.063
735.70	65.331
736.01	65.555
736.32	65.722
736.64	65.891
736.95	65.943
737.26	66.206
737.58	66.339
737.89	66.453
738.20	66.491
738.52	66.728
738.83	66.785
739.14	66.851
739.45	67.012
739.77	66.978
740.08	67.161
740.39	67.564
740.71	67.907
741.02	68.359
741.33	68.494
741.64	68.800
741.96	68.874
742.27	68.986
742.58	69.359
742.90	69.549
743.21	69.820
743.52	69.842
743.83	69.634
744.14	69.443
744.46	69.284
744.77	69.522
745.08	69.242
745.39	69.367
745.71	69.536
746.02	69.250
746.33	69.146
746.64	69.050
746.95	68.807
747.27	68.878
747.58	68.999
747.89	68.813
748.20	68.612
748.51	68.981
748.82	68.868
749.14	68.853
749.45	69.002
749.76	69.038
750.07	69.117
750.38	69.348
750.69	69.301
751.01	69.231
751.32	69.159
751.63	69.055
751.94	68.707
752.25	68.680
752.56	68.435
752.87	68.318
753.18	68.242
753.49	68.168
753.81	68.049
754.12	68.015
754.43	68.073
754.74	68.318
755.05	68.278
755.36	68.449
755.67	68.393
755.98	68.593
756.29	68.580
756.60	68.579
756.91	68.588
757.22	68.556
757.53	68.554
757.84	68.506
758.15	68.489
758.46	68.594
758.77	68.456
759.09	68.389
759.40	68.224
759.71	68.221
760.02	68.124
760.33	67.914
760.64	67.729
760.95	67.545
761.26	67.196
761.57	66.902
761.88	66.638
762.18	66.474
762.49	66.354
762.80	66.329
763.11	66.095
763.42	65.898
763.73	65.957
764.04	65.803
764.35	65.916
764.66	66.005
764.97	65.973
765.28	66.095
765.59	66.148
765.90	66.104
766.21	65.821
766.52	65.957
766.83	66.163
767.14	66.141
767.44	66.166
767.75	65.672
768.06	65.697
768.37	65.548
768.68	65.498
768.99	65.400
769.30	65.461
769.61	65.522
769.91	65.379
770.22	64.928
770.53	64.333
770.84	64.482
771.15	64.669
771.46	64.621
771.77	64.887
772.07	64.572
772.38	64.511
772.69	64.248
773.00	64.233
773.31	64.121
773.61	64.188
773.92	64.588
774.23	64.303
774.54	64.097
774.85	64.077
775.15	63.894
775.46	63.998
775.77	63.951
776.08	63.759
776.39	63.817
776.69	63.831
777.00	63.993
777.31	63.716
777.62	63.652
777.92	63.604
778.23	63.501
778.54	63.225
778.85	63.051
779.15	62.847
779.46	62.907
779.77	62.739
780.07	62.954
780.38	62.678
780.69	62.739
781.00	62.971
781.30	63.065
781.61	62.785
781.92	63.230
782.22	63.195
782.53	63.193
782.84	63.457
783.14	63.534
783.45	63.349
783.76	63.590
784.06	63.793
784.37	63.613
784.68	63.616
784.98	63.757
785.29	63.582
785.60	63.953
785.90	64.188
786.21	63.978
786.51	63.845
786.82	63.699
787.13	63.756
787.43	63.728
787.74	63.953
788.04	64.060
788.35	64.230
788.66	64.356
788.96	64.107
789.27	64.476
789.57	64.517
789.88	64.625
790.19	64.555
790.49	64.406
790.80	64.465
791.10	64.313
791.41	64.050
791.71	64.176
792.02	64.005
792.32	64.069
792.63	63.613
792.93	63.563
793.24	63.432
793.54	63.616
793.85	63.671
794.15	63.468
794.46	63.376
794.76	63.383
795.07	63.195
795.37	63.369
795.68	63.343
795.98	63.140
796.29	63.492
796.59	63.534
796.90	63.593
797.20	63.380
797.51	63.182
797.81	63.296
798.12	63.713
798.42	63.716
798.72	63.687
799.03	63.998
799.33	64.353
799.64	64.253
799.94	64.550
800.25	64.446
800.55	64.712
800.85	65.299
801.16	65.472
801.46	64.927
801.77	65.234
802.07	65.201
802.37	65.350
802.68	65.284
802.98	65.197
803.28	65.162
803.59	65.236
803.89	65.391
804.20	65.341
804.50	64.941
804.80	65.163
805.11	64.808
805.41	64.697
805.71	64.204
806.02	64.454
806.32	64.540
806.62	64.802
806.93	64.554
807.23	65.001
807.53	64.819
807.83	65.137
808.14	65.736
808.44	65.712
808.74	66.148
809.05	66.158
809.35	65.737
809.65	66.246
809.95	65.909
810.26	65.793
810.56	65.138
810.86	65.464
811.16	65.485
811.47	65.457
811.77	66.088
812.07	65.662
812.37	65.926
812.68	66.723
812.98	66.575
813.28	66.560
813.58	67.452
813.88	67.688
814.19	67.916
814.49	67.799
814.79	67.883
815.09	67.937
815.39	68.020
815.70	68.235
816.00	67.500
816.30	67.030
816.60	66.807
816.90	66.177
817.20	66.079
817.50	65.429
817.81	65.070
818.11	64.571
818.41	64.276
818.71	64.079
819.01	64.021
819.31	64.224
819.61	64.399
819.92	64.599
820.22	64.878
820.52	65.021
820.82	65.329
821.12	65.556
821.42	65.819
821.72	66.084
822.02	66.540
822.32	66.911
822.62	67.101
822.92	67.379
823.22	67.711
823.52	67.896
823.83	68.110
824.13	68.142
824.43	68.269
824.73	68.396
825.03	68.363
825.33	68.290
825.63	68.190
825.93	68.123
826.23	67.891
826.53	67.548
826.83	67.528
827.13	67.627
827.43	67.852
827.73	68.099
828.03	68.308
828.33	68.629
828.63	68.663
828.93	68.519
829.23	68.785
829.53	68.882
829.83	69.036
830.13	68.773
830.42	68.246
830.72	67.519
831.02	67.315
831.32	66.779
831.62	66.735
831.92	66.510
832.22	66.324
832.52	66.086
832.82	66.160
833.12	66.015
833.42	66.049
833.72	66.191
834.01	66.681
834.31	66.758
834.61	67.133
834.91	67.295
835.21	67.501
835.51	68.064
835.81	68.435
836.11	68.310
836.40	68.899
836.70	69.382
837.00	69.734
837.30	69.422
837.60	68.613
837.90	68.837
838.19	68.143
838.49	68.029
838.79	68.103
839.09	67.733
839.39	68.118
839.68	67.756
839.98	67.323
840.28	66.785
840.58	66.979
840.88	68.013
841.17	67.417
841.47	68.503
841.77	68.017
842.07	67.061
842.36	67.587
842.66	68.040
842.96	68.526
843.26	68.230
843.55	68.411
843.85	67.976
844.15	68.255
844.45	67.951
844.74	67.363
845.04	68.166
845.34	69.841
845.63	69.767
845.93	69.222
846.23	68.873
846.53	68.541
846.82	68.196
847.12	68.803
847.42	67.104
847.71	67.143
848.01	65.859
848.31	65.942
848.60	63.814
848.90	62.688
849.19	62.369
849.49	62.483
849.79	63.764
850.08	64.507
850.38	62.343
850.68	63.745
850.97	65.330
851.27	66.817
851.56	66.706
851.86	67.687
852.16	69.168
852.45	69.339
852.75	69.583
853.04	70.617
853.34	69.421
853.64	72.094
853.93	71.126
854.23	69.745
854.52	69.599
854.82	70.778
855.11	70.863
855.41	72.271
855.70	74.080
856.00	73.297
856.30	72.455
856.59	73.689
856.89	73.450
857.18	74.341
857.48	74.516
857.77	72.677
858.07	70.904
858.36	69.016
858.66	68.229
858.95	67.468
859.25	67.811
859.54	67.395
859.84	67.549
860.13	65.730
860.42	65.391
860.72	64.974
861.01	66.270
861.31	67.537
861.60	70.084
861.90	68.701
862.19	68.529
862.49	67.173
862.78	67.157
863.07	68.154
863.37	70.366
863.66	69.579
863.96	70.364
864.25	71.630
864.54	71.216
864.84	71.776
865.13	72.853
865.43	72.735
865.72	86.770
866.01	72.464
866.31	86.131
866.60	72.846
866.89	68.266
>>>>>End Spectral Data<<<<<
