OOIBase32 Version 2.0.0.6 Data File
++++++++++++++++++++++++++++++++++++
Date: 01-23-2012, 23:19:12
User: Valued Ocean Optics Customer
Spectrometer Serial Number: USB2E2917
Spectrometer Channel: Master
Integration Time (msec): 5
Spectra Averaged: 10
Boxcar Smoothing: 5
Correct for Electrical Dark: Enabled
Time Normalized: Disabled
Dual-beam Reference: Disabled
Reference Channel: Master
Temperature: Not acquired
Spectrometer Type: S2000
ADC Type: USB2000
Number of Pixels in File: 2048
Graph Title: 
>>>>>Begin Spectral Data<<<<<
180.30	0.000
180.67	0.000
181.03	105.759
181.40	394.413
181.77	-492.355
182.14	17.954
182.51	-710.856
182.88	-131.911
183.25	-9.488
183.62	113.062
183.99	-51.194
184.36	147.241
184.73	-38.680
185.10	-52.564
185.46	-342.496
185.83	-365.094
186.20	721.042
186.57	167.165
186.94	81.326
187.31	24.850
187.68	193.777
188.05	125.634
188.42	207.758
188.78	399.416
189.15	973.046
189.52	-201.890
189.89	-30.364
190.26	21.028
190.63	44.303
191.00	45.792
191.37	44.912
191.73	50.071
192.10	46.941
192.47	52.368
192.84	55.065
193.21	51.499
193.58	45.219
193.94	46.999
194.31	36.638
194.68	33.263
195.05	26.929
195.42	29.424
195.79	23.767
196.15	26.052
196.52	21.226
196.89	15.111
197.26	0.031
197.63	-13.888
198.00	-13.967
198.36	-11.944
198.73	-31.513
199.10	-23.150
199.47	-15.296
199.84	-32.657
200.20	-29.415
200.57	-23.610
200.94	-26.725
201.31	-14.860
201.68	-17.087
202.04	-18.483
202.41	-20.309
202.78	-34.545
203.15	-43.894
203.51	-31.664
203.88	-29.003
204.25	-30.489
204.62	-43.974
204.98	-43.069
205.35	-48.980
205.72	-36.476
206.09	-18.674
206.46	-24.069
206.82	-6.228
207.19	-15.331
207.56	-72.371
207.92	-58.987
208.29	-74.347
208.66	-35.577
209.03	-32.329
209.39	-15.616
209.76	-18.175
210.13	-44.120
210.50	-43.580
210.86	-31.714
211.23	-34.099
211.60	-18.281
211.96	-16.957
212.33	-16.131
212.70	-34.717
213.07	-47.594
213.43	-85.287
213.80	-91.633
214.17	-59.442
214.53	-41.925
214.90	-38.643
215.27	-36.703
215.63	-39.435
216.00	-35.044
216.37	-30.462
216.74	-31.596
217.10	-15.952
217.47	-8.994
217.84	-0.428
218.20	-4.588
218.57	-4.537
218.94	-3.410
219.30	0.816
219.67	1.868
220.04	1.542
220.40	-1.338
220.77	-3.338
221.13	-3.867
221.50	-1.717
221.87	1.232
222.23	2.816
222.60	-1.738
222.97	-9.117
223.33	-5.031
223.70	-3.530
224.07	-4.170
224.43	-1.697
224.80	1.910
225.16	-1.443
225.53	-2.356
225.90	-4.863
226.26	-3.398
226.63	-0.715
226.99	1.187
227.36	1.159
227.73	2.798
228.09	2.805
228.46	4.182
228.82	5.748
229.19	6.930
229.56	6.613
229.92	7.665
230.29	6.333
230.65	5.111
231.02	3.425
231.38	0.725
231.75	0.206
232.12	-0.362
232.48	-4.445
232.85	-7.890
233.21	-8.969
233.58	-9.821
233.94	-10.401
234.31	-9.161
234.68	-7.802
235.04	-7.910
235.41	-5.944
235.77	-6.810
236.14	-5.648
236.50	-2.664
236.87	-2.282
237.23	-1.189
237.60	-1.542
237.96	-0.520
238.33	-1.131
238.69	-1.618
239.06	-1.650
239.42	-1.601
239.79	-1.704
240.15	-1.595
240.52	-1.425
240.88	-0.758
241.25	-0.934
241.61	-0.264
241.98	-0.602
242.34	-0.113
242.71	0.253
243.07	0.935
243.44	0.906
243.80	1.054
244.17	1.144
244.53	0.854
244.90	0.897
245.26	0.869
245.63	0.883
245.99	0.759
246.36	0.679
246.72	0.750
247.09	0.555
247.45	0.439
247.81	0.579
248.18	0.443
248.54	0.548
248.91	0.157
249.27	0.470
249.64	0.846
250.00	1.101
250.36	1.002
250.73	0.728
251.09	0.750
251.46	0.806
251.82	0.279
252.19	0.250
252.55	-0.040
252.91	0.260
253.28	0.195
253.64	-0.605
254.01	-0.350
254.37	-0.098
254.73	0.216
255.10	0.527
255.46	1.074
255.83	1.515
256.19	1.511
256.55	1.577
256.92	1.634
257.28	1.544
257.65	1.795
258.01	1.772
258.37	1.628
258.74	1.528
259.10	1.369
259.46	1.241
259.83	1.121
260.19	1.035
260.55	1.226
260.92	1.078
261.28	1.092
261.64	0.950
262.01	0.954
262.37	1.025
262.73	1.066
263.10	1.049
263.46	0.928
263.82	0.776
264.19	0.850
264.55	0.377
264.91	0.484
265.28	0.377
265.64	0.302
266.00	0.175
266.37	0.205
266.73	0.267
267.09	0.599
267.46	0.706
267.82	0.757
268.18	0.908
268.54	1.258
268.91	1.319
269.27	1.360
269.63	1.530
270.00	1.722
270.36	1.752
270.72	1.749
271.08	1.508
271.45	1.452
271.81	1.430
272.17	1.377
272.53	1.117
272.90	0.979
273.26	1.261
273.62	1.049
273.98	0.732
274.35	0.774
274.71	0.955
275.07	1.161
275.43	1.137
275.80	1.247
276.16	1.253
276.52	1.455
276.88	1.471
277.25	0.920
277.61	0.980
277.97	1.179
278.33	1.242
278.69	0.691
279.06	0.627
279.42	0.736
279.78	0.852
280.14	0.845
280.50	0.862
280.87	1.017
281.23	1.205
281.59	1.368
281.95	1.354
282.31	1.414
282.68	1.626
283.04	1.628
283.40	1.587
283.76	1.483
284.12	1.534
284.48	1.534
284.85	1.492
285.21	1.576
285.57	1.360
285.93	1.284
286.29	1.113
286.65	1.163
287.02	1.291
287.38	1.333
287.74	1.241
288.10	1.122
288.46	1.058
288.82	0.986
289.18	0.984
289.54	1.144
289.91	1.200
290.27	1.299
290.63	1.459
290.99	1.269
291.35	1.186
291.71	1.366
292.07	1.527
292.43	1.637
292.79	1.693
293.16	1.575
293.52	1.731
293.88	1.870
294.24	1.766
294.60	1.465
294.96	1.426
295.32	1.497
295.68	1.566
296.04	1.567
296.40	1.569
296.76	1.654
297.12	1.724
297.49	1.575
297.85	1.360
298.21	1.374
298.57	1.490
298.93	1.598
299.29	1.513
299.65	1.567
300.01	1.476
300.37	1.420
300.73	1.540
301.09	1.529
301.45	1.617
301.81	1.793
302.17	2.027
302.53	1.908
302.89	1.801
303.25	1.887
303.61	1.767
303.97	1.706
304.33	1.711
304.69	1.560
305.05	1.503
305.41	1.428
305.77	1.385
306.13	1.257
306.49	1.330
306.85	1.489
307.21	1.494
307.57	1.562
307.93	1.738
308.29	1.806
308.65	1.796
309.01	1.766
309.37	1.750
309.73	1.775
310.09	1.881
310.45	2.001
310.81	1.994
311.17	1.888
311.53	1.772
311.89	1.713
312.25	1.690
312.61	1.596
312.96	1.632
313.32	1.717
313.68	1.682
314.04	1.513
314.40	1.533
314.76	1.496
315.12	1.588
315.48	1.683
315.84	1.668
316.20	1.673
316.56	1.796
316.92	1.668
317.27	1.526
317.63	1.577
317.99	1.610
318.35	1.597
318.71	1.650
319.07	1.686
319.43	1.675
319.79	1.758
320.15	1.689
320.50	1.699
320.86	1.804
321.22	1.798
321.58	1.741
321.94	1.708
322.30	1.641
322.66	1.569
323.01	1.521
323.37	1.537
323.73	1.481
324.09	1.479
324.45	1.445
324.81	1.425
325.17	1.515
325.52	1.477
325.88	1.428
326.24	1.452
326.60	1.407
326.96	1.456
327.31	1.402
327.67	1.277
328.03	1.323
328.39	1.207
328.75	1.313
329.11	1.368
329.46	1.515
329.82	1.568
330.18	1.500
330.54	1.557
330.90	1.465
331.25	1.389
331.61	1.545
331.97	1.493
332.33	1.628
332.68	1.629
333.04	1.624
333.40	1.468
333.76	1.478
334.11	1.534
334.47	1.553
334.83	1.584
335.19	1.623
335.54	1.555
335.90	1.510
336.26	1.488
336.62	1.386
336.97	1.234
337.33	1.230
337.69	1.157
338.05	1.074
338.40	1.007
338.76	0.992
339.12	1.067
339.48	1.090
339.83	1.143
340.19	1.107
340.55	1.251
340.90	1.252
341.26	1.297
341.62	1.337
341.97	1.375
342.33	1.446
342.69	1.528
343.04	1.505
343.40	1.414
343.76	1.332
344.12	1.356
344.47	1.367
344.83	1.423
345.19	1.361
345.54	1.386
345.90	1.419
346.26	1.380
346.61	1.338
346.97	1.350
347.32	1.376
347.68	1.460
348.04	1.423
348.39	1.240
348.75	1.276
349.11	1.373
349.46	1.324
349.82	1.311
350.18	1.246
350.53	1.273
350.89	1.193
351.24	1.177
351.60	1.159
351.96	1.210
352.31	1.313
352.67	1.327
353.02	1.254
353.38	1.328
353.74	1.338
354.09	1.377
354.45	1.353
354.80	1.405
355.16	1.456
355.52	1.459
355.87	1.411
356.23	1.439
356.58	1.443
356.94	1.500
357.29	1.541
357.65	1.536
358.00	1.525
358.36	1.495
358.72	1.503
359.07	1.533
359.43	1.545
359.78	1.588
360.14	1.566
360.49	1.536
360.85	1.552
361.20	1.457
361.56	1.426
361.91	1.474
362.27	1.529
362.62	1.529
362.98	1.542
363.33	1.509
363.69	1.502
364.04	1.510
364.40	1.533
364.75	1.521
365.11	1.541
365.46	1.543
365.82	1.571
366.17	1.557
366.53	1.610
366.88	1.594
367.24	1.642
367.59	1.585
367.95	1.587
368.30	1.555
368.66	1.559
369.01	1.549
369.37	1.604
369.72	1.633
370.08	1.674
370.43	1.634
370.78	1.608
371.14	1.572
371.49	1.651
371.85	1.634
372.20	1.665
372.56	1.666
372.91	1.690
373.26	1.673
373.62	1.596
373.97	1.569
374.33	1.541
374.68	1.549
375.03	1.599
375.39	1.551
375.74	1.548
376.10	1.574
376.45	1.572
376.80	1.615
377.16	1.596
377.51	1.634
377.87	1.654
378.22	1.650
378.57	1.656
378.93	1.666
379.28	1.729
379.63	1.736
379.99	1.746
380.34	1.743
380.70	1.726
381.05	1.794
381.40	1.766
381.76	1.788
382.11	1.819
382.46	1.851
382.82	1.841
383.17	1.799
383.52	1.798
383.88	1.751
384.23	1.741
384.58	1.733
384.94	1.683
385.29	1.700
385.64	1.699
385.99	1.724
386.35	1.717
386.70	1.701
387.05	1.677
387.41	1.680
387.76	1.666
388.11	1.658
388.47	1.629
388.82	1.677
389.17	1.697
389.52	1.645
389.88	1.620
390.23	1.626
390.58	1.668
390.93	1.696
391.29	1.706
391.64	1.772
391.99	1.852
392.34	1.895
392.70	1.875
393.05	1.843
393.40	1.839
393.75	1.833
394.11	1.811
394.46	1.772
394.81	1.772
395.16	1.731
395.52	1.695
395.87	1.638
396.22	1.649
396.57	1.605
396.92	1.593
397.28	1.586
397.63	1.570
397.98	1.565
398.33	1.568
398.68	1.553
399.04	1.571
399.39	1.529
399.74	1.498
400.09	1.452
400.44	1.455
400.80	1.475
401.15	1.479
401.50	1.487
401.85	1.485
402.20	1.469
402.55	1.495
402.90	1.480
403.26	1.495
403.61	1.514
403.96	1.523
404.31	1.515
404.66	1.510
405.01	1.504
405.36	1.516
405.72	1.507
406.07	1.501
406.42	1.454
406.77	1.457
407.12	1.471
407.47	1.471
407.82	1.481
408.17	1.478
408.53	1.467
408.88	1.472
409.23	1.456
409.58	1.440
409.93	1.475
410.28	1.535
410.63	1.512
410.98	1.491
411.33	1.500
411.68	1.509
412.03	1.546
412.38	1.536
412.73	1.574
413.09	1.604
413.44	1.653
413.79	1.642
414.14	1.636
414.49	1.694
414.84	1.703
415.19	1.706
415.54	1.730
415.89	1.734
416.24	1.780
416.59	1.794
416.94	1.812
417.29	1.816
417.64	1.824
417.99	1.826
418.34	1.836
418.69	1.862
419.04	1.879
419.39	1.884
419.74	1.897
420.09	1.901
420.44	1.907
420.79	1.900
421.14	1.907
421.49	1.927
421.84	1.930
422.19	1.935
422.54	1.924
422.89	1.920
423.24	1.909
423.59	1.896
423.94	1.882
424.29	1.858
424.64	1.858
424.99	1.848
425.34	1.803
425.68	1.781
426.03	1.750
426.38	1.743
426.73	1.735
427.08	1.732
427.43	1.737
427.78	1.742
428.13	1.737
428.48	1.732
428.83	1.717
429.18	1.744
429.53	1.761
429.87	1.752
430.22	1.756
430.57	1.760
430.92	1.761
431.27	1.772
431.62	1.770
431.97	1.780
432.32	1.777
432.67	1.787
433.01	1.763
433.36	1.739
433.71	1.729
434.06	1.719
434.41	1.701
434.76	1.709
435.11	1.698
435.45	1.697
435.80	1.692
436.15	1.708
436.50	1.726
436.85	1.755
437.20	1.768
437.54	1.787
437.89	1.808
438.24	1.824
438.59	1.804
438.94	1.786
439.29	1.768
439.63	1.779
439.98	1.765
440.33	1.739
440.68	1.741
441.03	1.752
441.37	1.757
441.72	1.741
442.07	1.727
442.42	1.742
442.76	1.769
443.11	1.772
443.46	1.767
443.81	1.777
444.16	1.786
444.50	1.773
444.85	1.768
445.20	1.758
445.55	1.753
445.89	1.751
446.24	1.745
446.59	1.708
446.94	1.694
447.28	1.678
447.63	1.641
447.98	1.627
448.32	1.608
448.67	1.591
449.02	1.566
449.37	1.533
449.71	1.542
450.06	1.524
450.41	1.551
450.75	1.564
451.10	1.557
451.45	1.551
451.79	1.533
452.14	1.533
452.49	1.539
452.84	1.553
453.18	1.565
453.53	1.546
453.88	1.535
454.22	1.529
454.57	1.527
454.92	1.541
455.26	1.561
455.61	1.609
455.95	1.626
456.30	1.626
456.65	1.656
456.99	1.677
457.34	1.707
457.69	1.727
458.03	1.731
458.38	1.752
458.73	1.749
459.07	1.747
459.42	1.708
459.76	1.701
460.11	1.689
460.46	1.642
460.80	1.620
461.15	1.579
461.49	1.551
461.84	1.545
462.19	1.515
462.53	1.505
462.88	1.505
463.22	1.503
463.57	1.507
463.91	1.507
464.26	1.533
464.61	1.549
464.95	1.543
465.30	1.553
465.64	1.538
465.99	1.543
466.33	1.559
466.68	1.547
467.02	1.545
467.37	1.513
467.71	1.484
468.06	1.474
468.41	1.437
468.75	1.433
469.10	1.423
469.44	1.413
469.79	1.391
470.13	1.343
470.48	1.332
470.82	1.315
471.17	1.334
471.51	1.346
471.86	1.326
472.20	1.324
472.55	1.307
472.89	1.322
473.23	1.297
473.58	1.295
473.92	1.306
474.27	1.303
474.61	1.288
474.96	1.288
475.30	1.280
475.65	1.272
475.99	1.283
476.34	1.289
476.68	1.266
477.02	1.282
477.37	1.281
477.71	1.305
478.06	1.336
478.40	1.406
478.75	1.467
479.09	1.551
479.43	1.642
479.78	1.736
480.12	1.819
480.47	1.900
480.81	1.978
481.15	2.047
481.50	2.118
481.84	2.188
482.19	2.257
482.53	2.311
482.87	2.345
483.22	2.349
483.56	2.319
483.90	2.279
484.25	2.226
484.59	2.170
484.94	2.114
485.28	2.058
485.62	1.992
485.97	1.921
486.31	1.865
486.65	1.815
487.00	1.783
487.34	1.777
487.68	1.771
488.03	1.767
488.37	1.764
488.71	1.761
489.06	1.743
489.40	1.737
489.74	1.719
490.09	1.690
490.43	1.666
490.77	1.645
491.11	1.600
491.46	1.571
491.80	1.536
492.14	1.498
492.49	1.467
492.83	1.423
493.17	1.374
493.51	1.334
493.86	1.296
494.20	1.267
494.54	1.230
494.88	1.227
495.23	1.218
495.57	1.231
495.91	1.256
496.25	1.257
496.60	1.269
496.94	1.264
497.28	1.267
497.62	1.273
497.97	1.267
498.31	1.268
498.65	1.257
498.99	1.241
499.33	1.247
499.68	1.228
500.02	1.224
500.36	1.226
500.70	1.232
501.04	1.235
501.39	1.219
501.73	1.223
502.07	1.253
502.41	1.272
502.75	1.308
503.09	1.315
503.44	1.326
503.78	1.338
504.12	1.341
504.46	1.365
504.80	1.386
505.14	1.422
505.49	1.450
505.83	1.451
506.17	1.474
506.51	1.490
506.85	1.513
507.19	1.537
507.53	1.554
507.87	1.587
508.22	1.601
508.56	1.618
508.90	1.631
509.24	1.645
509.58	1.663
509.92	1.686
510.26	1.696
510.60	1.709
510.94	1.724
511.28	1.732
511.63	1.745
511.97	1.756
512.31	1.780
512.65	1.810
512.99	1.853
513.33	1.919
513.67	1.966
514.01	2.045
514.35	2.103
514.69	2.175
515.03	2.265
515.37	2.346
515.71	2.425
516.05	2.489
516.39	2.545
516.73	2.598
517.07	2.632
517.41	2.672
517.75	2.690
518.09	2.727
518.43	2.741
518.77	2.755
519.11	2.772
519.45	2.787
519.79	2.815
520.13	2.846
520.47	2.881
520.81	2.939
521.15	3.005
521.49	3.079
521.83	3.156
522.17	3.237
522.51	3.333
522.85	3.431
523.19	3.565
523.53	3.703
523.87	3.858
524.21	4.010
524.55	4.140
524.89	4.257
525.23	4.372
525.57	4.468
525.91	4.566
526.25	4.644
526.58	4.724
526.92	4.783
527.26	4.835
527.60	4.865
527.94	4.879
528.28	4.896
528.62	4.899
528.96	4.902
529.30	4.904
529.64	4.908
529.97	4.913
530.31	4.912
530.65	4.916
530.99	4.913
531.33	4.920
531.67	4.937
532.01	4.953
532.35	4.975
532.68	4.981
533.02	4.989
533.36	4.990
533.70	4.994
534.04	4.988
534.38	4.981
534.71	4.984
535.05	4.984
535.39	4.987
535.73	4.979
536.07	4.985
536.41	5.016
536.74	5.045
537.08	5.078
537.42	5.135
537.76	5.178
538.10	5.234
538.43	5.291
538.77	5.339
539.11	5.389
539.45	5.431
539.79	5.482
540.12	5.513
540.46	5.527
540.80	5.534
541.14	5.517
541.47	5.502
541.81	5.475
542.15	5.447
542.49	5.421
542.82	5.397
543.16	5.374
543.50	5.334
543.84	5.294
544.17	5.283
544.51	5.264
544.85	5.242
545.18	5.249
545.52	5.248
545.86	5.231
546.20	5.224
546.53	5.196
546.87	5.160
547.21	5.122
547.54	5.087
547.88	5.058
548.22	5.034
548.55	5.023
548.89	5.001
549.23	4.987
549.56	4.980
549.90	4.968
550.24	4.978
550.57	4.983
550.91	4.979
551.25	4.994
551.58	4.995
551.92	4.982
552.26	4.969
552.59	4.971
552.93	4.962
553.27	4.938
553.60	4.925
553.94	4.892
554.27	4.876
554.61	4.866
554.95	4.850
555.28	4.809
555.62	4.804
555.95	4.796
556.29	4.773
556.63	4.748
556.96	4.717
557.30	4.702
557.63	4.667
557.97	4.650
558.31	4.604
558.64	4.551
558.98	4.557
559.31	4.537
559.65	4.522
559.98	4.482
560.32	4.457
560.65	4.443
560.99	4.405
561.33	4.384
561.66	4.354
562.00	4.353
562.33	4.352
562.67	4.305
563.00	4.271
563.34	4.252
563.67	4.229
564.01	4.200
564.34	4.180
564.68	4.164
565.01	4.133
565.35	4.097
565.68	4.054
566.02	4.023
566.35	3.991
566.69	3.939
567.02	3.906
567.36	3.872
567.69	3.843
568.03	3.817
568.36	3.768
568.69	3.722
569.03	3.696
569.36	3.672
569.70	3.619
570.03	3.607
570.37	3.585
570.70	3.541
571.04	3.508
571.37	3.473
571.70	3.408
572.04	3.377
572.37	3.365
572.71	3.334
573.04	3.293
573.37	3.266
573.71	3.220
574.04	3.185
574.38	3.139
574.71	3.111
575.04	3.067
575.38	3.038
575.71	2.989
576.05	2.941
576.38	2.894
576.71	2.853
577.05	2.803
577.38	2.761
577.71	2.705
578.05	2.657
578.38	2.600
578.71	2.558
579.05	2.529
579.38	2.492
579.71	2.474
580.05	2.436
580.38	2.396
580.71	2.355
581.05	2.322
581.38	2.315
581.71	2.302
582.05	2.282
582.38	2.274
582.71	2.280
583.04	2.271
583.38	2.224
583.71	2.223
584.04	2.227
584.38	2.242
584.71	2.245
585.04	2.242
585.37	2.235
585.71	2.241
586.04	2.252
586.37	2.240
586.70	2.249
587.04	2.272
587.37	2.269
587.70	2.252
588.03	2.263
588.37	2.282
588.70	2.282
589.03	2.272
589.36	2.254
589.69	2.212
590.03	2.190
590.36	2.153
590.69	2.109
591.02	2.082
591.35	2.075
591.69	2.069
592.02	2.029
592.35	2.034
592.68	2.045
593.01	2.061
593.35	2.059
593.68	2.052
594.01	2.081
594.34	2.072
594.67	2.075
595.00	2.072
595.34	2.031
595.67	1.990
596.00	1.945
596.33	1.898
596.66	1.850
596.99	1.824
597.32	1.784
597.65	1.723
597.99	1.698
598.32	1.626
598.65	1.571
598.98	1.542
599.31	1.539
599.64	1.536
599.97	1.535
600.30	1.533
600.63	1.534
600.96	1.561
601.30	1.583
601.63	1.598
601.96	1.641
602.29	1.652
602.62	1.659
602.95	1.666
603.28	1.672
603.61	1.640
603.94	1.609
604.27	1.597
604.60	1.551
604.93	1.519
605.26	1.495
605.59	1.469
605.92	1.458
606.25	1.431
606.58	1.399
606.91	1.355
607.24	1.363
607.57	1.344
607.90	1.315
608.23	1.281
608.56	1.254
608.89	1.203
609.22	1.146
609.55	1.079
609.88	1.038
610.21	0.983
610.54	0.929
610.87	0.885
611.20	0.841
611.53	0.786
611.86	0.762
612.19	0.679
612.52	0.632
612.85	0.623
613.18	0.633
613.51	0.578
613.84	0.558
614.17	0.533
614.49	0.516
614.82	0.475
615.15	0.450
615.48	0.438
615.81	0.457
616.14	0.469
616.47	0.418
616.80	0.339
617.13	0.362
617.46	0.320
617.78	0.304
618.11	0.270
618.44	0.279
618.77	0.257
619.10	0.245
619.43	0.234
619.76	0.202
620.09	0.236
620.41	0.268
620.74	0.237
621.07	0.267
621.40	0.281
621.73	0.285
622.06	0.308
622.38	0.335
622.71	0.372
623.04	0.411
623.37	0.449
623.70	0.452
624.02	0.487
624.35	0.537
624.68	0.565
625.01	0.584
625.34	0.618
625.66	0.640
625.99	0.662
626.32	0.646
626.65	0.633
626.98	0.621
627.30	0.622
627.63	0.598
627.96	0.534
628.29	0.468
628.61	0.427
628.94	0.374
629.27	0.324
629.60	0.259
629.92	0.244
630.25	0.176
630.58	0.157
630.91	0.130
631.23	0.104
631.56	0.104
631.89	0.089
632.21	0.070
632.54	0.056
632.87	0.024
633.19	-0.005
633.52	-0.051
633.85	-0.029
634.18	-0.069
634.50	-0.139
634.83	-0.155
635.16	-0.200
635.48	-0.210
635.81	-0.234
636.14	-0.274
636.46	-0.324
636.79	-0.347
637.11	-0.381
637.44	-0.469
637.77	-0.504
638.09	-0.531
638.42	-0.604
638.75	-0.634
639.07	-0.688
639.40	-0.737
639.73	-0.754
640.05	-0.739
640.38	-0.730
640.70	-0.768
641.03	-0.775
641.36	-0.781
641.68	-0.770
642.01	-0.761
642.33	-0.736
642.66	-0.715
642.98	-0.714
643.31	-0.719
643.64	-0.728
643.96	-0.703
644.29	-0.659
644.61	-0.638
644.94	-0.631
645.26	-0.605
645.59	-0.559
645.91	-0.552
646.24	-0.510
646.56	-0.492
646.89	-0.471
647.22	-0.453
647.54	-0.452
647.87	-0.452
648.19	-0.438
648.52	-0.424
648.84	-0.416
649.17	-0.451
649.49	-0.458
649.82	-0.479
650.14	-0.478
650.47	-0.500
650.79	-0.496
651.11	-0.521
651.44	-0.496
651.76	-0.510
652.09	-0.449
652.41	-0.444
652.74	-0.428
653.06	-0.423
653.39	-0.379
653.71	-0.357
654.04	-0.323
654.36	-0.301
654.68	-0.267
655.01	-0.253
655.33	-0.193
655.66	-0.260
655.98	-0.220
656.30	-0.192
656.63	-0.145
656.95	-0.139
657.28	-0.097
657.60	-0.098
657.92	-0.123
658.25	-0.149
658.57	-0.177
658.90	-0.220
659.22	-0.210
659.54	-0.256
659.87	-0.279
660.19	-0.361
660.51	-0.437
660.84	-0.523
661.16	-0.573
661.48	-0.567
661.81	-0.599
662.13	-0.626
662.45	-0.625
662.78	-0.610
663.10	-0.567
663.42	-0.565
663.75	-0.497
664.07	-0.465
664.39	-0.462
664.72	-0.450
665.04	-0.440
665.36	-0.376
665.69	-0.322
666.01	-0.292
666.33	-0.248
666.65	-0.266
666.98	-0.222
667.30	-0.187
667.62	-0.141
667.94	-0.063
668.27	0.033
668.59	0.102
668.91	0.205
669.23	0.233
669.56	0.292
669.88	0.341
670.20	0.372
670.52	0.430
670.85	0.433
671.17	0.496
671.49	0.555
671.81	0.640
672.13	0.685
672.46	0.696
672.78	0.806
673.10	0.884
673.42	0.921
673.74	1.044
674.07	1.111
674.39	1.261
674.71	1.321
675.03	1.487
675.35	1.560
675.67	1.648
676.00	1.759
676.32	1.843
676.64	1.951
676.96	2.065
677.28	2.149
677.60	2.250
677.92	2.341
678.25	2.463
678.57	2.509
678.89	2.570
679.21	2.670
679.53	2.746
679.85	2.814
680.17	2.869
680.49	2.942
680.81	3.012
681.13	3.036
681.46	3.040
681.78	3.119
682.10	3.155
682.42	3.196
682.74	3.289
683.06	3.327
683.38	3.426
683.70	3.548
684.02	3.642
684.34	3.781
684.66	3.889
684.98	4.017
685.30	4.076
685.62	4.137
685.94	4.261
686.26	4.295
686.58	4.337
686.90	4.335
687.22	4.293
687.54	4.260
687.86	4.175
688.18	4.141
688.50	4.097
688.82	3.993
689.14	3.982
689.46	3.920
689.78	3.841
690.10	3.821
690.42	3.773
690.74	3.752
691.06	3.747
691.38	3.754
691.70	3.795
692.02	3.796
692.34	3.898
692.66	3.894
692.98	3.935
693.30	4.051
693.62	4.108
693.94	4.233
694.26	4.303
694.57	4.454
694.89	4.593
695.21	4.729
695.53	4.858
695.85	4.954
696.17	5.095
696.49	5.303
696.81	5.423
697.13	5.547
697.44	5.663
697.76	5.830
698.08	6.009
698.40	6.147
698.72	6.312
699.04	6.508
699.36	6.728
699.67	6.920
699.99	6.994
700.31	7.198
700.63	7.459
700.95	7.722
701.27	8.008
701.58	8.160
701.90	8.293
702.22	8.535
702.54	8.760
702.86	9.009
703.17	9.247
703.49	9.627
703.81	9.994
704.13	10.218
704.45	10.457
704.76	10.670
705.08	10.890
705.40	11.271
705.72	11.467
706.03	11.736
706.35	11.987
706.67	12.253
706.99	12.485
707.30	12.623
707.62	12.912
707.94	13.142
708.26	13.454
708.57	13.757
708.89	14.011
709.21	14.322
709.53	14.583
709.84	14.927
710.16	15.267
710.48	15.485
710.79	15.862
711.11	16.156
711.43	16.489
711.74	16.747
712.06	17.086
712.38	17.392
712.69	17.689
713.01	18.010
713.33	18.304
713.64	18.642
713.96	19.011
714.28	19.305
714.59	19.640
714.91	20.066
715.23	20.456
715.54	20.789
715.86	21.278
716.17	21.713
716.49	22.239
716.81	22.588
717.12	22.850
717.44	23.256
717.76	23.674
718.07	24.169
718.39	24.567
718.70	24.909
719.02	25.224
719.33	25.511
719.65	25.878
719.97	26.000
720.28	26.388
720.60	26.900
720.91	27.325
721.23	27.655
721.54	27.979
721.86	28.229
722.17	28.639
722.49	29.113
722.81	29.305
723.12	29.637
723.44	30.072
723.75	30.458
724.07	30.751
724.38	31.018
724.70	31.399
725.01	31.732
725.33	32.072
725.64	32.382
725.96	32.717
726.27	33.035
726.59	33.278
726.90	33.518
727.22	33.643
727.53	33.894
727.84	34.230
728.16	34.458
728.47	34.700
728.79	35.012
729.10	35.223
729.42	35.345
729.73	35.569
730.05	35.826
730.36	36.124
730.67	36.476
730.99	36.810
731.30	36.965
731.62	37.153
731.93	37.406
732.24	37.627
732.56	37.937
732.87	38.334
733.19	38.769
733.50	39.072
733.81	39.348
734.13	39.639
734.44	39.898
734.76	40.155
735.07	40.499
735.38	40.799
735.70	41.180
736.01	41.375
736.32	41.555
736.64	41.765
736.95	41.959
737.26	42.144
737.58	42.333
737.89	42.567
738.20	42.791
738.52	42.988
738.83	43.015
739.14	43.087
739.45	43.348
739.77	43.641
740.08	43.886
740.39	44.146
740.71	44.434
741.02	44.614
741.33	44.523
741.64	44.783
741.96	44.909
742.27	45.161
742.58	45.273
742.90	45.264
743.21	45.331
743.52	45.339
743.83	45.391
744.14	45.518
744.46	45.736
744.77	46.212
745.08	46.247
745.39	46.358
745.71	46.400
746.02	46.416
746.33	46.476
746.64	46.358
746.95	46.527
747.27	46.908
747.58	46.952
747.89	46.888
748.20	46.803
748.51	46.998
748.82	47.118
749.14	47.222
749.45	47.413
749.76	47.679
750.07	48.019
750.38	48.201
750.69	47.948
751.01	48.054
751.32	48.045
751.63	48.141
751.94	47.941
752.25	47.832
752.56	47.821
752.87	47.773
753.18	47.856
753.49	47.775
753.81	47.804
754.12	47.940
754.43	47.999
754.74	48.003
755.05	48.212
755.36	48.461
755.67	48.595
755.98	48.761
756.29	48.854
756.60	48.944
756.91	49.203
757.22	49.208
757.53	49.369
757.84	49.475
758.15	49.867
758.46	49.926
758.77	49.862
759.09	50.003
759.40	50.099
759.71	50.119
760.02	50.153
760.33	49.968
760.64	49.934
760.95	49.895
761.26	49.759
761.57	49.513
761.88	49.408
762.18	49.512
762.49	49.457
762.80	49.388
763.11	49.431
763.42	49.220
763.73	49.229
764.04	49.182
764.35	49.219
764.66	49.188
764.97	49.221
765.28	49.160
765.59	48.960
765.90	48.829
766.21	48.539
766.52	48.337
766.83	48.240
767.14	48.198
767.44	47.901
767.75	47.452
768.06	47.346
768.37	47.065
768.68	47.026
768.99	46.905
769.30	46.858
769.61	46.807
769.91	46.708
770.22	46.712
770.53	46.571
770.84	46.691
771.15	46.702
771.46	46.618
771.77	46.624
772.07	46.160
772.38	46.061
772.69	45.849
773.00	46.082
773.31	46.115
773.61	45.969
773.92	45.801
774.23	45.618
774.54	45.403
774.85	45.068
775.15	45.183
775.46	45.234
775.77	45.197
776.08	45.113
776.39	44.829
776.69	44.634
777.00	44.831
777.31	44.768
777.62	44.846
777.92	45.081
778.23	45.489
778.54	45.472
778.85	45.635
779.15	45.537
779.46	45.582
779.77	45.858
780.07	46.080
780.38	46.011
780.69	45.948
781.00	45.714
781.30	45.493
781.61	45.335
781.92	45.276
782.22	45.395
782.53	45.380
782.84	45.599
783.14	45.375
783.45	45.451
783.76	45.606
784.06	45.767
784.37	46.324
784.68	46.583
784.98	46.597
785.29	46.554
785.60	46.552
785.90	46.865
786.21	46.895
786.51	46.911
786.82	46.998
787.13	47.069
787.43	46.903
787.74	46.826
788.04	46.837
788.35	46.988
788.66	47.183
788.96	47.247
789.27	47.113
789.57	46.979
789.88	47.059
790.19	46.752
790.49	46.535
790.80	46.607
791.10	46.381
791.41	46.498
791.71	46.323
792.02	46.279
792.32	46.026
792.63	46.043
792.93	46.166
793.24	46.154
793.54	46.496
793.85	46.609
794.15	46.724
794.46	46.932
794.76	46.828
795.07	47.119
795.37	46.943
795.68	47.138
795.98	47.314
796.29	47.474
796.59	47.578
796.90	47.302
797.20	47.044
797.51	46.889
797.81	46.831
798.12	46.612
798.42	46.673
798.72	46.890
799.03	47.002
799.33	46.827
799.64	46.646
799.94	46.830
800.25	46.832
800.55	47.141
800.85	47.633
801.16	47.781
801.46	47.901
801.77	47.508
802.07	47.881
802.37	47.630
802.68	47.268
802.98	47.421
803.28	46.978
803.59	47.228
803.89	46.948
804.20	46.900
804.50	46.502
804.80	47.009
805.11	47.341
805.41	46.841
805.71	47.349
806.02	47.696
806.32	47.642
806.62	47.672
806.93	47.871
807.23	48.107
807.53	48.035
807.83	48.403
808.14	48.259
808.44	48.000
808.74	48.173
809.05	47.525
809.35	47.617
809.65	47.559
809.95	47.998
810.26	47.323
810.56	47.425
810.86	47.313
811.16	47.551
811.47	48.056
811.77	48.537
812.07	48.548
812.37	48.745
812.68	48.950
812.98	49.403
813.28	49.505
813.58	50.313
813.88	50.505
814.19	51.413
814.49	51.393
814.79	50.913
815.09	50.865
815.39	50.921
815.70	51.520
816.00	51.353
816.30	50.836
816.60	50.555
816.90	50.426
817.20	50.304
817.50	49.786
817.81	49.478
818.11	49.284
818.41	49.197
818.71	49.296
819.01	49.426
819.31	49.850
819.61	50.307
819.92	50.577
820.22	50.869
820.52	51.121
820.82	51.439
821.12	51.828
821.42	52.248
821.72	52.621
822.02	53.094
822.32	53.438
822.62	53.728
822.92	53.936
823.22	54.304
823.52	54.547
823.83	54.821
824.13	54.908
824.43	54.925
824.73	54.890
825.03	54.816
825.33	54.660
825.63	54.444
825.93	54.215
826.23	54.052
826.53	53.814
826.83	53.718
827.13	53.739
827.43	53.856
827.73	54.132
828.03	54.525
828.33	54.884
828.63	54.977
828.93	55.281
829.23	55.145
829.53	55.153
829.83	54.823
830.13	54.407
830.42	53.749
830.72	53.512
831.02	53.239
831.32	52.574
831.62	52.133
831.92	52.023
832.22	52.080
832.52	52.263
832.82	52.404
833.12	52.613
833.42	52.671
833.72	53.013
834.01	53.158
834.31	53.479
834.61	53.972
834.91	54.587
835.21	54.737
835.51	54.849
835.81	54.947
836.11	55.047
836.40	54.966
836.70	55.443
837.00	55.631
837.30	55.546
837.60	54.998
837.90	54.690
838.19	54.442
838.49	54.387
838.79	54.209
839.09	54.040
839.39	53.935
839.68	54.204
839.98	53.281
840.28	52.517
840.58	52.859
840.88	53.243
841.17	52.669
841.47	53.104
841.77	52.810
842.07	52.868
842.36	52.624
842.66	51.904
842.96	51.341
843.26	51.640
843.55	51.857
843.85	50.941
844.15	49.533
844.45	49.238
844.74	47.656
845.04	47.509
845.34	46.810
845.63	48.349
845.93	49.313
846.23	50.072
846.53	49.910
846.82	48.839
847.12	48.947
847.42	49.243
847.71	49.355
848.01	48.944
848.31	48.679
848.60	48.805
848.90	47.822
849.19	46.535
849.49	46.866
849.79	47.276
850.08	48.827
850.38	49.028
850.68	49.411
850.97	50.010
851.27	50.567
851.56	50.047
851.86	48.214
852.16	48.297
852.45	47.632
852.75	46.051
853.04	47.478
853.34	45.704
853.64	45.795
853.93	44.370
854.23	44.613
854.52	44.735
854.82	46.274
855.11	47.167
855.41	46.667
855.70	48.306
856.00	48.103
856.30	46.185
856.59	47.786
856.89	48.860
857.18	51.078
857.48	50.176
857.77	48.752
858.07	47.406
858.36	45.882
858.66	46.432
858.95	46.558
859.25	46.930
859.54	46.164
859.84	45.571
860.13	44.078
860.42	42.458
860.72	41.854
861.01	43.256
861.31	44.901
861.60	47.323
861.90	47.549
862.19	48.124
862.49	48.568
862.78	49.971
863.07	50.788
863.37	51.382
863.66	52.268
863.96	53.861
864.25	54.253
864.54	53.648
864.84	54.423
865.13	54.794
865.43	55.621
865.72	59.252
866.01	51.285
866.31	63.431
866.60	53.852
866.89	69.029
>>>>>End Spectral Data<<<<<
