OOIBase32 Version 2.0.0.6 Data File
++++++++++++++++++++++++++++++++++++
Date: 01-23-2012, 23:19:40
User: Valued Ocean Optics Customer
Spectrometer Serial Number: USB2E2917
Spectrometer Channel: Master
Integration Time (msec): 5
Spectra Averaged: 10
Boxcar Smoothing: 5
Correct for Electrical Dark: Enabled
Time Normalized: Disabled
Dual-beam Reference: Disabled
Reference Channel: Master
Temperature: Not acquired
Spectrometer Type: S2000
ADC Type: USB2000
Number of Pixels in File: 2048
Graph Title: 
>>>>>Begin Spectral Data<<<<<
180.30	0.000
180.67	0.000
181.03	-51.169
181.40	123.831
181.77	-1636.315
182.14	72.968
182.51	-282.427
182.88	-65.403
183.25	-33.755
183.62	74.296
183.99	94.544
184.36	16.246
184.73	-9.413
185.10	-101.681
185.46	85.928
185.83	-274.012
186.20	847.839
186.57	104.714
186.94	12.658
187.31	48.071
187.68	138.446
188.05	133.526
188.42	219.956
188.78	418.683
189.15	1119.789
189.52	-298.195
189.89	-63.277
190.26	-23.802
190.63	20.920
191.00	31.885
191.37	29.261
191.73	34.666
192.10	35.388
192.47	37.161
192.84	37.912
193.21	38.546
193.58	31.716
193.94	19.012
194.31	11.524
194.68	-7.620
195.05	-23.724
195.42	-27.051
195.79	-26.612
196.15	-36.199
196.52	-41.666
196.89	-58.645
197.26	-53.192
197.63	-29.061
198.00	-18.705
198.36	-29.717
198.73	-30.693
199.10	-33.487
199.47	-43.283
199.84	-69.910
200.20	-57.284
200.57	-37.594
200.94	-33.111
201.31	-35.242
201.68	-46.513
202.04	-59.825
202.41	-57.367
202.78	-72.722
203.15	-73.923
203.51	-73.851
203.88	-52.426
204.25	-60.170
204.62	-98.315
204.98	-115.345
205.35	-123.426
205.72	-127.428
206.09	-102.715
206.46	-180.470
206.82	-125.613
207.19	-111.003
207.56	-186.992
207.92	-175.084
208.29	-177.911
208.66	-113.918
209.03	-100.473
209.39	-55.360
209.76	-44.016
210.13	-85.674
210.50	-58.843
210.86	-69.617
211.23	-81.195
211.60	-44.701
211.96	-45.017
212.33	-37.877
212.70	-40.839
213.07	-31.376
213.43	-69.820
213.80	-73.577
214.17	-33.630
214.53	-16.703
214.90	-4.195
215.27	-1.752
215.63	7.216
216.00	18.859
216.37	27.382
216.74	19.270
217.10	17.892
217.47	14.367
217.84	13.435
218.20	7.667
218.57	6.044
218.94	5.834
219.30	1.057
219.67	-9.013
220.04	-12.027
220.40	-21.796
220.77	-24.313
221.13	-22.049
221.50	-16.688
221.87	-16.328
222.23	-20.139
222.60	-25.162
222.97	-27.159
223.33	-21.641
223.70	-16.008
224.07	-20.476
224.43	-16.254
224.80	-10.323
225.16	-10.995
225.53	-10.848
225.90	-12.726
226.26	-8.422
226.63	-6.084
226.99	-5.668
227.36	-5.283
227.73	-5.217
228.09	-5.143
228.46	-3.695
228.82	-3.782
229.19	-2.703
229.56	-3.128
229.92	-0.366
230.29	-0.888
230.65	-1.898
231.02	-1.978
231.38	-4.135
231.75	-3.196
232.12	-3.475
232.48	-5.934
232.85	-6.215
233.21	-7.787
233.58	-10.298
233.94	-11.324
234.31	-11.807
234.68	-11.309
235.04	-10.820
235.41	-8.683
235.77	-6.959
236.14	-5.196
236.50	-3.468
236.87	-3.279
237.23	-2.069
237.60	-1.506
237.96	-1.049
238.33	-1.052
238.69	-0.742
239.06	-0.676
239.42	-0.282
239.79	-0.848
240.15	-1.073
240.52	-1.049
240.88	-0.318
241.25	-0.712
241.61	0.019
241.98	-0.429
242.34	-0.403
242.71	-0.170
243.07	0.058
243.44	-0.249
243.80	-0.305
244.17	-0.077
244.53	-0.321
244.90	-0.541
245.26	-0.489
245.63	-0.373
245.99	-0.149
246.36	-0.179
246.72	-0.063
247.09	-0.396
247.45	-0.298
247.81	0.058
248.18	-0.140
248.54	0.135
248.91	-0.155
249.27	0.247
249.64	0.238
250.00	0.309
250.36	0.500
250.73	0.173
251.09	0.709
251.46	1.010
251.82	0.603
252.19	0.912
252.55	1.112
252.91	1.442
253.28	1.015
253.64	0.516
254.01	0.249
254.37	0.015
254.73	0.797
255.10	0.897
255.46	0.831
255.83	0.906
256.19	0.848
256.55	0.445
256.92	0.560
257.28	0.620
257.65	0.699
258.01	0.840
258.37	0.844
258.74	0.443
259.10	0.196
259.46	0.088
259.83	-0.003
260.19	0.050
260.55	0.202
260.92	0.177
261.28	0.125
261.64	0.160
262.01	-0.078
262.37	-0.128
262.73	-0.037
263.10	0.058
263.46	-0.070
263.82	-0.168
264.19	-0.387
264.55	-0.634
264.91	-0.775
265.28	-0.880
265.64	-0.966
266.00	-0.789
266.37	-0.630
266.73	-0.524
267.09	-0.542
267.46	-0.358
267.82	-0.394
268.18	-0.137
268.54	0.151
268.91	0.046
269.27	0.170
269.63	0.517
270.00	0.485
270.36	0.595
270.72	0.601
271.08	0.652
271.45	0.628
271.81	0.739
272.17	0.677
272.53	0.636
272.90	0.935
273.26	0.935
273.62	0.615
273.98	0.590
274.35	0.324
274.71	0.339
275.07	0.137
275.43	0.137
275.80	0.190
276.16	0.047
276.52	-0.248
276.88	-0.440
277.25	-0.563
277.61	-0.558
277.97	-0.745
278.33	-0.516
278.69	-0.666
279.06	-0.347
279.42	-0.317
279.78	-0.243
280.14	-0.169
280.50	0.125
280.87	0.080
281.23	0.108
281.59	0.291
281.95	0.578
282.31	0.572
282.68	0.484
283.04	0.350
283.40	0.505
283.76	0.437
284.12	0.556
284.48	0.510
284.85	0.623
285.21	0.730
285.57	0.590
285.93	0.476
286.29	0.337
286.65	0.439
287.02	0.692
287.38	0.471
287.74	0.348
288.10	0.188
288.46	0.145
288.82	0.156
289.18	0.140
289.54	0.133
289.91	0.125
290.27	0.182
290.63	0.436
290.99	0.186
291.35	0.309
291.71	0.555
292.07	0.587
292.43	0.523
292.79	0.458
293.16	0.430
293.52	0.648
293.88	0.739
294.24	0.702
294.60	0.453
294.96	0.465
295.32	0.364
295.68	0.365
296.04	0.492
296.40	0.684
296.76	0.635
297.12	0.560
297.49	0.398
297.85	0.298
298.21	0.363
298.57	0.416
298.93	0.500
299.29	0.459
299.65	0.318
300.01	0.158
300.37	-0.051
300.73	0.053
301.09	0.062
301.45	0.156
301.81	0.250
302.17	0.271
302.53	0.223
302.89	0.206
303.25	0.283
303.61	0.213
303.97	0.005
304.33	0.005
304.69	-0.071
305.05	-0.071
305.41	-0.249
305.77	-0.327
306.13	-0.334
306.49	-0.333
306.85	-0.310
307.21	-0.195
307.57	-0.009
307.93	0.273
308.29	0.516
308.65	0.640
309.01	0.576
309.37	0.706
309.73	0.745
310.09	0.865
310.45	0.941
310.81	0.955
311.17	0.845
311.53	0.792
311.89	0.739
312.25	0.569
312.61	0.430
312.96	0.585
313.32	0.491
313.68	0.388
314.04	0.211
314.40	0.186
314.76	0.102
315.12	0.127
315.48	0.205
315.84	0.179
316.20	0.237
316.56	0.223
316.92	0.094
317.27	0.139
317.63	0.208
317.99	0.227
318.35	0.169
318.71	0.212
319.07	0.217
319.43	0.109
319.79	0.213
320.15	0.168
320.50	0.293
320.86	0.295
321.22	0.251
321.58	0.283
321.94	0.262
322.30	0.293
322.66	0.272
323.01	0.153
323.37	0.140
323.73	0.003
324.09	-0.104
324.45	-0.173
324.81	-0.124
325.17	-0.002
325.52	-0.065
325.88	-0.155
326.24	-0.139
326.60	-0.214
326.96	-0.156
327.31	-0.179
327.67	-0.141
328.03	-0.066
328.39	-0.162
328.75	-0.195
329.11	-0.183
329.46	-0.087
329.82	0.041
330.18	0.024
330.54	0.114
330.90	0.117
331.25	0.168
331.61	0.285
331.97	0.303
332.33	0.390
332.68	0.456
333.04	0.426
333.40	0.223
333.76	0.139
334.11	0.114
334.47	0.170
334.83	0.169
335.19	0.121
335.54	-0.006
335.90	0.017
336.26	-0.048
336.62	-0.131
336.97	-0.269
337.33	-0.227
337.69	-0.202
338.05	-0.247
338.40	-0.327
338.76	-0.276
339.12	-0.197
339.48	-0.174
339.83	-0.172
340.19	-0.110
340.55	-0.040
340.90	0.020
341.26	0.083
341.62	0.119
341.97	0.143
342.33	0.154
342.69	0.198
343.04	0.147
343.40	0.043
343.76	-0.069
344.12	-0.073
344.47	-0.025
344.83	-0.001
345.19	0.002
345.54	-0.001
345.90	0.002
346.26	-0.044
346.61	-0.105
346.97	-0.086
347.32	0.002
347.68	0.044
348.04	0.021
348.39	-0.073
348.75	-0.061
349.11	-0.128
349.46	-0.209
349.82	-0.211
350.18	-0.196
350.53	-0.155
350.89	-0.183
351.24	-0.211
351.60	-0.210
351.96	-0.176
352.31	-0.192
352.67	-0.155
353.02	-0.092
353.38	-0.018
353.74	-0.005
354.09	-0.045
354.45	-0.038
354.80	-0.017
355.16	0.067
355.52	0.101
355.87	0.043
356.23	0.114
356.58	0.073
356.94	0.096
357.29	0.097
357.65	0.120
358.00	0.182
358.36	0.148
358.72	0.117
359.07	0.093
359.43	0.091
359.78	0.144
360.14	0.129
360.49	0.089
360.85	0.059
361.20	0.048
361.56	0.033
361.91	0.053
362.27	0.065
362.62	0.124
362.98	0.111
363.33	0.131
363.69	0.082
364.04	0.060
364.40	0.090
364.75	0.092
365.11	0.101
365.46	0.074
365.82	0.091
366.17	0.083
366.53	0.073
366.88	0.061
367.24	0.028
367.59	0.021
367.95	0.042
368.30	0.068
368.66	0.096
369.01	0.077
369.37	0.106
369.72	0.134
370.08	0.169
370.43	0.159
370.78	0.131
371.14	0.110
371.49	0.159
371.85	0.134
372.20	0.086
372.56	0.073
372.91	0.116
373.26	0.114
373.62	0.036
373.97	0.056
374.33	0.038
374.68	0.078
375.03	0.113
375.39	0.071
375.74	0.086
376.10	0.104
376.45	0.117
376.80	0.106
377.16	0.109
377.51	0.146
377.87	0.135
378.22	0.144
378.57	0.162
378.93	0.166
379.28	0.229
379.63	0.255
379.99	0.318
380.34	0.331
380.70	0.351
381.05	0.379
381.40	0.360
381.76	0.356
382.11	0.368
382.46	0.395
382.82	0.404
383.17	0.369
383.52	0.331
383.88	0.299
384.23	0.310
384.58	0.269
384.94	0.233
385.29	0.265
385.64	0.282
385.99	0.286
386.35	0.274
386.70	0.263
387.05	0.236
387.41	0.240
387.76	0.201
388.11	0.197
388.47	0.214
388.82	0.268
389.17	0.258
389.52	0.243
389.88	0.258
390.23	0.243
390.58	0.266
390.93	0.269
391.29	0.272
391.64	0.312
391.99	0.336
392.34	0.362
392.70	0.338
393.05	0.320
393.40	0.327
393.75	0.311
394.11	0.327
394.46	0.283
394.81	0.289
395.16	0.277
395.52	0.273
395.87	0.231
396.22	0.225
396.57	0.195
396.92	0.189
397.28	0.145
397.63	0.111
397.98	0.060
398.33	0.064
398.68	0.056
399.04	0.058
399.39	0.035
399.74	0.017
400.09	-0.023
400.44	-0.008
400.80	0.006
401.15	0.019
401.50	0.024
401.85	0.060
402.20	0.053
402.55	0.091
402.90	0.067
403.26	0.084
403.61	0.075
403.96	0.072
404.31	0.067
404.66	0.068
405.01	0.051
405.36	0.085
405.72	0.069
406.07	0.068
406.42	0.039
406.77	0.066
407.12	0.057
407.47	0.101
407.82	0.105
408.17	0.093
408.53	0.080
408.88	0.079
409.23	0.031
409.58	0.014
409.93	0.042
410.28	0.046
410.63	0.026
410.98	0.019
411.33	-0.010
411.68	0.014
412.03	0.054
412.38	0.036
412.73	0.074
413.09	0.119
413.44	0.136
413.79	0.168
414.14	0.205
414.49	0.260
414.84	0.296
415.19	0.332
415.54	0.359
415.89	0.365
416.24	0.429
416.59	0.447
416.94	0.471
417.29	0.509
417.64	0.506
417.99	0.531
418.34	0.537
418.69	0.551
419.04	0.541
419.39	0.559
419.74	0.571
420.09	0.577
420.44	0.591
420.79	0.589
421.14	0.585
421.49	0.605
421.84	0.590
422.19	0.605
422.54	0.596
422.89	0.607
423.24	0.587
423.59	0.584
423.94	0.558
424.29	0.552
424.64	0.547
424.99	0.540
425.34	0.506
425.68	0.493
426.03	0.457
426.38	0.456
426.73	0.436
427.08	0.442
427.43	0.454
427.78	0.462
428.13	0.442
428.48	0.445
428.83	0.449
429.18	0.454
429.53	0.474
429.87	0.478
430.22	0.473
430.57	0.506
430.92	0.508
431.27	0.496
431.62	0.472
431.97	0.471
432.32	0.445
432.67	0.430
433.01	0.418
433.36	0.381
433.71	0.364
434.06	0.347
434.41	0.320
434.76	0.316
435.11	0.320
435.45	0.355
435.80	0.372
436.15	0.399
436.50	0.424
436.85	0.460
437.20	0.480
437.54	0.491
437.89	0.519
438.24	0.522
438.59	0.527
438.94	0.522
439.29	0.498
439.63	0.505
439.98	0.490
440.33	0.480
440.68	0.463
441.03	0.477
441.37	0.477
441.72	0.466
442.07	0.477
442.42	0.489
442.76	0.493
443.11	0.506
443.46	0.520
443.81	0.530
444.16	0.540
444.50	0.545
444.85	0.534
445.20	0.538
445.55	0.543
445.89	0.534
446.24	0.508
446.59	0.492
446.94	0.476
447.28	0.448
447.63	0.439
447.98	0.418
448.32	0.394
448.67	0.385
449.02	0.371
449.37	0.335
449.71	0.347
450.06	0.354
450.41	0.362
450.75	0.361
451.10	0.362
451.45	0.351
451.79	0.332
452.14	0.323
452.49	0.314
452.84	0.309
453.18	0.318
453.53	0.296
453.88	0.296
454.22	0.304
454.57	0.330
454.92	0.337
455.26	0.352
455.61	0.400
455.95	0.440
456.30	0.461
456.65	0.485
456.99	0.506
457.34	0.524
457.69	0.539
458.03	0.545
458.38	0.544
458.73	0.549
459.07	0.539
459.42	0.512
459.76	0.488
460.11	0.450
460.46	0.414
460.80	0.382
461.15	0.357
461.49	0.322
461.84	0.297
462.19	0.274
462.53	0.240
462.88	0.246
463.22	0.230
463.57	0.228
463.91	0.247
464.26	0.274
464.61	0.275
464.95	0.259
465.30	0.259
465.64	0.268
465.99	0.277
466.33	0.283
466.68	0.286
467.02	0.290
467.37	0.274
467.71	0.262
468.06	0.253
468.41	0.241
468.75	0.238
469.10	0.243
469.44	0.209
469.79	0.178
470.13	0.150
470.48	0.124
470.82	0.115
471.17	0.106
471.51	0.092
471.86	0.067
472.20	0.061
472.55	0.064
472.89	0.060
473.23	0.058
473.58	0.061
473.92	0.064
474.27	0.057
474.61	0.045
474.96	0.049
475.30	0.059
475.65	0.049
475.99	0.054
476.34	0.068
476.68	0.054
477.02	0.076
477.37	0.079
477.71	0.111
478.06	0.146
478.40	0.223
478.75	0.290
479.09	0.367
479.43	0.454
479.78	0.532
480.12	0.597
480.47	0.664
480.81	0.718
481.15	0.771
481.50	0.818
481.84	0.870
482.19	0.904
482.53	0.938
482.87	0.962
483.22	0.963
483.56	0.947
483.90	0.917
484.25	0.889
484.59	0.859
484.94	0.834
485.28	0.798
485.62	0.762
485.97	0.720
486.31	0.689
486.65	0.653
487.00	0.634
487.34	0.625
487.68	0.620
488.03	0.607
488.37	0.595
488.71	0.575
489.06	0.560
489.40	0.559
489.74	0.546
490.09	0.531
490.43	0.513
490.77	0.488
491.11	0.457
491.46	0.426
491.80	0.395
492.14	0.356
492.49	0.339
492.83	0.305
493.17	0.250
493.51	0.220
493.86	0.181
494.20	0.151
494.54	0.130
494.88	0.133
495.23	0.136
495.57	0.148
495.91	0.171
496.25	0.181
496.60	0.196
496.94	0.197
497.28	0.199
497.62	0.196
497.97	0.199
498.31	0.208
498.65	0.200
498.99	0.206
499.33	0.217
499.68	0.224
500.02	0.224
500.36	0.237
500.70	0.251
501.04	0.262
501.39	0.274
501.73	0.300
502.07	0.335
502.41	0.373
502.75	0.410
503.09	0.444
503.44	0.485
503.78	0.520
504.12	0.554
504.46	0.604
504.80	0.657
505.14	0.715
505.49	0.760
505.83	0.797
506.17	0.841
506.51	0.882
506.85	0.932
507.19	0.971
507.53	1.018
507.87	1.065
508.22	1.096
508.56	1.138
508.90	1.177
509.24	1.222
509.58	1.259
509.92	1.311
510.26	1.362
510.60	1.418
510.94	1.474
511.28	1.521
511.63	1.590
511.97	1.662
512.31	1.746
512.65	1.823
512.99	1.907
513.33	2.041
513.67	2.139
514.01	2.275
514.35	2.391
514.69	2.514
515.03	2.640
515.37	2.767
515.71	2.887
516.05	2.984
516.39	3.085
516.73	3.199
517.07	3.275
517.41	3.361
517.75	3.427
518.09	3.499
518.43	3.565
518.77	3.628
519.11	3.687
519.45	3.748
519.79	3.829
520.13	3.921
520.47	4.022
520.81	4.135
521.15	4.268
521.49	4.389
521.83	4.519
522.17	4.662
522.51	4.816
522.85	4.980
523.19	5.171
523.53	5.367
523.87	5.588
524.21	5.791
524.55	5.979
524.89	6.151
525.23	6.313
525.57	6.444
525.91	6.579
526.25	6.695
526.58	6.805
526.92	6.906
527.26	6.985
527.60	7.032
527.94	7.074
528.28	7.101
528.62	7.123
528.96	7.143
529.30	7.174
529.64	7.187
529.97	7.215
530.31	7.223
530.65	7.233
530.99	7.261
531.33	7.291
531.67	7.320
532.01	7.357
532.35	7.386
532.68	7.426
533.02	7.447
533.36	7.464
533.70	7.471
534.04	7.499
534.38	7.513
534.71	7.517
535.05	7.521
535.39	7.528
535.73	7.547
536.07	7.568
536.41	7.588
536.74	7.620
537.08	7.654
537.42	7.721
537.76	7.763
538.10	7.823
538.43	7.865
538.77	7.931
539.11	7.990
539.45	8.028
539.79	8.076
540.12	8.105
540.46	8.131
540.80	8.144
541.14	8.124
541.47	8.118
541.81	8.106
542.15	8.104
542.49	8.082
542.82	8.050
543.16	8.036
543.50	8.006
543.84	7.976
544.17	7.941
544.51	7.935
544.85	7.918
545.18	7.911
545.52	7.898
545.86	7.886
546.20	7.870
546.53	7.841
546.87	7.796
547.21	7.758
547.54	7.731
547.88	7.734
548.22	7.701
548.55	7.705
548.89	7.683
549.23	7.671
549.56	7.651
549.90	7.663
550.24	7.686
550.57	7.701
550.91	7.702
551.25	7.721
551.58	7.712
551.92	7.719
552.26	7.713
552.59	7.718
552.93	7.694
553.27	7.695
553.60	7.668
553.94	7.632
554.27	7.602
554.61	7.589
554.95	7.543
555.28	7.508
555.62	7.478
555.95	7.453
556.29	7.414
556.63	7.391
556.96	7.351
557.30	7.272
557.63	7.222
557.97	7.179
558.31	7.132
558.64	7.086
558.98	7.048
559.31	7.021
559.65	6.963
559.98	6.908
560.32	6.849
560.65	6.797
560.99	6.772
561.33	6.738
561.66	6.684
562.00	6.634
562.33	6.587
562.67	6.523
563.00	6.462
563.34	6.421
563.67	6.376
564.01	6.340
564.34	6.290
564.68	6.254
565.01	6.197
565.35	6.155
565.68	6.081
566.02	6.018
566.35	5.952
566.69	5.854
567.02	5.786
567.36	5.701
567.69	5.637
568.03	5.558
568.36	5.478
568.69	5.415
569.03	5.345
569.36	5.293
569.70	5.237
570.03	5.196
570.37	5.162
570.70	5.095
571.04	5.048
571.37	4.976
571.70	4.918
572.04	4.854
572.37	4.789
572.71	4.728
573.04	4.676
573.37	4.605
573.71	4.525
574.04	4.461
574.38	4.386
574.71	4.320
575.04	4.263
575.38	4.203
575.71	4.149
576.05	4.089
576.38	4.042
576.71	3.956
577.05	3.903
577.38	3.848
577.71	3.784
578.05	3.737
578.38	3.690
578.71	3.612
579.05	3.563
579.38	3.485
579.71	3.429
580.05	3.345
580.38	3.316
580.71	3.257
581.05	3.204
581.38	3.159
581.71	3.106
582.05	3.062
582.38	3.035
582.71	2.979
583.04	2.973
583.38	2.933
583.71	2.913
584.04	2.881
584.38	2.877
584.71	2.873
585.04	2.882
585.37	2.886
585.71	2.873
586.04	2.869
586.37	2.894
586.70	2.891
587.04	2.894
587.37	2.906
587.70	2.894
588.03	2.889
588.37	2.903
588.70	2.861
589.03	2.839
589.36	2.837
589.69	2.789
590.03	2.748
590.36	2.689
590.69	2.657
591.02	2.606
591.35	2.586
591.69	2.560
592.02	2.503
592.35	2.486
592.68	2.496
593.01	2.455
593.35	2.464
593.68	2.470
594.01	2.480
594.34	2.459
594.67	2.477
595.00	2.472
595.34	2.442
595.67	2.406
596.00	2.387
596.33	2.317
596.66	2.285
596.99	2.251
597.32	2.181
597.65	2.132
597.99	2.079
598.32	2.004
598.65	1.926
598.98	1.867
599.31	1.856
599.64	1.866
599.97	1.863
600.30	1.875
600.63	1.856
600.96	1.862
601.30	1.884
601.63	1.913
601.96	1.923
602.29	1.949
602.62	1.956
602.95	1.948
603.28	1.916
603.61	1.875
603.94	1.839
604.27	1.815
604.60	1.785
604.93	1.746
605.26	1.709
605.59	1.668
605.92	1.625
606.25	1.594
606.58	1.546
606.91	1.475
607.24	1.480
607.57	1.446
607.90	1.421
608.23	1.382
608.56	1.327
608.89	1.269
609.22	1.215
609.55	1.155
609.88	1.095
610.21	1.054
610.54	1.008
610.87	0.935
611.20	0.868
611.53	0.795
611.86	0.754
612.19	0.673
612.52	0.627
612.85	0.626
613.18	0.607
613.51	0.544
613.84	0.487
614.17	0.471
614.49	0.461
614.82	0.423
615.15	0.404
615.48	0.374
615.81	0.348
616.14	0.330
616.47	0.263
616.80	0.183
617.13	0.154
617.46	0.132
617.78	0.094
618.11	0.044
618.44	0.021
618.77	-0.005
619.10	-0.032
619.43	-0.016
619.76	-0.060
620.09	-0.047
620.41	-0.050
620.74	-0.022
621.07	0.011
621.40	0.023
621.73	0.040
622.06	0.050
622.38	0.057
622.71	0.085
623.04	0.101
623.37	0.146
623.70	0.158
624.02	0.211
624.35	0.256
624.68	0.245
625.01	0.270
625.34	0.306
625.66	0.315
625.99	0.343
626.32	0.348
626.65	0.365
626.98	0.337
627.30	0.318
627.63	0.278
627.96	0.210
628.29	0.175
628.61	0.132
628.94	0.062
629.27	0.030
629.60	-0.043
629.92	-0.083
630.25	-0.165
630.58	-0.184
630.91	-0.224
631.23	-0.245
631.56	-0.246
631.89	-0.274
632.21	-0.296
632.54	-0.307
632.87	-0.337
633.19	-0.361
633.52	-0.408
633.85	-0.404
634.18	-0.445
634.50	-0.473
634.83	-0.517
635.16	-0.586
635.48	-0.641
635.81	-0.708
636.14	-0.779
636.46	-0.843
636.79	-0.881
637.11	-0.949
637.44	-1.045
637.77	-1.099
638.09	-1.183
638.42	-1.235
638.75	-1.268
639.07	-1.269
639.40	-1.289
639.73	-1.328
640.05	-1.346
640.38	-1.358
640.70	-1.395
641.03	-1.409
641.36	-1.413
641.68	-1.405
642.01	-1.406
642.33	-1.416
642.66	-1.453
642.98	-1.493
643.31	-1.496
643.64	-1.479
643.96	-1.496
644.29	-1.484
644.61	-1.473
644.94	-1.486
645.26	-1.476
645.59	-1.437
645.91	-1.417
646.24	-1.405
646.56	-1.369
646.89	-1.347
647.22	-1.366
647.54	-1.349
647.87	-1.312
648.19	-1.326
648.52	-1.317
648.84	-1.282
649.17	-1.333
649.49	-1.355
649.82	-1.355
650.14	-1.362
650.47	-1.349
650.79	-1.323
651.11	-1.349
651.44	-1.363
651.76	-1.339
652.09	-1.311
652.41	-1.329
652.74	-1.279
653.06	-1.259
653.39	-1.210
653.71	-1.172
654.04	-1.172
654.36	-1.142
654.68	-1.084
655.01	-1.021
655.33	-0.986
655.66	-0.972
655.98	-0.950
656.30	-0.974
656.63	-0.944
656.95	-0.941
657.28	-0.960
657.60	-0.957
657.92	-0.977
658.25	-1.001
658.57	-1.013
658.90	-1.038
659.22	-1.033
659.54	-1.039
659.87	-1.035
660.19	-1.049
660.51	-1.090
660.84	-1.095
661.16	-1.114
661.48	-1.162
661.81	-1.169
662.13	-1.232
662.45	-1.239
662.78	-1.254
663.10	-1.242
663.42	-1.211
663.75	-1.164
664.07	-1.155
664.39	-1.177
664.72	-1.159
665.04	-1.115
665.36	-1.061
665.69	-0.992
666.01	-0.924
666.33	-0.893
666.65	-0.854
666.98	-0.767
667.30	-0.698
667.62	-0.595
667.94	-0.432
668.27	-0.287
668.59	-0.149
668.91	-0.041
669.23	0.050
669.56	0.141
669.88	0.295
670.20	0.395
670.52	0.482
670.85	0.559
671.17	0.644
671.49	0.718
671.81	0.807
672.13	0.877
672.46	1.018
672.78	1.148
673.10	1.287
673.42	1.370
673.74	1.527
674.07	1.669
674.39	1.808
674.71	1.918
675.03	2.141
675.35	2.320
675.67	2.489
676.00	2.568
676.32	2.684
676.64	2.810
676.96	2.976
677.28	3.105
677.60	3.237
677.92	3.377
678.25	3.543
678.57	3.613
678.89	3.657
679.21	3.770
679.53	3.899
679.85	4.004
680.17	4.096
680.49	4.169
680.81	4.262
681.13	4.332
681.46	4.432
681.78	4.571
682.10	4.684
682.42	4.828
682.74	4.944
683.06	5.028
683.38	5.155
683.70	5.293
684.02	5.393
684.34	5.525
684.66	5.677
684.98	5.766
685.30	5.765
685.62	5.792
685.94	5.850
686.26	5.847
686.58	5.874
686.90	5.897
687.22	5.885
687.54	5.890
687.86	5.851
688.18	5.791
688.50	5.761
688.82	5.784
689.14	5.828
689.46	5.920
689.78	6.021
690.10	6.107
690.42	6.192
690.74	6.362
691.06	6.484
691.38	6.556
691.70	6.692
692.02	6.810
692.34	6.945
692.66	7.055
692.98	7.074
693.30	7.206
693.62	7.355
693.94	7.458
694.26	7.504
694.57	7.666
694.89	7.880
695.21	8.064
695.53	8.278
695.85	8.440
696.17	8.658
696.49	8.885
696.81	9.110
697.13	9.275
697.44	9.520
697.76	9.768
698.08	10.024
698.40	10.301
698.72	10.565
699.04	10.860
699.36	11.238
699.67	11.524
699.99	11.824
700.31	12.134
700.63	12.555
700.95	12.902
701.27	13.328
701.58	13.670
701.90	13.953
702.22	14.240
702.54	14.479
702.86	14.803
703.17	15.072
703.49	15.419
703.81	15.706
704.13	15.954
704.45	16.273
704.76	16.522
705.08	16.853
705.40	17.078
705.72	17.430
706.03	17.825
706.35	18.089
706.67	18.449
706.99	18.802
707.30	19.109
707.62	19.480
707.94	19.740
708.26	20.037
708.57	20.316
708.89	20.689
709.21	20.937
709.53	21.179
709.84	21.480
710.16	21.850
710.48	22.137
710.79	22.461
711.11	22.718
711.43	23.041
711.74	23.397
712.06	23.742
712.38	24.110
712.69	24.425
713.01	24.780
713.33	25.092
713.64	25.469
713.96	25.777
714.28	26.155
714.59	26.628
714.91	27.146
715.23	27.518
715.54	27.876
715.86	28.324
716.17	28.878
716.49	29.277
716.81	29.817
717.12	30.098
717.44	30.523
717.76	31.059
718.07	31.306
718.39	31.563
718.70	31.943
719.02	32.283
719.33	32.620
719.65	32.813
719.97	33.036
720.28	33.251
720.60	33.570
720.91	33.984
721.23	34.260
721.54	34.762
721.86	35.127
722.17	35.373
722.49	35.798
722.81	36.037
723.12	36.402
723.44	36.869
723.75	37.189
724.07	37.507
724.38	37.725
724.70	37.912
725.01	37.990
725.33	38.189
725.64	38.481
725.96	38.623
726.27	38.736
726.59	38.933
726.90	39.204
727.22	39.279
727.53	39.533
727.84	39.817
728.16	39.903
728.47	40.155
728.79	40.359
729.10	40.449
729.42	40.596
729.73	40.816
730.05	41.001
730.36	41.118
730.67	41.455
730.99	41.583
731.30	41.618
731.62	41.891
731.93	42.164
732.24	42.313
732.56	42.506
732.87	42.800
733.19	42.991
733.50	43.182
733.81	43.225
734.13	43.352
734.44	43.552
734.76	43.734
735.07	43.827
735.38	43.980
735.70	44.332
736.01	44.604
736.32	44.635
736.64	44.898
736.95	44.992
737.26	45.206
737.58	45.356
737.89	45.628
738.20	45.802
738.52	46.097
738.83	46.176
739.14	46.345
739.45	46.476
739.77	46.690
740.08	46.827
740.39	47.131
740.71	47.428
741.02	47.565
741.33	47.484
741.64	47.625
741.96	47.637
742.27	47.405
742.58	47.279
742.90	47.408
743.21	47.389
743.52	47.424
743.83	47.453
744.14	47.340
744.46	47.412
744.77	47.491
745.08	47.426
745.39	47.487
745.71	47.717
746.02	47.681
746.33	47.577
746.64	47.541
746.95	47.712
747.27	47.895
747.58	47.955
747.89	47.798
748.20	47.703
748.51	47.814
748.82	47.832
749.14	47.824
749.45	47.973
749.76	48.093
750.07	48.196
750.38	47.941
750.69	47.605
751.01	47.605
751.32	47.796
751.63	47.942
751.94	47.821
752.25	47.680
752.56	47.599
752.87	47.406
753.18	47.317
753.49	47.339
753.81	47.407
754.12	47.423
754.43	47.411
754.74	47.284
755.05	47.265
755.36	47.446
755.67	47.669
755.98	48.056
756.29	48.133
756.60	48.231
756.91	48.252
757.22	48.347
757.53	48.641
757.84	48.792
758.15	48.931
758.46	48.959
758.77	48.789
759.09	48.851
759.40	48.806
759.71	48.771
760.02	48.620
760.33	48.590
760.64	48.424
760.95	48.412
761.26	48.247
761.57	48.123
761.88	48.066
762.18	48.226
762.49	48.057
762.80	48.004
763.11	47.993
763.42	47.939
763.73	47.854
764.04	47.830
764.35	47.566
764.66	47.551
764.97	47.354
765.28	47.210
765.59	46.879
765.90	46.587
766.21	46.133
766.52	46.011
766.83	45.818
767.14	45.771
767.44	45.518
767.75	45.413
768.06	45.166
768.37	44.945
768.68	44.755
768.99	44.705
769.30	44.758
769.61	44.844
769.91	44.768
770.22	44.543
770.53	44.106
770.84	44.299
771.15	44.207
771.46	44.035
771.77	44.260
772.07	44.416
772.38	44.143
772.69	44.201
773.00	44.024
773.31	43.819
773.61	43.873
773.92	43.932
774.23	43.731
774.54	43.671
774.85	43.663
775.15	43.568
775.46	43.334
775.77	43.508
776.08	43.300
776.39	43.128
776.69	43.107
777.00	43.211
777.31	43.575
777.62	43.478
777.92	43.341
778.23	43.544
778.54	43.460
778.85	43.393
779.15	43.240
779.46	43.371
779.77	43.605
780.07	43.682
780.38	43.886
780.69	43.531
781.00	43.839
781.30	43.793
781.61	43.398
781.92	43.405
782.22	43.599
782.53	43.758
782.84	43.757
783.14	43.851
783.45	43.825
783.76	43.774
784.06	43.905
784.37	43.578
784.68	43.770
784.98	44.001
785.29	44.145
785.60	44.058
785.90	44.085
786.21	44.051
786.51	44.031
786.82	44.306
787.13	44.210
787.43	44.277
787.74	44.431
788.04	44.647
788.35	44.596
788.66	44.540
788.96	44.959
789.27	45.063
789.57	44.853
789.88	44.845
790.19	44.641
790.49	44.700
790.80	44.364
791.10	44.502
791.41	44.321
791.71	44.362
792.02	44.402
792.32	43.706
792.63	43.686
792.93	43.803
793.24	43.843
793.54	43.687
793.85	43.821
794.15	43.829
794.46	43.749
794.76	43.829
795.07	43.979
795.37	43.950
795.68	44.048
795.98	43.799
796.29	44.197
796.59	44.298
796.90	44.359
797.20	44.102
797.51	44.270
797.81	44.086
798.12	43.917
798.42	43.991
798.72	44.254
799.03	44.285
799.33	44.619
799.64	44.539
799.94	44.559
800.25	44.415
800.55	44.766
800.85	44.725
801.16	44.860
801.46	44.639
801.77	44.398
802.07	44.104
802.37	44.634
802.68	43.978
802.98	43.716
803.28	43.594
803.59	43.864
803.89	43.530
804.20	43.714
804.50	43.635
804.80	43.747
805.11	43.873
805.41	43.740
805.71	43.437
806.02	43.647
806.32	43.879
806.62	44.008
806.93	44.081
807.23	44.494
807.53	44.546
807.83	44.386
808.14	44.589
808.44	44.484
808.74	44.563
809.05	44.385
809.35	44.840
809.65	45.147
809.95	45.120
810.26	45.278
810.56	45.333
810.86	45.633
811.16	46.265
811.47	46.641
811.77	47.123
812.07	47.214
812.37	47.646
812.68	47.617
812.98	47.141
813.28	47.364
813.58	47.442
813.88	46.838
814.19	47.313
814.49	47.311
814.79	47.109
815.09	47.254
815.39	47.288
815.70	47.272
816.00	47.232
816.30	47.128
816.60	47.008
816.90	47.005
817.20	47.216
817.50	47.087
817.81	47.001
818.11	47.092
818.41	47.014
818.71	47.157
819.01	47.249
819.31	47.601
819.61	47.976
819.92	48.240
820.22	48.503
820.52	48.818
820.82	48.896
821.12	49.221
821.42	49.488
821.72	49.686
822.02	50.003
822.32	50.370
822.62	50.555
822.92	50.763
823.22	50.975
823.52	51.165
823.83	51.222
824.13	51.356
824.43	51.206
824.73	51.155
825.03	51.069
825.33	50.994
825.63	50.637
825.93	50.488
826.23	50.239
826.53	50.008
826.83	49.787
827.13	49.830
827.43	49.902
827.73	50.193
828.03	50.444
828.33	50.824
828.63	50.834
828.93	50.999
829.23	50.775
829.53	50.584
829.83	50.298
830.13	50.125
830.42	49.756
830.72	49.349
831.02	49.138
831.32	48.759
831.62	48.685
831.92	48.435
832.22	48.442
832.52	48.517
832.82	48.617
833.12	48.839
833.42	48.849
833.72	48.666
834.01	49.066
834.31	48.971
834.61	49.076
834.91	49.177
835.21	49.396
835.51	49.384
835.81	49.271
836.11	49.552
836.40	49.518
836.70	49.239
837.00	49.598
837.30	48.922
837.60	49.288
837.90	49.422
838.19	48.528
838.49	48.524
838.79	48.666
839.09	49.053
839.39	48.785
839.68	48.637
839.98	48.188
840.28	47.949
840.58	48.159
840.88	47.940
841.17	47.194
841.47	47.790
841.77	48.353
842.07	48.274
842.36	48.246
842.66	48.288
842.96	47.649
843.26	47.856
843.55	48.789
843.85	48.820
844.15	48.790
844.45	48.796
844.74	49.140
845.04	47.405
845.34	46.969
845.63	48.115
845.93	46.147
846.23	48.235
846.53	49.189
846.82	47.464
847.12	47.000
847.42	46.200
847.71	46.731
848.01	46.166
848.31	46.000
848.60	46.071
848.90	43.633
849.19	44.626
849.49	42.236
849.79	41.462
850.08	42.832
850.38	43.667
850.68	42.842
850.97	43.425
851.27	43.345
851.56	44.244
851.86	44.378
852.16	46.642
852.45	45.888
852.75	44.347
853.04	46.893
853.34	45.724
853.64	45.041
853.93	44.153
854.23	42.797
854.52	43.270
854.82	43.178
855.11	43.915
855.41	43.178
855.70	44.998
856.00	47.041
856.30	44.997
856.59	45.251
856.89	46.251
857.18	49.807
857.48	49.701
857.77	49.367
858.07	49.270
858.36	46.650
858.66	45.823
858.95	44.745
859.25	45.256
859.54	45.532
859.84	45.897
860.13	44.351
860.42	43.313
860.72	43.340
861.01	43.122
861.31	43.566
861.60	44.226
861.90	43.475
862.19	42.766
862.49	42.545
862.78	41.682
863.07	41.131
863.37	41.133
863.66	39.833
863.96	41.202
864.25	42.842
864.54	40.858
864.84	43.445
865.13	42.991
865.43	44.513
865.72	61.444
866.01	32.221
866.31	61.245
866.60	30.223
866.89	49.509
>>>>>End Spectral Data<<<<<
