OOIBase32 Version 2.0.0.6 Data File
++++++++++++++++++++++++++++++++++++
Date: 01-24-2012, 17:46:27
User: Valued Ocean Optics Customer
Spectrometer Serial Number: USB2E2917
Spectrometer Channel: Master
Integration Time (msec): 7
Spectra Averaged: 10
Boxcar Smoothing: 5
Correct for Electrical Dark: Enabled
Time Normalized: Disabled
Dual-beam Reference: Disabled
Reference Channel: Master
Temperature: Not acquired
Spectrometer Type: S2000
ADC Type: USB2000
Number of Pixels in File: 2048
Graph Title: 
>>>>>Begin Spectral Data<<<<<
180.30	0.000
180.67	0.000
181.03	48.392
181.40	-19038.095
181.77	-577.753
182.14	331.041
182.51	111.031
182.88	129.046
183.25	25.889
183.62	-186.786
183.99	119.202
184.36	-17.882
184.73	-41.995
185.10	85.338
185.46	66.118
185.83	-829.119
186.20	8.716
186.57	219.753
186.94	-74.867
187.31	62.424
187.68	-24.044
188.05	356.381
188.42	183.494
188.78	67.949
189.15	22.036
189.52	50.593
189.89	33.766
190.26	31.347
190.63	35.285
191.00	16.010
191.37	-10.610
191.73	-17.843
192.10	-42.858
192.47	-11.324
192.84	-7.239
193.21	-17.227
193.58	-34.531
193.94	-31.899
194.31	-23.394
194.68	-33.245
195.05	-44.054
195.42	-17.029
195.79	-5.826
196.15	17.486
196.52	17.620
196.89	14.261
197.26	20.883
197.63	26.096
198.00	33.930
198.36	42.677
198.73	51.277
199.10	41.508
199.47	41.748
199.84	33.685
200.20	18.183
200.57	-13.428
200.94	5.489
201.31	16.515
201.68	13.413
202.04	10.679
202.41	14.382
202.78	23.752
203.15	30.782
203.51	31.273
203.88	33.871
204.25	29.819
204.62	42.664
204.98	39.113
205.35	28.639
205.72	12.926
206.09	31.448
206.46	19.431
206.82	7.417
207.19	15.698
207.56	11.024
207.92	18.795
208.29	-11.078
208.66	-34.837
209.03	-18.179
209.39	-23.272
209.76	-16.223
210.13	-31.274
210.50	-27.650
210.86	-21.850
211.23	-22.950
211.60	-19.648
211.96	-34.110
212.33	-1.823
212.70	3.940
213.07	2.877
213.43	5.620
213.80	6.558
214.17	5.168
214.53	11.434
214.90	7.683
215.27	2.613
215.63	3.638
216.00	-8.428
216.37	-17.134
216.74	-12.227
217.10	-16.612
217.47	-10.120
217.84	-35.365
218.20	-42.982
218.57	-48.511
218.94	-24.346
219.30	-22.480
219.67	-27.182
220.04	-25.402
220.40	-30.162
220.77	-31.258
221.13	-28.265
221.50	-32.018
221.87	-20.837
222.23	-28.997
222.60	-24.467
222.97	-36.556
223.33	-25.264
223.70	-24.322
224.07	-16.935
224.43	-13.457
224.80	-16.664
225.16	-13.171
225.53	-11.723
225.90	-12.986
226.26	-6.707
226.63	-7.384
226.99	-2.648
227.36	-3.565
227.73	-3.593
228.09	-4.230
228.46	-5.652
228.82	-0.489
229.19	-0.236
229.56	-0.278
229.92	0.585
230.29	-0.403
230.65	1.321
231.02	0.579
231.38	0.998
231.75	2.243
232.12	1.252
232.48	2.575
232.85	0.876
233.21	1.482
233.58	1.891
233.94	0.452
234.31	-3.017
234.68	-5.011
235.04	-5.092
235.41	-4.461
235.77	-4.931
236.14	-4.637
236.50	-2.847
236.87	-5.573
237.23	-7.319
237.60	-8.177
237.96	-6.763
238.33	-5.087
238.69	-5.142
239.06	-5.067
239.42	-4.093
239.79	-3.163
240.15	-2.230
240.52	-2.502
240.88	-2.183
241.25	-1.428
241.61	-0.119
241.98	-0.269
242.34	0.304
242.71	1.233
243.07	1.022
243.44	0.802
243.80	0.752
244.17	0.477
244.53	0.820
244.90	0.664
245.26	0.613
245.63	0.329
245.99	0.270
246.36	-0.258
246.72	-0.488
247.09	-0.564
247.45	-0.718
247.81	-0.943
248.18	-1.198
248.54	-2.090
248.91	-2.337
249.27	-2.747
249.64	-3.022
250.00	-3.579
250.36	-3.231
250.73	-3.299
251.09	-3.340
251.46	-3.588
251.82	-3.645
252.19	-3.670
252.55	-3.253
252.91	-3.107
253.28	-2.281
253.64	-1.464
254.01	-1.016
254.37	-0.831
254.73	-0.806
255.10	0.216
255.46	0.383
255.83	0.432
256.19	0.620
256.55	0.687
256.92	0.801
257.28	0.591
257.65	0.426
258.01	0.581
258.37	0.519
258.74	0.516
259.10	0.414
259.46	0.258
259.83	0.469
260.19	0.611
260.55	0.600
260.92	0.678
261.28	0.738
261.64	0.746
262.01	0.964
262.37	1.298
262.73	1.561
263.10	1.058
263.46	1.446
263.82	1.074
264.19	1.100
264.55	1.301
264.91	1.615
265.28	1.835
265.64	2.109
266.00	1.793
266.37	1.965
266.73	1.716
267.09	1.777
267.46	1.915
267.82	1.793
268.18	1.715
268.54	1.331
268.91	0.742
269.27	0.237
269.63	-0.021
270.00	0.443
270.36	0.175
270.72	0.132
271.08	0.186
271.45	-0.016
271.81	-0.094
272.17	-0.224
272.53	0.039
272.90	0.326
273.26	0.312
273.62	0.306
273.98	-0.318
274.35	-0.353
274.71	-0.280
275.07	-0.246
275.43	-0.301
275.80	0.113
276.16	-0.088
276.52	-0.247
276.88	-0.055
277.25	0.369
277.61	0.552
277.97	0.501
278.33	0.426
278.69	0.529
279.06	0.232
279.42	0.130
279.78	-0.437
280.14	-0.478
280.50	-0.510
280.87	-0.424
281.23	-0.657
281.59	-0.732
281.95	-0.498
282.31	-0.363
282.68	-0.254
283.04	0.099
283.40	0.201
283.76	0.411
284.12	0.641
284.48	0.575
284.85	0.344
285.21	0.183
285.57	-0.024
285.93	0.071
286.29	0.007
286.65	-0.115
287.02	-0.358
287.38	-0.377
287.74	-0.373
288.10	-0.354
288.46	-0.079
288.82	0.206
289.18	0.413
289.54	0.520
289.91	0.233
290.27	-0.024
290.63	-0.062
290.99	0.174
291.35	0.254
291.71	0.198
292.07	0.123
292.43	-0.104
292.79	-0.285
293.16	-0.319
293.52	-0.451
293.88	-0.238
294.24	-0.134
294.60	-0.107
294.96	-0.295
295.32	-0.331
295.68	-0.381
296.04	-0.338
296.40	-0.427
296.76	-0.416
297.12	-0.475
297.49	-0.307
297.85	-0.313
298.21	-0.185
298.57	-0.285
298.93	-0.086
299.29	-0.177
299.65	-0.108
300.01	-0.211
300.37	0.167
300.73	0.105
301.09	0.147
301.45	0.036
301.81	-0.049
302.17	-0.167
302.53	-0.192
302.89	-0.336
303.25	-0.378
303.61	-0.389
303.97	-0.385
304.33	-0.714
304.69	-0.612
305.05	-0.666
305.41	-0.565
305.77	-0.452
306.13	-0.309
306.49	-0.400
306.85	-0.354
307.21	-0.329
307.57	-0.475
307.93	-0.417
308.29	-0.299
308.65	-0.542
309.01	-0.608
309.37	-0.733
309.73	-0.897
310.09	-1.215
310.45	-1.218
310.81	-1.441
311.17	-1.535
311.53	-1.628
311.89	-1.844
312.25	-2.065
312.61	-2.201
312.96	-2.241
313.32	-2.325
313.68	-2.490
314.04	-2.211
314.40	-2.474
314.76	-2.461
315.12	-2.509
315.48	-2.446
315.84	-2.443
316.20	-2.481
316.56	-2.585
316.92	-2.639
317.27	-2.764
317.63	-2.687
317.99	-2.925
318.35	-2.640
318.71	-2.676
319.07	-2.766
319.43	-2.886
319.79	-2.958
320.15	-3.163
320.50	-3.005
320.86	-3.128
321.22	-3.176
321.58	-3.152
321.94	-3.077
322.30	-3.196
322.66	-3.066
323.01	-3.130
323.37	-3.037
323.73	-3.230
324.09	-3.151
324.45	-3.422
324.81	-3.509
325.17	-3.519
325.52	-3.724
325.88	-4.005
326.24	-4.109
326.60	-4.489
326.96	-4.490
327.31	-4.751
327.67	-4.510
328.03	-4.610
328.39	-4.628
328.75	-4.650
329.11	-4.680
329.46	-4.730
329.82	-4.505
330.18	-4.575
330.54	-4.535
330.90	-4.592
331.25	-4.379
331.61	-4.400
331.97	-4.376
332.33	-4.245
332.68	-4.163
333.04	-4.174
333.40	-4.067
333.76	-4.154
334.11	-4.104
334.47	-4.087
334.83	-4.132
335.19	-4.291
335.54	-4.406
335.90	-4.438
336.26	-4.496
336.62	-4.631
336.97	-4.746
337.33	-4.855
337.69	-4.831
338.05	-4.743
338.40	-4.610
338.76	-4.652
339.12	-4.606
339.48	-4.591
339.83	-4.492
340.19	-4.402
340.55	-4.385
340.90	-4.353
341.26	-4.190
341.62	-4.230
341.97	-4.316
342.33	-4.366
342.69	-4.280
343.04	-4.266
343.40	-4.279
343.76	-4.318
344.12	-4.340
344.47	-4.190
344.83	-4.088
345.19	-4.314
345.54	-4.344
345.90	-4.369
346.26	-4.359
346.61	-4.437
346.97	-4.482
347.32	-4.612
347.68	-4.753
348.04	-5.000
348.39	-5.115
348.75	-5.230
349.11	-5.227
349.46	-5.354
349.82	-5.419
350.18	-5.485
350.53	-5.493
350.89	-5.609
351.24	-5.473
351.60	-5.467
351.96	-5.369
352.31	-5.385
352.67	-5.329
353.02	-5.254
353.38	-5.069
353.74	-5.052
354.09	-4.999
354.45	-4.934
354.80	-4.872
355.16	-4.933
355.52	-4.819
355.87	-4.648
356.23	-4.551
356.58	-4.556
356.94	-4.576
357.29	-4.635
357.65	-4.581
358.00	-4.645
358.36	-4.652
358.72	-4.576
359.07	-4.588
359.43	-4.583
359.78	-4.627
360.14	-4.778
360.49	-4.839
360.85	-4.869
361.20	-4.995
361.56	-5.155
361.91	-5.249
362.27	-5.392
362.62	-5.442
362.98	-5.560
363.33	-5.679
363.69	-5.796
364.04	-5.795
364.40	-5.878
364.75	-5.915
365.11	-5.919
365.46	-5.881
365.82	-5.906
366.17	-5.876
366.53	-5.967
366.88	-5.950
367.24	-5.957
367.59	-5.987
367.95	-6.044
368.30	-5.996
368.66	-5.984
369.01	-5.928
369.37	-5.826
369.72	-5.728
370.08	-5.607
370.43	-5.531
370.78	-5.464
371.14	-5.373
371.49	-5.331
371.85	-5.263
372.20	-5.271
372.56	-5.352
372.91	-5.403
373.26	-5.563
373.62	-5.696
373.97	-5.842
374.33	-5.890
374.68	-5.955
375.03	-6.059
375.39	-6.106
375.74	-6.204
376.10	-6.195
376.45	-6.083
376.80	-6.074
377.16	-5.924
377.51	-5.766
377.87	-5.666
378.22	-5.573
378.57	-5.423
378.93	-5.327
379.28	-5.142
379.63	-4.900
379.99	-4.734
380.34	-4.623
380.70	-4.472
381.05	-4.404
381.40	-4.373
381.76	-4.358
382.11	-4.349
382.46	-4.353
382.82	-4.346
383.17	-4.413
383.52	-4.520
383.88	-4.597
384.23	-4.698
384.58	-4.784
384.94	-4.879
385.29	-4.960
385.64	-5.002
385.99	-5.064
386.35	-5.133
386.70	-5.208
387.05	-5.269
387.41	-5.268
387.76	-5.250
388.11	-5.202
388.47	-5.149
388.82	-5.083
389.17	-4.942
389.52	-4.833
389.88	-4.722
390.23	-4.577
390.58	-4.361
390.93	-4.163
391.29	-4.039
391.64	-3.962
391.99	-3.902
392.34	-3.830
392.70	-3.809
393.05	-3.798
393.40	-3.850
393.75	-3.903
394.11	-3.999
394.46	-4.170
394.81	-4.363
395.16	-4.482
395.52	-4.683
395.87	-4.906
396.22	-5.175
396.57	-5.397
396.92	-5.747
397.28	-5.916
397.63	-6.139
397.98	-6.362
398.33	-6.560
398.68	-6.639
399.04	-6.730
399.39	-6.807
399.74	-6.748
400.09	-6.713
400.44	-6.609
400.80	-6.449
401.15	-6.390
401.50	-6.251
401.85	-6.074
402.20	-5.905
402.55	-5.837
402.90	-5.784
403.26	-5.683
403.61	-5.690
403.96	-5.634
404.31	-5.642
404.66	-5.660
405.01	-5.660
405.36	-5.681
405.72	-5.767
406.07	-5.829
406.42	-5.874
406.77	-5.896
407.12	-5.911
407.47	-5.895
407.82	-5.934
408.17	-5.984
408.53	-5.993
408.88	-6.036
409.23	-6.097
409.58	-6.139
409.93	-6.198
410.28	-6.282
410.63	-6.325
410.98	-6.368
411.33	-6.379
411.68	-6.277
412.03	-6.188
412.38	-6.078
412.73	-5.869
413.09	-5.649
413.44	-5.378
413.79	-5.109
414.14	-4.736
414.49	-4.447
414.84	-4.135
415.19	-3.813
415.54	-3.554
415.89	-3.260
416.24	-2.999
416.59	-2.764
416.94	-2.550
417.29	-2.390
417.64	-2.204
417.99	-2.082
418.34	-1.961
418.69	-1.865
419.04	-1.782
419.39	-1.701
419.74	-1.642
420.09	-1.579
420.44	-1.573
420.79	-1.561
421.14	-1.563
421.49	-1.579
421.84	-1.623
422.19	-1.681
422.54	-1.719
422.89	-1.809
423.24	-1.934
423.59	-2.073
423.94	-2.268
424.29	-2.428
424.64	-2.609
424.99	-2.781
425.34	-2.988
425.68	-3.158
426.03	-3.324
426.38	-3.510
426.73	-3.672
427.08	-3.739
427.43	-3.774
427.78	-3.719
428.13	-3.677
428.48	-3.622
428.83	-3.596
429.18	-3.543
429.53	-3.498
429.87	-3.471
430.22	-3.430
430.57	-3.390
430.92	-3.414
431.27	-3.462
431.62	-3.552
431.97	-3.666
432.32	-3.791
432.67	-3.869
433.01	-3.969
433.36	-4.106
433.71	-4.194
434.06	-4.278
434.41	-4.321
434.76	-4.332
435.11	-4.279
435.45	-4.197
435.80	-4.041
436.15	-3.914
436.50	-3.818
436.85	-3.694
437.20	-3.580
437.54	-3.505
437.89	-3.466
438.24	-3.435
438.59	-3.438
438.94	-3.497
439.29	-3.580
439.63	-3.707
439.98	-3.780
440.33	-3.804
440.68	-3.855
441.03	-3.856
441.37	-3.800
441.72	-3.696
442.07	-3.572
442.42	-3.426
442.76	-3.250
443.11	-3.056
443.46	-2.904
443.81	-2.772
444.16	-2.679
444.50	-2.637
444.85	-2.611
445.20	-2.669
445.55	-2.787
445.89	-2.932
446.24	-3.111
446.59	-3.333
446.94	-3.579
447.28	-3.827
447.63	-4.082
447.98	-4.345
448.32	-4.536
448.67	-4.724
449.02	-4.829
449.37	-4.901
449.71	-4.895
450.06	-4.859
450.41	-4.802
450.75	-4.751
451.10	-4.700
451.45	-4.696
451.79	-4.685
452.14	-4.685
452.49	-4.722
452.84	-4.729
453.18	-4.728
453.53	-4.748
453.88	-4.747
454.22	-4.685
454.57	-4.551
454.92	-4.349
455.26	-4.116
455.61	-3.910
455.95	-3.673
456.30	-3.449
456.65	-3.246
456.99	-3.064
457.34	-2.913
457.69	-2.793
458.03	-2.732
458.38	-2.732
458.73	-2.800
459.07	-2.940
459.42	-3.089
459.76	-3.304
460.11	-3.527
460.46	-3.762
460.80	-4.048
461.15	-4.319
461.49	-4.551
461.84	-4.764
462.19	-4.933
462.53	-5.036
462.88	-5.054
463.22	-5.027
463.57	-4.966
463.91	-4.913
464.26	-4.863
464.61	-4.755
464.95	-4.711
465.30	-4.668
465.64	-4.655
465.99	-4.710
466.33	-4.757
466.68	-4.845
467.02	-4.933
467.37	-5.051
467.71	-5.136
468.06	-5.252
468.41	-5.383
468.75	-5.497
469.10	-5.667
469.44	-5.836
469.79	-5.935
470.13	-6.033
470.48	-6.130
470.82	-6.239
471.17	-6.310
471.51	-6.411
471.86	-6.484
472.20	-6.591
472.55	-6.678
472.89	-6.703
473.23	-6.726
473.58	-6.760
473.92	-6.773
474.27	-6.768
474.61	-6.774
474.96	-6.776
475.30	-6.790
475.65	-6.776
475.99	-6.733
476.34	-6.687
476.68	-6.645
477.02	-6.568
477.37	-6.443
477.71	-6.285
478.06	-5.989
478.40	-5.480
478.75	-4.837
479.09	-4.157
479.43	-3.536
479.78	-2.984
480.12	-2.509
480.47	-2.107
480.81	-1.736
481.15	-1.402
481.50	-1.119
481.84	-0.881
482.19	-0.712
482.53	-0.609
482.87	-0.547
483.22	-0.540
483.56	-0.559
483.90	-0.613
484.25	-0.680
484.59	-0.787
484.94	-0.913
485.28	-1.058
485.62	-1.223
485.97	-1.396
486.31	-1.553
486.65	-1.712
487.00	-1.862
487.34	-2.018
487.68	-2.146
488.03	-2.266
488.37	-2.366
488.71	-2.460
489.06	-2.544
489.40	-2.630
489.74	-2.723
490.09	-2.852
490.43	-3.016
490.77	-3.215
491.11	-3.441
491.46	-3.688
491.80	-3.960
492.14	-4.223
492.49	-4.515
492.83	-4.809
493.17	-5.112
493.51	-5.386
493.86	-5.621
494.20	-5.794
494.54	-5.868
494.88	-5.855
495.23	-5.813
495.57	-5.748
495.91	-5.723
496.25	-5.710
496.60	-5.710
496.94	-5.721
497.28	-5.749
497.62	-5.791
497.97	-5.872
498.31	-5.945
498.65	-6.028
498.99	-6.115
499.33	-6.176
499.68	-6.206
500.02	-6.216
500.36	-6.245
500.70	-6.255
501.04	-6.277
501.39	-6.260
501.73	-6.230
502.07	-6.197
502.41	-6.138
502.75	-6.098
503.09	-6.029
503.44	-5.951
503.78	-5.886
504.12	-5.775
504.46	-5.643
504.80	-5.522
505.14	-5.421
505.49	-5.282
505.83	-5.175
506.17	-5.083
506.51	-4.974
506.85	-4.902
507.19	-4.839
507.53	-4.744
507.87	-4.694
508.22	-4.674
508.56	-4.668
508.90	-4.688
509.24	-4.726
509.58	-4.744
509.92	-4.750
510.26	-4.785
510.60	-4.813
510.94	-4.866
511.28	-4.925
511.63	-4.968
511.97	-4.985
512.31	-4.953
512.65	-4.884
512.99	-4.775
513.33	-4.642
513.67	-4.483
514.01	-4.293
514.35	-4.075
514.69	-3.819
515.03	-3.580
515.37	-3.364
515.71	-3.173
516.05	-3.023
516.39	-2.902
516.73	-2.830
517.07	-2.806
517.41	-2.827
517.75	-2.884
518.09	-3.006
518.43	-3.184
518.77	-3.378
519.11	-3.572
519.45	-3.763
519.79	-3.972
520.13	-4.133
520.47	-4.249
520.81	-4.268
521.15	-4.242
521.49	-4.176
521.83	-4.026
522.17	-3.824
522.51	-3.594
522.85	-3.285
523.19	-2.889
523.53	-2.387
523.87	-1.902
524.21	-1.447
524.55	-1.083
524.89	-0.751
525.23	-0.456
525.57	-0.213
525.91	0.008
526.25	0.186
526.58	0.329
526.92	0.411
527.26	0.441
527.60	0.412
527.94	0.343
528.28	0.269
528.62	0.164
528.96	0.062
529.30	-0.058
529.64	-0.188
529.97	-0.315
530.31	-0.466
530.65	-0.597
530.99	-0.717
531.33	-0.794
531.67	-0.847
532.01	-0.887
532.35	-0.951
532.68	-1.036
533.02	-1.130
533.36	-1.241
533.70	-1.362
534.04	-1.462
534.38	-1.594
534.71	-1.730
535.05	-1.865
535.39	-1.993
535.73	-2.097
536.07	-2.095
536.41	-2.011
536.74	-1.868
537.08	-1.685
537.42	-1.470
537.76	-1.245
538.10	-0.991
538.43	-0.754
538.77	-0.534
539.11	-0.334
539.45	-0.169
539.79	-0.054
540.12	0.020
540.46	0.040
540.80	0.027
541.14	-0.026
541.47	-0.117
541.81	-0.234
542.15	-0.370
542.49	-0.541
542.82	-0.721
543.16	-0.907
543.50	-1.108
543.84	-1.314
544.17	-1.462
544.51	-1.587
544.85	-1.676
545.18	-1.794
545.52	-1.922
545.86	-2.055
546.20	-2.218
546.53	-2.392
546.87	-2.552
547.21	-2.694
547.54	-2.823
547.88	-2.949
548.22	-3.047
548.55	-3.131
548.89	-3.125
549.23	-3.115
549.56	-3.076
549.90	-2.981
550.24	-2.877
550.57	-2.785
550.91	-2.686
551.25	-2.595
551.58	-2.498
551.92	-2.457
552.26	-2.421
552.59	-2.431
552.93	-2.427
553.27	-2.424
553.60	-2.396
553.94	-2.368
554.27	-2.336
554.61	-2.313
554.95	-2.264
555.28	-2.251
555.62	-2.119
555.95	-2.015
556.29	-1.863
556.63	-1.660
556.96	-1.529
557.30	-1.390
557.63	-1.250
557.97	-1.113
558.31	-0.927
558.64	-0.762
558.98	-0.599
559.31	-0.500
559.65	-0.361
559.98	-0.222
560.32	-0.107
560.65	0.095
560.99	0.328
561.33	0.582
561.66	0.832
562.00	1.065
562.33	1.305
562.67	1.568
563.00	1.841
563.34	2.118
563.67	2.377
564.01	2.640
564.34	2.863
564.68	3.066
565.01	3.211
565.35	3.373
565.68	3.532
566.02	3.696
566.35	3.859
566.69	4.030
567.02	4.232
567.36	4.415
567.69	4.605
568.03	4.808
568.36	5.029
568.69	5.284
569.03	5.526
569.36	5.778
569.70	6.028
570.03	6.288
570.37	6.508
570.70	6.687
571.04	6.918
571.37	7.114
571.70	7.284
572.04	7.455
572.37	7.627
572.71	7.795
573.04	7.950
573.37	8.099
573.71	8.207
574.04	8.357
574.38	8.482
574.71	8.566
575.04	8.672
575.38	8.841
575.71	8.966
576.05	9.057
576.38	9.158
576.71	9.256
577.05	9.360
577.38	9.491
577.71	9.606
578.05	9.747
578.38	9.906
578.71	10.066
579.05	10.164
579.38	10.316
579.71	10.505
580.05	10.684
580.38	10.848
580.71	11.039
581.05	11.235
581.38	11.429
581.71	11.648
582.05	11.827
582.38	12.030
582.71	12.279
583.04	12.500
583.38	12.776
583.71	13.038
584.04	13.303
584.38	13.546
584.71	13.836
585.04	14.130
585.37	14.402
585.71	14.754
586.04	15.060
586.37	15.352
586.70	15.650
587.04	15.861
587.37	16.052
587.70	16.282
588.03	16.500
588.37	16.714
588.70	16.901
589.03	17.024
589.36	17.125
589.69	17.265
590.03	17.350
590.36	17.442
590.69	17.585
591.02	17.748
591.35	17.916
591.69	18.087
592.02	18.232
592.35	18.420
592.68	18.607
593.01	18.820
593.35	19.023
593.68	19.256
594.01	19.458
594.34	19.634
594.67	19.818
595.00	19.977
595.34	20.149
595.67	20.304
596.00	20.439
596.33	20.585
596.66	20.657
596.99	20.709
597.32	20.739
597.65	20.795
597.99	20.823
598.32	20.854
598.65	20.898
598.98	20.959
599.31	21.015
599.64	21.102
599.97	21.225
600.30	21.368
600.63	21.474
600.96	21.657
601.30	21.781
601.63	21.922
601.96	22.054
602.29	22.163
602.62	22.230
602.95	22.323
603.28	22.341
603.61	22.385
603.94	22.400
604.27	22.454
604.60	22.407
604.93	22.390
605.26	22.395
605.59	22.385
605.92	22.310
606.25	22.312
606.58	22.297
606.91	22.349
607.24	22.374
607.57	22.401
607.90	22.355
608.23	22.348
608.56	22.343
608.89	22.253
609.22	22.209
609.55	22.191
609.88	22.133
610.21	22.065
610.54	21.930
610.87	21.753
611.20	21.641
611.53	21.572
611.86	21.494
612.19	21.377
612.52	21.325
612.85	21.277
613.18	21.219
613.51	21.109
613.84	20.981
614.17	20.944
614.49	20.917
614.82	20.873
615.15	20.782
615.48	20.670
615.81	20.617
616.14	20.609
616.47	20.552
616.80	20.500
617.13	20.488
617.46	20.487
617.78	20.393
618.11	20.332
618.44	20.194
618.77	20.166
619.10	20.184
619.43	20.112
619.76	20.037
620.09	19.945
620.41	19.866
620.74	19.829
621.07	19.795
621.40	19.858
621.73	19.899
622.06	19.997
622.38	20.047
622.71	20.122
623.04	20.261
623.37	20.374
623.70	20.459
624.02	20.599
624.35	20.669
624.68	20.762
625.01	20.811
625.34	20.888
625.66	20.959
625.99	21.022
626.32	21.034
626.65	21.000
626.98	20.971
627.30	20.982
627.63	20.927
627.96	20.935
628.29	20.881
628.61	20.835
628.94	20.731
629.27	20.637
629.60	20.571
629.92	20.529
630.25	20.518
630.58	20.500
630.91	20.410
631.23	20.380
631.56	20.307
631.89	20.278
632.21	20.251
632.54	20.259
632.87	20.208
633.19	20.116
633.52	19.995
633.85	19.825
634.18	19.647
634.50	19.529
634.83	19.361
635.16	19.154
635.48	18.950
635.81	18.694
636.14	18.418
636.46	18.144
636.79	17.911
637.11	17.646
637.44	17.418
637.77	17.204
638.09	16.912
638.42	16.668
638.75	16.434
639.07	16.149
639.40	15.927
639.73	15.697
640.05	15.420
640.38	15.137
640.70	14.883
641.03	14.644
641.36	14.396
641.68	14.159
642.01	13.881
642.33	13.650
642.66	13.404
642.98	13.164
643.31	12.900
643.64	12.762
643.96	12.559
644.29	12.330
644.61	12.161
644.94	11.966
645.26	11.833
645.59	11.703
645.91	11.514
646.24	11.422
646.56	11.240
646.89	11.183
647.22	11.028
647.54	10.907
647.87	10.893
648.19	10.717
648.52	10.575
648.84	10.452
649.17	10.318
649.49	10.184
649.82	10.018
650.14	9.951
650.47	9.742
650.79	9.640
651.11	9.539
651.44	9.369
651.76	9.360
652.09	9.312
652.41	9.199
652.74	9.124
653.06	9.025
653.39	8.958
653.71	8.947
654.04	8.959
654.36	8.828
654.68	8.758
655.01	8.643
655.33	8.543
655.66	8.440
655.98	8.397
656.30	8.262
656.63	8.175
656.95	8.103
657.28	7.912
657.60	7.716
657.92	7.582
658.25	7.347
658.57	7.130
658.90	6.831
659.22	6.544
659.54	6.264
659.87	5.943
660.19	5.613
660.51	5.179
660.84	4.782
661.16	4.423
661.48	4.053
661.81	3.706
662.13	3.439
662.45	3.130
662.78	2.818
663.10	2.449
663.42	2.254
663.75	2.025
664.07	1.820
664.39	1.678
664.72	1.500
665.04	1.355
665.36	1.213
665.69	1.037
666.01	0.961
666.33	0.827
666.65	0.754
666.98	0.644
667.30	0.577
667.62	0.511
667.94	0.325
668.27	0.180
668.59	0.006
668.91	-0.081
669.23	-0.180
669.56	-0.311
669.88	-0.314
670.20	-0.354
670.52	-0.432
670.85	-0.547
671.17	-0.650
671.49	-0.656
671.81	-0.680
672.13	-0.710
672.46	-0.695
672.78	-0.736
673.10	-0.748
673.42	-0.854
673.74	-0.936
674.07	-0.921
674.39	-0.879
674.71	-0.807
675.03	-0.716
675.35	-0.553
675.67	-0.411
676.00	-0.308
676.32	-0.087
676.64	0.131
676.96	0.387
677.28	0.593
677.60	0.811
677.92	1.050
678.25	1.310
678.57	1.513
678.89	1.628
679.21	1.851
679.53	2.055
679.85	2.251
680.17	2.446
680.49	2.702
680.81	2.995
681.13	3.301
681.46	3.576
681.78	3.910
682.10	4.301
682.42	4.762
682.74	5.264
683.06	5.855
683.38	6.381
683.70	7.056
684.02	7.671
684.34	8.381
684.66	9.104
684.98	9.890
685.30	10.697
685.62	11.429
685.94	12.275
686.26	13.000
686.58	13.711
686.90	14.615
687.22	15.297
687.54	16.096
687.86	16.872
688.18	17.643
688.50	18.419
688.82	19.231
689.14	20.102
689.46	20.917
689.78	21.848
690.10	22.793
690.42	23.672
690.74	24.667
691.06	25.530
691.38	26.443
691.70	27.388
692.02	28.308
692.34	29.209
692.66	30.104
692.98	31.006
693.30	31.956
693.62	32.905
693.94	33.860
694.26	34.865
694.57	35.853
694.89	36.790
695.21	37.582
695.53	38.333
695.85	39.047
696.17	39.728
696.49	40.420
696.81	41.013
697.13	41.646
697.44	42.186
697.76	42.673
698.08	43.170
698.40	43.664
698.72	44.154
699.04	44.681
699.36	45.208
699.67	45.743
699.99	46.334
700.31	46.841
700.63	47.335
700.95	47.822
701.27	48.288
701.58	48.847
701.90	49.224
702.22	49.644
702.54	50.134
702.86	50.481
703.17	50.835
703.49	51.244
703.81	51.575
704.13	51.856
704.45	52.212
704.76	52.571
705.08	52.831
705.40	53.101
705.72	53.450
706.03	53.768
706.35	54.130
706.67	54.383
706.99	54.522
707.30	54.916
707.62	55.317
707.94	55.626
708.26	55.868
708.57	55.969
708.89	56.337
709.21	56.562
709.53	56.700
709.84	56.911
710.16	57.241
710.48	57.419
710.79	57.618
711.11	57.787
711.43	57.954
711.74	58.188
712.06	58.494
712.38	58.834
712.69	59.116
713.01	59.468
713.33	59.644
713.64	59.902
713.96	60.105
714.28	60.495
714.59	60.912
714.91	61.264
715.23	61.533
715.54	61.894
715.86	61.950
716.17	62.121
716.49	62.235
716.81	62.425
717.12	62.429
717.44	62.674
717.76	62.560
718.07	62.446
718.39	62.402
718.70	62.435
719.02	62.405
719.33	62.431
719.65	62.557
719.97	62.635
720.28	62.894
720.60	63.028
720.91	63.099
721.23	63.257
721.54	63.447
721.86	63.463
722.17	63.500
722.49	63.594
722.81	63.724
723.12	63.806
723.44	63.896
723.75	64.072
724.07	64.129
724.38	64.151
724.70	64.162
725.01	64.159
725.33	64.413
725.64	64.490
725.96	64.434
726.27	64.437
726.59	64.504
726.90	64.681
727.22	64.523
727.53	64.749
727.84	64.913
728.16	64.957
728.47	64.972
728.79	64.872
729.10	64.827
729.42	65.040
729.73	65.137
730.05	65.150
730.36	64.967
730.67	64.935
730.99	64.803
731.30	64.725
731.62	64.806
731.93	64.835
732.24	64.740
732.56	64.752
732.87	64.596
733.19	64.618
733.50	64.549
733.81	64.602
734.13	64.606
734.44	64.524
734.76	64.472
735.07	64.471
735.38	64.549
735.70	64.677
736.01	64.836
736.32	64.716
736.64	64.509
736.95	64.477
737.26	64.496
737.58	64.547
737.89	64.790
738.20	64.625
738.52	64.415
738.83	64.143
739.14	64.160
739.45	63.902
739.77	64.028
740.08	64.200
740.39	64.188
740.71	64.201
741.02	64.092
741.33	63.874
741.64	63.968
741.96	64.057
742.27	63.841
742.58	63.699
742.90	63.747
743.21	63.829
743.52	63.443
743.83	63.413
744.14	63.151
744.46	63.179
744.77	63.128
745.08	63.257
745.39	63.092
745.71	63.035
746.02	63.025
746.33	62.971
746.64	62.756
746.95	63.021
747.27	62.920
747.58	63.009
747.89	63.085
748.20	62.862
748.51	62.781
748.82	62.857
749.14	63.195
749.45	63.252
749.76	63.256
750.07	63.332
750.38	63.273
750.69	63.510
751.01	63.627
751.32	63.487
751.63	63.587
751.94	63.656
752.25	63.704
752.56	63.561
752.87	63.361
753.18	63.267
753.49	63.245
753.81	63.254
754.12	63.209
754.43	63.116
754.74	63.162
755.05	63.507
755.36	63.651
755.67	64.089
755.98	64.388
756.29	64.956
756.60	65.460
756.91	65.969
757.22	66.377
757.53	66.719
757.84	67.259
758.15	67.677
758.46	67.923
758.77	68.243
759.09	68.328
759.40	68.662
759.71	68.810
760.02	68.838
760.33	68.909
760.64	68.953
760.95	69.019
761.26	69.135
761.57	69.120
761.88	69.150
762.18	69.089
762.49	69.035
762.80	68.894
763.11	68.730
763.42	68.683
763.73	68.559
764.04	68.317
764.35	67.922
764.66	67.449
764.97	66.965
765.28	66.401
765.59	65.889
765.90	65.359
766.21	64.721
766.52	64.145
766.83	63.565
767.14	62.929
767.44	62.822
767.75	62.638
768.06	62.360
768.37	62.151
768.68	61.924
768.99	61.868
769.30	61.487
769.61	61.426
769.91	61.327
770.22	61.133
770.53	60.865
770.84	60.171
771.15	60.147
771.46	59.825
771.77	59.567
772.07	59.466
772.38	59.244
772.69	59.666
773.00	59.735
773.31	59.500
773.61	59.561
773.92	59.666
774.23	59.436
774.54	58.731
774.85	58.720
775.15	59.143
775.46	59.152
775.77	58.530
776.08	57.946
776.39	57.730
776.69	57.967
777.00	57.834
777.31	57.723
777.62	58.128
777.92	58.368
778.23	58.032
778.54	57.746
778.85	57.579
779.15	57.842
779.46	58.257
779.77	58.064
780.07	57.734
780.38	57.794
780.69	57.785
781.00	57.921
781.30	58.359
781.61	58.671
781.92	59.009
782.22	59.090
782.53	59.714
782.84	59.461
783.14	59.542
783.45	59.817
783.76	59.776
784.06	60.120
784.37	59.938
784.68	59.917
784.98	60.078
785.29	60.040
785.60	60.476
785.90	60.417
786.21	60.777
786.51	61.245
786.82	61.381
787.13	61.860
787.43	61.732
787.74	62.040
788.04	61.861
788.35	61.821
788.66	61.829
788.96	62.194
789.27	61.947
789.57	62.136
789.88	61.801
790.19	62.067
790.49	61.889
790.80	62.092
791.10	61.852
791.41	61.785
791.71	61.819
792.02	61.841
792.32	60.916
792.63	60.995
792.93	60.720
793.24	60.901
793.54	60.694
793.85	60.577
794.15	60.452
794.46	60.495
794.76	60.843
795.07	61.155
795.37	61.022
795.68	61.455
795.98	61.621
796.29	61.921
796.59	62.005
796.90	61.849
797.20	61.759
797.51	61.456
797.81	61.202
798.12	61.146
798.42	60.871
798.72	60.789
799.03	60.809
799.33	60.854
799.64	60.600
799.94	60.521
800.25	60.568
800.55	60.321
800.85	60.373
801.16	60.662
801.46	60.320
801.77	60.094
802.07	59.963
802.37	59.444
802.68	59.591
802.98	59.368
803.28	59.625
803.59	59.844
803.89	60.373
804.20	60.402
804.50	60.480
804.80	60.795
805.11	61.397
805.41	61.846
805.71	62.250
806.02	61.676
806.32	61.765
806.62	61.569
806.93	61.080
807.23	61.212
807.53	61.977
807.83	62.120
808.14	62.028
808.44	61.545
808.74	61.323
809.05	61.552
809.35	62.281
809.65	62.391
809.95	62.088
810.26	62.774
810.56	62.155
810.86	62.000
811.16	62.099
811.47	62.670
811.77	63.611
812.07	64.284
812.37	64.262
812.68	64.243
812.98	64.691
813.28	65.159
813.58	64.966
813.88	65.195
814.19	65.545
814.49	65.672
814.79	65.471
815.09	65.425
815.39	65.210
815.70	65.474
816.00	65.397
816.30	65.544
816.60	65.639
816.90	66.151
817.20	66.704
817.50	66.680
817.81	66.936
818.11	67.203
818.41	67.482
818.71	68.007
819.01	68.193
819.31	68.462
819.61	68.692
819.92	68.839
820.22	69.040
820.52	69.278
820.82	69.603
821.12	69.893
821.42	70.180
821.72	70.521
822.02	70.812
822.32	71.175
822.62	71.465
822.92	71.742
823.22	72.053
823.52	72.221
823.83	72.279
824.13	72.263
824.43	72.285
824.73	72.311
825.03	72.087
825.33	71.679
825.63	71.447
825.93	71.329
826.23	71.162
826.53	71.252
826.83	71.242
827.13	71.366
827.43	71.479
827.73	71.623
828.03	71.708
828.33	71.966
828.63	72.298
828.93	72.157
829.23	71.794
829.53	71.141
829.83	70.194
830.13	69.786
830.42	69.152
830.72	68.657
831.02	67.976
831.32	67.560
831.62	67.239
831.92	67.143
832.22	66.978
832.52	67.100
832.82	67.498
833.12	67.951
833.42	68.136
833.72	68.548
834.01	68.924
834.31	69.328
834.61	69.599
834.91	69.380
835.21	69.466
835.51	70.113
835.81	69.697
836.11	69.487
836.40	68.937
836.70	68.345
837.00	67.787
837.30	66.999
837.60	66.518
837.90	65.712
838.19	65.563
838.49	64.940
838.79	63.818
839.09	64.943
839.39	64.622
839.68	64.875
839.98	64.981
840.28	65.028
840.58	64.664
840.88	63.950
841.17	63.893
841.47	64.056
841.77	64.357
842.07	64.055
842.36	62.955
842.66	62.374
842.96	61.442
843.26	61.091
843.55	60.570
843.85	58.964
844.15	58.859
844.45	58.822
844.74	57.558
845.04	56.014
845.34	55.853
845.63	55.630
845.93	55.087
846.23	54.667
846.53	54.184
846.82	53.732
847.12	53.944
847.42	53.520
847.71	53.196
848.01	53.730
848.31	54.630
848.60	55.020
848.90	55.072
849.19	55.216
849.49	55.979
849.79	54.884
850.08	55.107
850.38	56.589
850.68	56.118
850.97	55.996
851.27	56.165
851.56	56.566
851.86	55.474
852.16	55.760
852.45	57.060
852.75	54.981
853.04	55.237
853.34	53.464
853.64	54.183
853.93	53.892
854.23	54.337
854.52	53.735
854.82	53.911
855.11	55.023
855.41	54.879
855.70	54.737
856.00	55.716
856.30	54.476
856.59	55.380
856.89	53.705
857.18	54.964
857.48	55.164
857.77	54.774
858.07	52.861
858.36	53.066
858.66	51.775
858.95	51.383
859.25	52.195
859.54	54.424
859.84	54.231
860.13	55.282
860.42	54.535
860.72	54.317
861.01	53.962
861.31	54.267
861.60	53.844
861.90	55.722
862.19	55.914
862.49	55.793
862.78	54.700
863.07	56.469
863.37	58.043
863.66	58.827
863.96	58.761
864.25	59.805
864.54	60.074
864.84	59.855
865.13	58.474
865.43	59.150
865.72	61.073
866.01	51.715
866.31	54.817
866.60	50.665
866.89	64.201
>>>>>End Spectral Data<<<<<
