OOIBase32 Version 2.0.0.6 Data File
++++++++++++++++++++++++++++++++++++
Date: 01-22-2012, 22:05:31
User: Valued Ocean Optics Customer
Spectrometer Serial Number: USB2E2917
Spectrometer Channel: Master
Integration Time (msec): 4
Spectra Averaged: 10
Boxcar Smoothing: 5
Correct for Electrical Dark: Enabled
Time Normalized: Disabled
Dual-beam Reference: Disabled
Reference Channel: Master
Temperature: Not acquired
Spectrometer Type: S2000
ADC Type: USB2000
Number of Pixels in File: 2048
Graph Title: 
>>>>>Begin Spectral Data<<<<<
180.30	0.000
180.67	0.000
181.03	89.175
181.40	54.066
181.77	501.307
182.14	69.819
182.51	5.154
182.88	304.535
183.25	57.520
183.62	38.889
183.99	50.174
184.36	-40.709
184.73	150.814
185.10	-498.601
185.46	343.261
185.83	-2612.217
186.20	-106.737
186.57	-1550.525
186.94	65.685
187.31	101.985
187.68	139.723
188.05	-82.800
188.42	112.473
188.78	-457.861
189.15	-87.952
189.52	-60.761
189.89	-64.065
190.26	-78.540
190.63	-7.105
191.00	1.609
191.37	-7.712
191.73	-66.515
192.10	-58.995
192.47	-43.894
192.84	-48.258
193.21	-37.441
193.58	-31.664
193.94	-26.612
194.31	-27.146
194.68	-29.464
195.05	-26.232
195.42	-53.935
195.79	-50.540
196.15	-62.188
196.52	-38.144
196.89	-29.189
197.26	-62.182
197.63	-29.861
198.00	-48.929
198.36	-88.800
198.73	-128.734
199.10	-159.452
199.47	-25.132
199.84	-13.181
200.20	-9.362
200.57	-47.526
200.94	-34.782
201.31	-25.666
201.68	-60.962
202.04	-32.143
202.41	-48.693
202.78	-36.025
203.15	-50.081
203.51	-16.919
203.88	-7.373
204.25	-3.786
204.62	4.780
204.98	-5.193
205.35	2.209
205.72	12.387
206.09	28.478
206.46	42.769
206.82	48.920
207.19	59.751
207.56	32.740
207.92	16.993
208.29	26.305
208.66	39.227
209.03	48.442
209.39	37.666
209.76	25.176
210.13	-7.081
210.50	-14.523
210.86	-18.467
211.23	-19.035
211.60	-15.025
211.96	-23.657
212.33	-71.734
212.70	-99.101
213.07	-51.717
213.43	-22.079
213.80	-21.203
214.17	1.669
214.53	13.541
214.90	12.319
215.27	26.502
215.63	16.968
216.00	3.077
216.37	4.048
216.74	10.113
217.10	0.438
217.47	-6.042
217.84	6.147
218.20	4.006
218.57	-4.035
218.94	-26.037
219.30	-43.271
219.67	-31.962
220.04	-9.968
220.40	-4.391
220.77	-15.397
221.13	-9.793
221.50	-14.105
221.87	-20.753
222.23	-10.423
222.60	-11.482
222.97	4.417
223.33	5.429
223.70	5.559
224.07	0.397
224.43	0.137
224.80	0.048
225.16	4.021
225.53	4.661
225.90	5.674
226.26	2.242
226.63	4.114
226.99	2.964
227.36	5.195
227.73	6.573
228.09	11.321
228.46	10.631
228.82	10.270
229.19	6.729
229.56	5.995
229.92	4.831
230.29	5.103
230.65	5.873
231.02	6.748
231.38	2.853
231.75	3.034
232.12	-0.373
232.48	-1.176
232.85	0.024
233.21	2.876
233.58	1.948
233.94	2.589
234.31	3.853
234.68	3.956
235.04	4.006
235.41	6.689
235.77	4.307
236.14	2.623
236.50	0.343
236.87	1.588
237.23	0.771
237.60	3.163
237.96	3.355
238.33	3.250
238.69	2.478
239.06	3.483
239.42	3.591
239.79	4.142
240.15	4.642
240.52	6.546
240.88	5.895
241.25	6.214
241.61	5.966
241.98	5.701
242.34	5.408
242.71	5.490
243.07	5.422
243.44	5.302
243.80	5.186
244.17	6.000
244.53	6.054
244.90	6.046
245.26	5.907
245.63	5.787
245.99	6.130
246.36	6.157
246.72	5.886
247.09	5.748
247.45	6.093
247.81	6.381
248.18	6.069
248.54	5.736
248.91	6.623
249.27	7.123
249.64	7.141
250.00	6.882
250.36	7.029
250.73	7.719
251.09	7.393
251.46	7.005
251.82	7.638
252.19	7.549
252.55	7.662
252.91	6.314
253.28	5.568
253.64	6.213
254.01	6.902
254.37	7.697
254.73	7.638
255.10	7.324
255.46	7.060
255.83	6.326
256.19	6.390
256.55	6.299
256.92	6.162
257.28	6.490
257.65	5.857
258.01	5.643
258.37	5.425
258.74	5.374
259.10	5.673
259.46	5.857
259.83	5.734
260.19	5.542
260.55	5.551
260.92	6.136
261.28	5.752
261.64	6.634
262.01	7.112
262.37	7.161
262.73	6.908
263.10	7.092
263.46	6.977
263.82	7.256
264.19	7.325
264.55	7.497
264.91	6.874
265.28	7.060
265.64	6.824
266.00	6.698
266.37	6.520
266.73	6.779
267.09	6.502
267.46	6.101
267.82	5.660
268.18	5.471
268.54	5.505
268.91	5.663
269.27	5.820
269.63	5.675
270.00	5.254
270.36	5.350
270.72	5.260
271.08	5.367
271.45	5.508
271.81	5.814
272.17	5.878
272.53	5.691
272.90	5.512
273.26	5.451
273.62	5.108
273.98	5.626
274.35	5.528
274.71	5.695
275.07	5.646
275.43	6.148
275.80	6.149
276.16	6.598
276.52	6.770
276.88	6.946
277.25	6.603
277.61	6.964
277.97	6.547
278.33	6.702
278.69	6.853
279.06	6.671
279.42	6.210
279.78	6.146
280.14	5.898
280.50	5.908
280.87	5.759
281.23	5.961
281.59	5.785
281.95	5.800
282.31	5.686
282.68	5.476
283.04	5.553
283.40	5.646
283.76	5.920
284.12	5.868
284.48	5.643
284.85	5.813
285.21	5.651
285.57	5.737
285.93	5.764
286.29	5.506
286.65	5.621
287.02	5.732
287.38	5.718
287.74	5.505
288.10	5.498
288.46	5.779
288.82	5.594
289.18	5.814
289.54	5.830
289.91	5.766
290.27	5.879
290.63	5.603
290.99	5.609
291.35	5.618
291.71	5.663
292.07	5.801
292.43	5.644
292.79	5.784
293.16	5.638
293.52	5.735
293.88	5.698
294.24	6.011
294.60	6.263
294.96	6.102
295.32	6.031
295.68	6.229
296.04	5.999
296.40	6.126
296.76	6.209
297.12	6.398
297.49	6.524
297.85	6.763
298.21	6.806
298.57	6.946
298.93	7.127
299.29	7.294
299.65	7.210
300.01	7.616
300.37	7.655
300.73	7.851
301.09	8.043
301.45	8.239
301.81	8.321
302.17	8.733
302.53	8.842
302.89	9.055
303.25	9.446
303.61	9.826
303.97	10.019
304.33	10.343
304.69	10.386
305.05	10.520
305.41	10.359
305.77	10.641
306.13	10.604
306.49	10.583
306.85	10.814
307.21	11.118
307.57	11.219
307.93	11.326
308.29	11.562
308.65	11.827
309.01	12.014
309.37	12.414
309.73	12.639
310.09	12.824
310.45	13.052
310.81	13.187
311.17	13.132
311.53	13.415
311.89	13.641
312.25	13.497
312.61	13.514
312.96	13.656
313.32	13.672
313.68	13.657
314.04	13.662
314.40	13.852
314.76	13.926
315.12	14.011
315.48	13.705
315.84	13.935
316.20	14.243
316.56	14.312
316.92	14.258
317.27	14.281
317.63	14.176
317.99	14.376
318.35	14.257
318.71	14.187
319.07	14.174
319.43	14.387
319.79	14.086
320.15	13.873
320.50	13.846
320.86	13.998
321.22	13.927
321.58	14.044
321.94	13.858
322.30	13.849
322.66	13.840
323.01	13.794
323.37	13.807
323.73	13.819
324.09	13.782
324.45	13.579
324.81	13.344
325.17	13.187
325.52	12.945
325.88	12.789
326.24	12.747
326.60	12.658
326.96	12.504
327.31	12.371
327.67	12.230
328.03	12.217
328.39	12.435
328.75	12.384
329.11	12.397
329.46	12.358
329.82	12.408
330.18	12.318
330.54	12.269
330.90	12.271
331.25	12.075
331.61	12.066
331.97	11.989
332.33	11.839
332.68	11.936
333.04	11.994
333.40	12.017
333.76	12.028
334.11	12.098
334.47	12.149
334.83	12.165
335.19	12.227
335.54	12.025
335.90	12.093
336.26	12.155
336.62	11.925
336.97	11.777
337.33	11.727
337.69	11.531
338.05	11.366
338.40	11.273
338.76	11.161
339.12	11.108
339.48	11.350
339.83	11.326
340.19	11.305
340.55	11.348
340.90	11.409
341.26	11.419
341.62	11.551
341.97	11.553
342.33	11.585
342.69	11.533
343.04	11.553
343.40	11.392
343.76	11.203
344.12	11.071
344.47	11.133
344.83	11.051
345.19	11.053
345.54	10.938
345.90	10.841
346.26	10.723
346.61	10.794
346.97	10.565
347.32	10.532
347.68	10.530
348.04	10.516
348.39	10.359
348.75	10.202
349.11	9.990
349.46	9.878
349.82	9.917
350.18	9.852
350.53	9.685
350.89	9.738
351.24	9.589
351.60	9.502
351.96	9.372
352.31	9.367
352.67	9.514
353.02	9.599
353.38	9.610
353.74	9.534
354.09	9.531
354.45	9.553
354.80	9.508
355.16	9.587
355.52	9.541
355.87	9.501
356.23	9.478
356.58	9.390
356.94	9.368
357.29	9.368
357.65	9.387
358.00	9.274
358.36	9.258
358.72	9.180
359.07	9.076
359.43	9.037
359.78	9.025
360.14	8.955
360.49	8.918
360.85	8.821
361.20	8.775
361.56	8.635
361.91	8.629
362.27	8.605
362.62	8.524
362.98	8.545
363.33	8.597
363.69	8.533
364.04	8.544
364.40	8.445
364.75	8.420
365.11	8.336
365.46	8.345
365.82	8.310
366.17	8.253
366.53	8.317
366.88	8.280
367.24	8.238
367.59	8.158
367.95	8.141
368.30	8.131
368.66	8.156
369.01	8.181
369.37	8.192
369.72	8.199
370.08	8.159
370.43	8.182
370.78	8.131
371.14	8.103
371.49	8.150
371.85	8.067
372.20	8.045
372.56	7.985
372.91	7.947
373.26	7.859
373.62	7.799
373.97	7.759
374.33	7.610
374.68	7.540
375.03	7.504
375.39	7.465
375.74	7.470
376.10	7.466
376.45	7.426
376.80	7.428
377.16	7.492
377.51	7.422
377.87	7.394
378.22	7.442
378.57	7.527
378.93	7.517
379.28	7.590
379.63	7.632
379.99	7.647
380.34	7.682
380.70	7.651
381.05	7.620
381.40	7.683
381.76	7.721
382.11	7.783
382.46	7.703
382.82	7.609
383.17	7.487
383.52	7.338
383.88	7.261
384.23	7.194
384.58	7.113
384.94	7.036
385.29	7.002
385.64	6.961
385.99	6.843
386.35	6.817
386.70	6.833
387.05	6.803
387.41	6.783
387.76	6.732
388.11	6.742
388.47	6.754
388.82	6.706
389.17	6.681
389.52	6.606
389.88	6.578
390.23	6.531
390.58	6.528
390.93	6.543
391.29	6.565
391.64	6.571
391.99	6.522
392.34	6.493
392.70	6.476
393.05	6.434
393.40	6.435
393.75	6.381
394.11	6.337
394.46	6.247
394.81	6.152
395.16	6.043
395.52	5.970
395.87	5.870
396.22	5.744
396.57	5.567
396.92	5.455
397.28	5.289
397.63	5.205
397.98	5.103
398.33	5.011
398.68	4.871
399.04	4.808
399.39	4.706
399.74	4.643
400.09	4.594
400.44	4.621
400.80	4.583
401.15	4.643
401.50	4.642
401.85	4.630
402.20	4.654
402.55	4.700
402.90	4.674
403.26	4.660
403.61	4.653
403.96	4.647
404.31	4.646
404.66	4.615
405.01	4.554
405.36	4.528
405.72	4.499
406.07	4.408
406.42	4.347
406.77	4.296
407.12	4.289
407.47	4.234
407.82	4.199
408.17	4.125
408.53	4.106
408.88	4.074
409.23	4.011
409.58	3.985
409.93	3.953
410.28	3.929
410.63	3.894
410.98	3.873
411.33	3.880
411.68	3.861
412.03	3.871
412.38	3.838
412.73	3.865
413.09	3.867
413.44	3.914
413.79	3.979
414.14	4.064
414.49	4.138
414.84	4.153
415.19	4.200
415.54	4.244
415.89	4.296
416.24	4.385
416.59	4.441
416.94	4.511
417.29	4.524
417.64	4.557
417.99	4.557
418.34	4.590
418.69	4.630
419.04	4.636
419.39	4.677
419.74	4.708
420.09	4.705
420.44	4.699
420.79	4.687
421.14	4.707
421.49	4.701
421.84	4.685
422.19	4.656
422.54	4.638
422.89	4.643
423.24	4.606
423.59	4.554
423.94	4.513
424.29	4.468
424.64	4.419
424.99	4.363
425.34	4.303
425.68	4.278
426.03	4.238
426.38	4.207
426.73	4.127
427.08	4.094
427.43	4.083
427.78	4.094
428.13	4.116
428.48	4.136
428.83	4.132
429.18	4.175
429.53	4.154
429.87	4.166
430.22	4.152
430.57	4.191
430.92	4.200
431.27	4.199
431.62	4.185
431.97	4.158
432.32	4.147
432.67	4.132
433.01	4.094
433.36	4.088
433.71	4.070
434.06	4.058
434.41	4.023
434.76	4.007
435.11	4.006
435.45	4.015
435.80	4.033
436.15	4.044
436.50	4.078
436.85	4.121
437.20	4.164
437.54	4.186
437.89	4.192
438.24	4.216
438.59	4.235
438.94	4.246
439.29	4.253
439.63	4.236
439.98	4.218
440.33	4.223
440.68	4.222
441.03	4.233
441.37	4.254
441.72	4.300
442.07	4.337
442.42	4.371
442.76	4.422
443.11	4.449
443.46	4.482
443.81	4.524
444.16	4.545
444.50	4.549
444.85	4.546
445.20	4.548
445.55	4.540
445.89	4.516
446.24	4.475
446.59	4.414
446.94	4.368
447.28	4.311
447.63	4.248
447.98	4.194
448.32	4.136
448.67	4.090
449.02	4.034
449.37	4.002
449.71	3.961
450.06	3.952
450.41	3.954
450.75	3.969
451.10	3.982
451.45	3.987
451.79	3.974
452.14	3.990
452.49	3.969
452.84	3.953
453.18	3.942
453.53	3.962
453.88	3.976
454.22	4.020
454.57	4.037
454.92	4.100
455.26	4.160
455.61	4.229
455.95	4.281
456.30	4.360
456.65	4.419
456.99	4.475
457.34	4.523
457.69	4.563
458.03	4.579
458.38	4.582
458.73	4.570
459.07	4.547
459.42	4.509
459.76	4.455
460.11	4.394
460.46	4.358
460.80	4.287
461.15	4.218
461.49	4.151
461.84	4.087
462.19	4.058
462.53	4.034
462.88	4.023
463.22	4.058
463.57	4.085
463.91	4.134
464.26	4.145
464.61	4.160
464.95	4.176
465.30	4.210
465.64	4.221
465.99	4.242
466.33	4.264
466.68	4.294
467.02	4.276
467.37	4.273
467.71	4.256
468.06	4.253
468.41	4.255
468.75	4.241
469.10	4.206
469.44	4.165
469.79	4.134
470.13	4.116
470.48	4.080
470.82	4.024
471.17	4.005
471.51	3.979
471.86	3.939
472.20	3.916
472.55	3.891
472.89	3.887
473.23	3.884
473.58	3.867
473.92	3.841
474.27	3.825
474.61	3.823
474.96	3.803
475.30	3.782
475.65	3.783
475.99	3.767
476.34	3.782
476.68	3.753
477.02	3.765
477.37	3.758
477.71	3.765
478.06	3.827
478.40	3.960
478.75	4.142
479.09	4.337
479.43	4.540
479.78	4.711
480.12	4.860
480.47	5.001
480.81	5.129
481.15	5.248
481.50	5.355
481.84	5.446
482.19	5.518
482.53	5.562
482.87	5.571
483.22	5.555
483.56	5.539
483.90	5.513
484.25	5.482
484.59	5.426
484.94	5.366
485.28	5.296
485.62	5.212
485.97	5.125
486.31	5.044
486.65	4.978
487.00	4.916
487.34	4.871
487.68	4.833
488.03	4.793
488.37	4.759
488.71	4.740
489.06	4.719
489.40	4.700
489.74	4.669
490.09	4.634
490.43	4.583
490.77	4.530
491.11	4.454
491.46	4.367
491.80	4.288
492.14	4.211
492.49	4.113
492.83	4.013
493.17	3.883
493.51	3.786
493.86	3.685
494.20	3.649
494.54	3.642
494.88	3.642
495.23	3.659
495.57	3.668
495.91	3.670
496.25	3.692
496.60	3.702
496.94	3.729
497.28	3.722
497.62	3.716
497.97	3.687
498.31	3.666
498.65	3.676
498.99	3.676
499.33	3.685
499.68	3.707
500.02	3.694
500.36	3.709
500.70	3.745
501.04	3.758
501.39	3.791
501.73	3.810
502.07	3.850
502.41	3.869
502.75	3.895
503.09	3.908
503.44	3.933
503.78	3.973
504.12	3.992
504.46	4.032
504.80	4.087
505.14	4.133
505.49	4.174
505.83	4.205
506.17	4.255
506.51	4.275
506.85	4.313
507.19	4.342
507.53	4.348
507.87	4.378
508.22	4.383
508.56	4.376
508.90	4.363
509.24	4.368
509.58	4.371
509.92	4.341
510.26	4.334
510.60	4.312
510.94	4.300
511.28	4.293
511.63	4.292
511.97	4.279
512.31	4.267
512.65	4.310
512.99	4.333
513.33	4.366
513.67	4.428
514.01	4.514
514.35	4.592
514.69	4.656
515.03	4.741
515.37	4.815
515.71	4.873
516.05	4.947
516.39	4.969
516.73	4.976
517.07	4.957
517.41	4.902
517.75	4.827
518.09	4.751
518.43	4.672
518.77	4.568
519.11	4.449
519.45	4.323
519.79	4.182
520.13	4.078
520.47	4.021
520.81	3.973
521.15	3.962
521.49	3.997
521.83	4.030
522.17	4.078
522.51	4.164
522.85	4.284
523.19	4.476
523.53	4.720
523.87	4.949
524.21	5.156
524.55	5.358
524.89	5.540
525.23	5.675
525.57	5.799
525.91	5.900
526.25	5.996
526.58	6.055
526.92	6.086
527.26	6.084
527.60	6.057
527.94	5.999
528.28	5.910
528.62	5.822
528.96	5.728
529.30	5.632
529.64	5.538
529.97	5.419
530.31	5.313
530.65	5.204
530.99	5.103
531.33	5.025
531.67	4.973
532.01	4.945
532.35	4.889
532.68	4.809
533.02	4.721
533.36	4.631
533.70	4.550
534.04	4.457
534.38	4.354
534.71	4.252
535.05	4.129
535.39	4.014
535.73	3.924
536.07	3.883
536.41	3.909
536.74	3.992
537.08	4.082
537.42	4.175
537.76	4.292
538.10	4.417
538.43	4.533
538.77	4.654
539.11	4.751
539.45	4.829
539.79	4.887
540.12	4.919
540.46	4.900
540.80	4.851
541.14	4.783
541.47	4.698
541.81	4.591
542.15	4.475
542.49	4.321
542.82	4.170
543.16	3.994
543.50	3.820
543.84	3.640
544.17	3.503
544.51	3.386
544.85	3.282
545.18	3.156
545.52	3.033
545.86	2.899
546.20	2.774
546.53	2.635
546.87	2.494
547.21	2.337
547.54	2.216
547.88	2.100
548.22	1.992
548.55	1.893
548.89	1.828
549.23	1.797
549.56	1.784
549.90	1.769
550.24	1.797
550.57	1.823
550.91	1.852
551.25	1.863
551.58	1.842
551.92	1.838
552.26	1.811
552.59	1.791
552.93	1.741
553.27	1.667
553.60	1.645
553.94	1.575
554.27	1.514
554.61	1.482
554.95	1.428
555.28	1.389
555.62	1.370
555.95	1.382
556.29	1.349
556.63	1.362
556.96	1.374
557.30	1.365
557.63	1.390
557.97	1.416
558.31	1.404
558.64	1.412
558.98	1.427
559.31	1.465
559.65	1.481
559.98	1.548
560.32	1.577
560.65	1.658
560.99	1.718
561.33	1.796
561.66	1.907
562.00	2.044
562.33	2.160
562.67	2.269
563.00	2.353
563.34	2.423
563.67	2.507
564.01	2.593
564.34	2.642
564.68	2.723
565.01	2.785
565.35	2.815
565.68	2.791
566.02	2.806
566.35	2.838
566.69	2.863
567.02	2.933
567.36	2.934
567.69	2.965
568.03	3.008
568.36	3.039
568.69	3.073
569.03	3.097
569.36	3.181
569.70	3.222
570.03	3.284
570.37	3.315
570.70	3.337
571.04	3.386
571.37	3.406
571.70	3.417
572.04	3.435
572.37	3.438
572.71	3.448
573.04	3.446
573.37	3.441
573.71	3.411
574.04	3.403
574.38	3.379
574.71	3.326
575.04	3.289
575.38	3.244
575.71	3.167
576.05	3.111
576.38	3.059
576.71	2.997
577.05	2.946
577.38	2.899
577.71	2.848
578.05	2.805
578.38	2.789
578.71	2.750
579.05	2.741
579.38	2.749
579.71	2.730
580.05	2.730
580.38	2.704
580.71	2.750
581.05	2.742
581.38	2.763
581.71	2.763
582.05	2.803
582.38	2.856
582.71	2.889
583.04	2.917
583.38	2.962
583.71	3.015
584.04	3.066
584.38	3.108
584.71	3.213
585.04	3.322
585.37	3.422
585.71	3.545
586.04	3.666
586.37	3.793
586.70	3.933
587.04	4.062
587.37	4.159
587.70	4.258
588.03	4.298
588.37	4.333
588.70	4.331
589.03	4.348
589.36	4.333
589.69	4.312
590.03	4.292
590.36	4.275
590.69	4.266
591.02	4.271
591.35	4.312
591.69	4.368
592.02	4.430
592.35	4.503
592.68	4.600
593.01	4.657
593.35	4.737
593.68	4.773
594.01	4.810
594.34	4.834
594.67	4.843
595.00	4.854
595.34	4.862
595.67	4.850
596.00	4.820
596.33	4.757
596.66	4.693
596.99	4.630
597.32	4.569
597.65	4.531
597.99	4.450
598.32	4.421
598.65	4.404
598.98	4.404
599.31	4.417
599.64	4.444
599.97	4.488
600.30	4.584
600.63	4.659
600.96	4.752
601.30	4.814
601.63	4.923
601.96	5.001
602.29	5.028
602.62	5.073
602.95	5.078
603.28	5.104
603.61	5.095
603.94	5.075
604.27	5.044
604.60	5.049
604.93	5.030
605.26	5.012
605.59	4.959
605.92	4.933
606.25	4.898
606.58	4.902
606.91	4.912
607.24	4.957
607.57	4.965
607.90	5.020
608.23	4.989
608.56	4.981
608.89	4.953
609.22	4.960
609.55	4.950
609.88	4.944
610.21	4.896
610.54	4.812
610.87	4.765
611.20	4.724
611.53	4.580
611.86	4.565
612.19	4.546
612.52	4.541
612.85	4.506
613.18	4.505
613.51	4.466
613.84	4.473
614.17	4.528
614.49	4.512
614.82	4.497
615.15	4.548
615.48	4.523
615.81	4.498
616.14	4.479
616.47	4.510
616.80	4.510
617.13	4.483
617.46	4.456
617.78	4.409
618.11	4.393
618.44	4.401
618.77	4.402
619.10	4.397
619.43	4.401
619.76	4.438
620.09	4.392
620.41	4.398
620.74	4.433
621.07	4.506
621.40	4.516
621.73	4.561
622.06	4.615
622.38	4.675
622.71	4.769
623.04	4.835
623.37	4.878
623.70	4.952
624.02	5.015
624.35	5.103
624.68	5.140
625.01	5.197
625.34	5.236
625.66	5.240
625.99	5.257
626.32	5.246
626.65	5.238
626.98	5.233
627.30	5.202
627.63	5.131
627.96	5.086
628.29	5.016
628.61	4.981
628.94	4.942
629.27	4.925
629.60	4.883
629.92	4.823
630.25	4.813
630.58	4.810
630.91	4.842
631.23	4.850
631.56	4.857
631.89	4.869
632.21	4.875
632.54	4.832
632.87	4.786
633.19	4.785
633.52	4.756
633.85	4.728
634.18	4.709
634.50	4.645
634.83	4.680
635.16	4.598
635.48	4.508
635.81	4.464
636.14	4.450
636.46	4.421
636.79	4.373
637.11	4.405
637.44	4.381
637.77	4.312
638.09	4.317
638.42	4.295
638.75	4.277
639.07	4.331
639.40	4.324
639.73	4.281
640.05	4.305
640.38	4.331
640.70	4.338
641.03	4.367
641.36	4.392
641.68	4.381
642.01	4.404
642.33	4.481
642.66	4.538
642.98	4.575
643.31	4.705
643.64	4.780
643.96	4.835
644.29	4.900
644.61	4.952
644.94	5.014
645.26	5.082
645.59	5.101
645.91	5.183
646.24	5.210
646.56	5.256
646.89	5.241
647.22	5.228
647.54	5.223
647.87	5.193
648.19	5.233
648.52	5.232
648.84	5.258
649.17	5.268
649.49	5.217
649.82	5.204
650.14	5.198
650.47	5.205
650.79	5.198
651.11	5.237
651.44	5.203
651.76	5.183
652.09	5.182
652.41	5.222
652.74	5.166
653.06	5.157
653.39	5.169
653.71	5.177
654.04	5.213
654.36	5.282
654.68	5.292
655.01	5.338
655.33	5.308
655.66	5.317
655.98	5.261
656.30	5.292
656.63	5.336
656.95	5.330
657.28	5.313
657.60	5.312
657.92	5.291
658.25	5.215
658.57	5.225
658.90	5.153
659.22	5.072
659.54	5.037
659.87	5.027
660.19	4.972
660.51	4.888
660.84	4.843
661.16	4.766
661.48	4.704
661.81	4.649
662.13	4.527
662.45	4.545
662.78	4.536
663.10	4.526
663.42	4.492
663.75	4.431
664.07	4.472
664.39	4.443
664.72	4.482
665.04	4.530
665.36	4.589
665.69	4.609
666.01	4.572
666.33	4.625
666.65	4.654
666.98	4.710
667.30	4.734
667.62	4.727
667.94	4.750
668.27	4.701
668.59	4.584
668.91	4.586
669.23	4.593
669.56	4.635
669.88	4.627
670.20	4.571
670.52	4.522
670.85	4.505
671.17	4.502
671.49	4.411
671.81	4.389
672.13	4.398
672.46	4.345
672.78	4.306
673.10	4.274
673.42	4.220
673.74	4.200
674.07	4.204
674.39	4.221
674.71	4.253
675.03	4.407
675.35	4.501
675.67	4.716
676.00	4.814
676.32	4.915
676.64	4.927
676.96	5.020
677.28	5.075
677.60	5.108
677.92	5.130
678.25	5.139
678.57	5.137
678.89	5.119
679.21	5.041
679.53	4.993
679.85	4.983
680.17	5.042
680.49	5.056
680.81	5.110
681.13	5.110
681.46	5.073
681.78	5.074
682.10	5.088
682.42	5.095
682.74	5.075
683.06	5.148
683.38	5.217
683.70	5.219
684.02	5.260
684.34	5.267
684.66	5.359
684.98	5.477
685.30	5.551
685.62	5.568
685.94	5.605
686.26	5.629
686.58	5.592
686.90	5.570
687.22	5.572
687.54	5.453
687.86	5.449
688.18	5.318
688.50	5.269
688.82	5.176
689.14	5.144
689.46	5.094
689.78	5.014
690.10	5.001
690.42	4.935
690.74	4.854
691.06	4.885
691.38	4.778
691.70	4.729
692.02	4.610
692.34	4.627
692.66	4.559
692.98	4.455
693.30	4.499
693.62	4.439
693.94	4.414
694.26	4.460
694.57	4.525
694.89	4.527
695.21	4.526
695.53	4.663
695.85	4.624
696.17	4.698
696.49	4.779
696.81	4.741
697.13	4.751
697.44	4.751
697.76	4.695
698.08	4.534
698.40	4.459
698.72	4.336
699.04	4.092
699.36	3.901
699.67	3.636
699.99	3.348
700.31	3.069
700.63	2.695
700.95	2.339
701.27	2.040
701.58	1.742
701.90	1.541
702.22	1.452
702.54	1.280
702.86	0.971
703.17	0.794
703.49	0.682
703.81	0.499
704.13	0.362
704.45	0.173
704.76	0.134
705.08	0.093
705.40	-0.022
705.72	-0.175
706.03	-0.269
706.35	-0.262
706.67	-0.343
706.99	-0.406
707.30	-0.409
707.62	-0.329
707.94	-0.307
708.26	-0.582
708.57	-0.584
708.89	-0.696
709.21	-0.824
709.53	-0.840
709.84	-0.842
710.16	-0.901
710.48	-1.132
710.79	-1.176
711.11	-1.276
711.43	-1.209
711.74	-1.069
712.06	-1.065
712.38	-0.898
712.69	-0.700
713.01	-0.631
713.33	-0.579
713.64	-0.409
713.96	-0.002
714.28	0.120
714.59	0.312
714.91	0.410
715.23	0.637
715.54	0.776
715.86	0.795
716.17	0.786
716.49	0.828
716.81	0.783
717.12	0.641
717.44	0.387
717.76	0.197
718.07	-0.041
718.39	-0.359
718.70	-0.671
719.02	-1.141
719.33	-1.611
719.65	-1.932
719.97	-2.358
720.28	-2.577
720.60	-2.681
720.91	-2.938
721.23	-3.030
721.54	-3.140
721.86	-3.224
722.17	-3.305
722.49	-3.170
722.81	-3.000
723.12	-2.920
723.44	-2.677
723.75	-2.632
724.07	-2.695
724.38	-2.737
724.70	-2.666
725.01	-2.687
725.33	-2.509
725.64	-2.509
725.96	-2.522
726.27	-2.626
726.59	-2.706
726.90	-2.958
727.22	-3.007
727.53	-3.106
727.84	-3.241
728.16	-3.597
728.47	-3.867
728.79	-4.333
729.10	-4.645
729.42	-5.069
729.73	-5.491
730.05	-6.140
730.36	-6.611
730.67	-7.262
730.99	-7.785
731.30	-8.405
731.62	-9.104
731.93	-9.796
732.24	-10.462
732.56	-11.199
732.87	-11.831
733.19	-12.550
733.50	-13.253
733.81	-14.030
734.13	-14.663
734.44	-15.508
734.76	-15.951
735.07	-16.572
735.38	-17.253
735.70	-17.929
736.01	-18.270
736.32	-19.081
736.64	-19.550
736.95	-19.843
737.26	-20.152
737.58	-20.523
737.89	-20.883
738.20	-21.575
738.52	-21.813
738.83	-22.117
739.14	-22.589
739.45	-23.636
739.77	-23.997
740.08	-24.864
740.39	-25.747
740.71	-26.652
741.02	-27.811
741.33	-29.122
741.64	-30.066
741.96	-31.201
742.27	-32.119
742.58	-32.978
742.90	-33.460
743.21	-34.313
743.52	-35.065
743.83	-35.568
744.14	-36.113
744.46	-36.400
744.77	-36.662
745.08	-36.883
745.39	-37.354
745.71	-37.898
746.02	-37.928
746.33	-38.262
746.64	-37.981
746.95	-37.725
747.27	-38.076
747.58	-38.057
747.89	-38.136
748.20	-38.090
748.51	-37.974
748.82	-37.655
749.14	-37.372
749.45	-37.760
749.76	-37.896
750.07	-38.267
750.38	-38.712
750.69	-38.698
751.01	-38.992
751.32	-39.412
751.63	-39.386
751.94	-39.872
752.25	-39.946
752.56	-40.066
752.87	-39.908
753.18	-39.762
753.49	-39.871
753.81	-39.307
754.12	-38.458
754.43	-37.642
754.74	-35.902
755.05	-33.899
755.36	-31.510
755.67	-29.747
755.98	-27.002
756.29	-24.422
756.60	-21.741
756.91	-18.730
757.22	-15.884
757.53	-13.261
757.84	-10.843
758.15	-8.594
758.46	-6.736
758.77	-4.935
759.09	-3.073
759.40	-2.071
759.71	-1.079
760.02	-0.289
760.33	0.053
760.64	0.227
760.95	0.304
761.26	0.344
761.57	0.096
761.88	-0.342
762.18	-0.892
762.49	-1.531
762.80	-2.271
763.11	-3.223
763.42	-4.296
763.73	-5.475
764.04	-6.975
764.35	-8.777
764.66	-10.775
764.97	-13.005
765.28	-15.303
765.59	-18.296
765.90	-21.595
766.21	-24.946
766.52	-27.757
766.83	-31.101
767.14	-33.958
767.44	-36.874
767.75	-39.572
768.06	-42.534
768.37	-44.962
768.68	-47.581
768.99	-49.081
769.30	-51.260
769.61	-52.823
769.91	-55.131
770.22	-56.150
770.53	-58.102
770.84	-58.899
771.15	-60.370
771.46	-61.058
771.77	-61.863
772.07	-62.694
772.38	-63.752
772.69	-63.503
773.00	-63.850
773.31	-63.884
773.61	-64.406
773.92	-64.311
774.23	-65.271
774.54	-64.747
774.85	-65.072
775.15	-64.544
775.46	-64.337
775.77	-64.333
776.08	-64.719
776.39	-63.911
776.69	-63.953
777.00	-63.863
777.31	-63.830
777.62	-63.016
777.92	-62.852
778.23	-61.901
778.54	-62.253
778.85	-62.333
779.15	-62.518
779.46	-61.861
779.77	-62.825
780.07	-62.926
780.38	-63.674
780.69	-63.206
781.00	-63.895
781.30	-63.719
781.61	-64.421
781.92	-63.726
782.22	-63.015
782.53	-61.782
782.84	-61.065
783.14	-60.397
783.45	-58.596
783.76	-56.322
784.06	-54.900
784.37	-52.058
784.68	-50.112
784.98	-47.467
785.29	-45.285
785.60	-43.476
785.90	-41.420
786.21	-39.788
786.51	-37.630
786.82	-36.213
787.13	-34.837
787.43	-33.864
787.74	-32.993
788.04	-32.444
788.35	-32.063
788.66	-32.324
788.96	-32.558
789.27	-33.046
789.57	-33.392
789.88	-34.448
790.19	-35.259
790.49	-36.291
790.80	-37.211
791.10	-37.801
791.41	-37.993
791.71	-38.655
792.02	-38.927
792.32	-38.806
792.63	-39.166
792.93	-38.685
793.24	-37.293
793.54	-36.953
793.85	-35.826
794.15	-34.957
794.46	-34.610
794.76	-34.040
795.07	-33.328
795.37	-32.171
795.68	-31.653
795.98	-30.659
796.29	-30.272
796.59	-30.218
796.90	-30.051
797.20	-30.438
797.51	-29.846
797.81	-29.915
798.12	-30.158
798.42	-29.572
798.72	-29.781
799.03	-29.049
799.33	-28.858
799.64	-29.253
799.94	-29.637
800.25	-29.492
800.55	-28.696
800.85	-28.686
801.16	-28.954
801.46	-28.969
801.77	-29.405
802.07	-29.754
802.37	-30.924
802.68	-31.545
802.98	-31.383
803.28	-31.507
803.59	-31.671
803.89	-32.521
804.20	-33.231
804.50	-32.719
804.80	-33.327
805.11	-33.324
805.41	-33.544
805.71	-32.880
806.02	-32.865
806.32	-32.711
806.62	-32.546
806.93	-32.132
807.23	-31.570
807.53	-30.423
807.83	-31.161
808.14	-29.676
808.44	-29.415
808.74	-28.421
809.05	-28.381
809.35	-26.895
809.65	-26.276
809.95	-24.742
810.26	-24.016
810.56	-23.398
810.86	-23.234
811.16	-21.143
811.47	-20.701
811.77	-19.414
812.07	-18.479
812.37	-16.262
812.68	-15.728
812.98	-14.930
813.28	-14.271
813.58	-13.338
813.88	-12.554
814.19	-11.151
814.49	-10.884
814.79	-9.451
815.09	-8.574
815.39	-7.814
815.70	-7.541
816.00	-7.363
816.30	-6.730
816.60	-6.203
816.90	-5.373
817.20	-4.190
817.50	-2.781
817.81	-1.037
818.11	0.190
818.41	1.367
818.71	2.450
819.01	3.258
819.31	4.091
819.61	4.755
819.92	5.175
820.22	5.486
820.52	5.786
820.82	5.898
821.12	6.000
821.42	6.151
821.72	6.252
822.02	6.244
822.32	6.167
822.62	6.090
822.92	5.940
823.22	5.835
823.52	5.743
823.83	5.543
824.13	5.366
824.43	5.158
824.73	4.767
825.03	4.374
825.33	4.190
825.63	4.113
825.93	3.960
826.23	3.779
826.53	3.658
826.83	3.458
827.13	3.275
827.43	3.110
827.73	2.972
828.03	2.781
828.33	2.600
828.63	1.991
828.93	1.358
829.23	0.731
829.53	0.085
829.83	-0.663
830.13	-1.600
830.42	-1.745
830.72	-1.861
831.02	-1.863
831.32	-1.586
831.62	-1.788
831.92	-1.501
832.22	-1.078
832.52	-0.914
832.82	-0.608
833.12	-0.473
833.42	-0.300
833.72	-0.792
834.01	-1.094
834.31	-1.502
834.61	-2.067
834.91	-2.645
835.21	-3.391
835.51	-4.373
835.81	-5.239
836.11	-6.428
836.40	-7.617
836.70	-8.864
837.00	-10.203
837.30	-12.433
837.60	-14.484
837.90	-16.024
838.19	-16.378
838.49	-16.760
838.79	-17.328
839.09	-17.772
839.39	-18.580
839.68	-20.102
839.98	-20.353
840.28	-20.703
840.58	-20.017
840.88	-20.656
841.17	-22.037
841.47	-24.232
841.77	-25.531
842.07	-28.876
842.36	-32.283
842.66	-35.467
842.96	-36.596
843.26	-41.948
843.55	-47.678
843.85	-54.693
844.15	-57.662
844.45	-58.368
844.74	-60.217
845.04	-64.972
845.34	-64.492
845.63	-68.524
845.93	-68.229
846.23	-69.927
846.53	-71.221
846.82	-68.207
847.12	-68.891
847.42	-68.584
847.71	-70.398
848.01	-73.787
848.31	-71.416
848.60	-74.883
848.90	-69.998
849.19	-72.731
849.49	-72.403
849.79	-71.069
850.08	-69.197
850.38	-64.572
850.68	-64.114
850.97	-61.291
851.27	-59.344
851.56	-60.659
851.86	-56.291
852.16	-57.122
852.45	-55.515
852.75	-58.500
853.04	-56.523
853.34	-60.158
853.64	-59.802
853.93	-61.592
854.23	-64.699
854.52	-64.502
854.82	-64.183
855.11	-64.990
855.41	-64.360
855.70	-65.565
856.00	-60.669
856.30	-63.479
856.59	-63.566
856.89	-66.486
857.18	-66.301
857.48	-64.776
857.77	-61.046
858.07	-61.422
858.36	-61.776
858.66	-61.610
858.95	-60.443
859.25	-60.835
859.54	-59.748
859.84	-59.018
860.13	-56.374
860.42	-50.600
860.72	-51.527
861.01	-55.160
861.31	-52.852
861.60	-55.070
861.90	-55.239
862.19	-57.609
862.49	-58.531
862.78	-52.339
863.07	-50.798
863.37	-48.870
863.66	-51.261
863.96	-47.811
864.25	-42.882
864.54	-44.060
864.84	-41.297
865.13	-41.474
865.43	-38.659
865.72	-22.508
866.01	-43.763
866.31	-43.343
866.60	-60.255
866.89	-47.310
>>>>>End Spectral Data<<<<<
