OOIBase32 Version 2.0.0.6 Data File
++++++++++++++++++++++++++++++++++++
Date: 01-20-2012, 22:46:51
User: Valued Ocean Optics Customer
Spectrometer Serial Number: USB2E2917
Spectrometer Channel: Master
Integration Time (msec): 3
Spectra Averaged: 10
Boxcar Smoothing: 5
Correct for Electrical Dark: Enabled
Time Normalized: Disabled
Dual-beam Reference: Disabled
Reference Channel: Master
Temperature: Not acquired
Spectrometer Type: S2000
ADC Type: USB2000
Number of Pixels in File: 2048
Graph Title: 
>>>>>Begin Spectral Data<<<<<
180.30	0.000
180.67	0.000
181.03	-206.842
181.40	114.247
181.77	-377.658
182.14	56.440
182.51	1828.539
182.88	-153.370
183.25	83.888
183.62	234.049
183.99	204.530
184.36	-55.092
184.73	112.000
185.10	-62.634
185.46	99.664
185.83	98.585
186.20	-31.239
186.57	-379.547
186.94	2820.742
187.31	-158.639
187.68	21.889
188.05	-96.116
188.42	-74.864
188.78	-214.607
189.15	-22.648
189.52	-70.733
189.89	-21.594
190.26	-16.308
190.63	-57.396
191.00	-75.977
191.37	-106.392
191.73	-79.439
192.10	-159.214
192.47	-445.272
192.84	-115.030
193.21	-13502.132
193.58	361.752
193.94	158.080
194.31	178.178
194.68	77.239
195.05	86.801
195.42	124.521
195.79	241.448
196.15	143.225
196.52	222.532
196.89	270.710
197.26	2455.113
197.63	-259.757
198.00	-188.688
198.36	-314.851
198.73	-346.137
199.10	-237.812
199.47	-315.515
199.84	-216.086
200.20	-101.281
200.57	-42.699
200.94	-34.456
201.31	-15.776
201.68	-6.193
202.04	8.521
202.41	2.956
202.78	11.989
203.15	8.220
203.51	-16.637
203.88	-67.580
204.25	-77.174
204.62	-187.818
204.98	-137.988
205.35	-97.665
205.72	-95.529
206.09	-339.950
206.46	-180.590
206.82	-146.891
207.19	-63.145
207.56	-23.329
207.92	-10.577
208.29	-8.065
208.66	2.595
209.03	7.497
209.39	-15.784
209.76	-44.943
210.13	-32.508
210.50	-28.529
210.86	5.027
211.23	-9.393
211.60	-16.337
211.96	-8.734
212.33	5.300
212.70	10.246
213.07	-10.823
213.43	13.934
213.80	20.645
214.17	10.434
214.53	4.639
214.90	-15.944
215.27	-17.580
215.63	-32.476
216.00	-33.540
216.37	-21.186
216.74	-42.559
217.10	-21.716
217.47	-23.581
217.84	-11.293
218.20	-9.431
218.57	-8.412
218.94	-0.025
219.30	5.485
219.67	12.517
220.04	15.989
220.40	4.910
220.77	11.249
221.13	9.508
221.50	14.584
221.87	13.872
222.23	13.056
222.60	17.719
222.97	11.772
223.33	0.662
223.70	1.587
224.07	-1.743
224.43	-1.819
224.80	-1.699
225.16	-1.101
225.53	-1.653
225.90	-1.269
226.26	-0.004
226.63	0.971
226.99	2.492
227.36	3.109
227.73	2.759
228.09	3.734
228.46	4.428
228.82	4.620
229.19	4.544
229.56	4.496
229.92	3.850
230.29	4.297
230.65	2.820
231.02	2.186
231.38	3.608
231.75	3.546
232.12	3.751
232.48	3.675
232.85	3.548
233.21	3.716
233.58	5.471
233.94	6.907
234.31	6.299
234.68	7.691
235.04	7.450
235.41	7.026
235.77	6.790
236.14	6.434
236.50	5.739
236.87	6.015
237.23	6.522
237.60	4.384
237.96	4.149
238.33	3.647
238.69	3.196
239.06	2.403
239.42	2.441
239.79	2.146
240.15	1.599
240.52	2.137
240.88	2.415
241.25	1.965
241.61	2.413
241.98	2.007
242.34	1.893
242.71	1.944
243.07	2.099
243.44	2.064
243.80	2.336
244.17	2.658
244.53	2.657
244.90	2.502
245.26	2.637
245.63	2.599
245.99	3.033
246.36	3.088
246.72	3.112
247.09	3.335
247.45	3.325
247.81	3.516
248.18	3.744
248.54	3.852
248.91	3.983
249.27	4.391
249.64	4.287
250.00	3.917
250.36	4.000
250.73	3.988
251.09	3.987
251.46	4.841
251.82	4.645
252.19	4.247
252.55	4.268
252.91	4.307
253.28	4.100
253.64	4.552
254.01	4.906
254.37	4.971
254.73	4.623
255.10	4.449
255.46	3.786
255.83	3.518
256.19	3.511
256.55	3.501
256.92	3.308
257.28	3.082
257.65	3.083
258.01	3.102
258.37	3.178
258.74	3.300
259.10	3.212
259.46	3.230
259.83	3.307
260.19	3.254
260.55	3.054
260.92	2.859
261.28	3.027
261.64	2.775
262.01	2.403
262.37	2.318
262.73	2.159
263.10	2.217
263.46	2.052
263.82	2.615
264.19	2.904
264.55	3.147
264.91	3.484
265.28	3.383
265.64	3.625
266.00	3.875
266.37	3.931
266.73	4.100
267.09	4.187
267.46	4.318
267.82	3.929
268.18	3.660
268.54	3.494
268.91	3.404
269.27	3.318
269.63	3.288
270.00	3.050
270.36	2.916
270.72	2.949
271.08	3.015
271.45	2.858
271.81	2.568
272.17	2.640
272.53	2.818
272.90	2.892
273.26	2.937
273.62	2.806
273.98	2.892
274.35	2.905
274.71	2.795
275.07	2.752
275.43	2.779
275.80	3.176
276.16	3.457
276.52	3.415
276.88	3.476
277.25	3.447
277.61	3.534
277.97	3.739
278.33	3.794
278.69	3.534
279.06	3.375
279.42	3.513
279.78	3.520
280.14	3.286
280.50	3.378
280.87	3.285
281.23	3.506
281.59	3.601
281.95	3.618
282.31	3.489
282.68	3.615
283.04	3.805
283.40	3.608
283.76	3.535
284.12	3.670
284.48	3.535
284.85	3.590
285.21	3.314
285.57	3.170
285.93	3.068
286.29	3.138
286.65	3.325
287.02	3.141
287.38	3.397
287.74	3.364
288.10	3.178
288.46	3.101
288.82	2.995
289.18	3.017
289.54	3.334
289.91	3.310
290.27	3.359
290.63	3.269
290.99	3.362
291.35	3.279
291.71	3.416
292.07	3.608
292.43	3.678
292.79	3.758
293.16	3.741
293.52	3.763
293.88	3.822
294.24	3.758
294.60	3.670
294.96	3.679
295.32	3.642
295.68	3.580
296.04	3.507
296.40	3.537
296.76	3.522
297.12	3.569
297.49	3.338
297.85	3.251
298.21	3.236
298.57	3.301
298.93	3.259
299.29	3.306
299.65	3.433
300.01	3.234
300.37	3.056
300.73	3.219
301.09	3.297
301.45	3.276
301.81	3.524
302.17	3.695
302.53	3.695
302.89	3.930
303.25	3.923
303.61	3.907
303.97	4.265
304.33	4.435
304.69	4.289
305.05	4.427
305.41	4.658
305.77	4.477
306.13	4.435
306.49	4.348
306.85	4.237
307.21	4.185
307.57	4.202
307.93	4.049
308.29	4.221
308.65	4.261
309.01	4.139
309.37	4.088
309.73	4.149
310.09	4.254
310.45	4.437
310.81	4.402
311.17	4.444
311.53	4.460
311.89	4.620
312.25	4.608
312.61	4.623
312.96	4.723
313.32	4.620
313.68	4.549
314.04	4.534
314.40	4.466
314.76	4.518
315.12	4.616
315.48	4.718
315.84	4.573
316.20	4.556
316.56	4.611
316.92	4.718
317.27	4.964
317.63	5.065
317.99	4.936
318.35	4.970
318.71	5.066
319.07	5.141
319.43	5.088
319.79	5.285
320.15	5.312
320.50	5.331
320.86	5.338
321.22	5.326
321.58	5.447
321.94	5.692
322.30	5.810
322.66	5.937
323.01	6.021
323.37	6.205
323.73	6.336
324.09	6.516
324.45	6.703
324.81	6.984
325.17	7.153
325.52	7.426
325.88	7.601
326.24	7.702
326.60	7.902
326.96	8.059
327.31	8.246
327.67	8.424
328.03	8.521
328.39	8.695
328.75	8.763
329.11	8.884
329.46	8.884
329.82	8.965
330.18	9.180
330.54	9.275
330.90	9.358
331.25	9.374
331.61	9.461
331.97	9.603
332.33	9.729
332.68	9.824
333.04	9.911
333.40	10.070
333.76	10.067
334.11	10.010
334.47	10.040
334.83	10.226
335.19	10.318
335.54	10.271
335.90	10.387
336.26	10.493
336.62	10.500
336.97	10.607
337.33	10.628
337.69	10.778
338.05	10.954
338.40	10.949
338.76	10.900
339.12	10.893
339.48	10.988
339.83	10.968
340.19	10.934
340.55	10.873
340.90	10.965
341.26	11.022
341.62	10.964
341.97	10.911
342.33	10.961
342.69	10.964
343.04	11.018
343.40	11.099
343.76	11.131
344.12	11.121
344.47	11.242
344.83	11.133
345.19	11.097
345.54	11.125
345.90	11.211
346.26	11.220
346.61	11.245
346.97	11.194
347.32	11.142
347.68	11.067
348.04	11.095
348.39	11.031
348.75	11.033
349.11	10.977
349.46	10.972
349.82	10.827
350.18	10.850
350.53	10.813
350.89	10.901
351.24	10.910
351.60	10.977
351.96	10.939
352.31	10.969
352.67	11.002
353.02	11.020
353.38	11.092
353.74	11.217
354.09	11.294
354.45	11.312
354.80	11.290
355.16	11.336
355.52	11.367
355.87	11.408
356.23	11.429
356.58	11.430
356.94	11.483
357.29	11.431
357.65	11.412
358.00	11.368
358.36	11.381
358.72	11.406
359.07	11.378
359.43	11.400
359.78	11.428
360.14	11.442
360.49	11.454
360.85	11.468
361.20	11.533
361.56	11.579
361.91	11.611
362.27	11.608
362.62	11.680
362.98	11.775
363.33	11.815
363.69	11.784
364.04	11.797
364.40	11.833
364.75	11.891
365.11	11.888
365.46	11.872
365.82	11.891
366.17	12.002
366.53	11.945
366.88	11.881
367.24	11.837
367.59	11.934
367.95	11.933
368.30	11.968
368.66	11.983
369.01	12.065
369.37	12.131
369.72	12.100
370.08	12.068
370.43	12.132
370.78	12.169
371.14	12.247
371.49	12.302
371.85	12.436
372.20	12.508
372.56	12.578
372.91	12.584
373.26	12.649
373.62	12.775
373.97	12.906
374.33	13.008
374.68	13.102
375.03	13.156
375.39	13.220
375.74	13.172
376.10	13.211
376.45	13.218
376.80	13.287
377.16	13.326
377.51	13.365
377.87	13.398
378.22	13.413
378.57	13.454
378.93	13.551
379.28	13.600
379.63	13.761
379.99	13.842
380.34	13.941
380.70	14.033
381.05	14.092
381.40	14.156
381.76	14.204
382.11	14.263
382.46	14.391
382.82	14.491
383.17	14.571
383.52	14.637
383.88	14.723
384.23	14.817
384.58	14.890
384.94	14.984
385.29	15.103
385.64	15.184
385.99	15.344
386.35	15.363
386.70	15.354
387.05	15.446
387.41	15.523
387.76	15.598
388.11	15.675
388.47	15.753
388.82	15.841
389.17	15.892
389.52	15.971
389.88	16.007
390.23	16.078
390.58	16.184
390.93	16.305
391.29	16.373
391.64	16.415
391.99	16.477
392.34	16.547
392.70	16.555
393.05	16.606
393.40	16.698
393.75	16.767
394.11	16.850
394.46	16.917
394.81	16.933
395.16	16.976
395.52	17.039
395.87	17.102
396.22	17.129
396.57	17.197
396.92	17.264
397.28	17.273
397.63	17.322
397.98	17.381
398.33	17.404
398.68	17.418
399.04	17.490
399.39	17.560
399.74	17.563
400.09	17.652
400.44	17.731
400.80	17.795
401.15	17.872
401.50	17.899
401.85	17.964
402.20	18.066
402.55	18.138
402.90	18.168
403.26	18.249
403.61	18.330
403.96	18.372
404.31	18.467
404.66	18.542
405.01	18.562
405.36	18.644
405.72	18.726
406.07	18.748
406.42	18.795
406.77	18.872
407.12	18.919
407.47	19.008
407.82	19.107
408.17	19.165
408.53	19.199
408.88	19.291
409.23	19.331
409.58	19.351
409.93	19.456
410.28	19.497
410.63	19.556
410.98	19.582
411.33	19.638
411.68	19.653
412.03	19.648
412.38	19.680
412.73	19.751
413.09	19.787
413.44	19.798
413.79	19.823
414.14	19.877
414.49	19.881
414.84	19.927
415.19	19.952
415.54	19.976
415.89	20.005
416.24	20.017
416.59	20.008
416.94	20.015
417.29	20.052
417.64	20.037
417.99	20.071
418.34	20.093
418.69	20.119
419.04	20.141
419.39	20.138
419.74	20.170
420.09	20.192
420.44	20.215
420.79	20.255
421.14	20.278
421.49	20.320
421.84	20.350
422.19	20.385
422.54	20.399
422.89	20.423
423.24	20.476
423.59	20.516
423.94	20.576
424.29	20.629
424.64	20.702
424.99	20.741
425.34	20.811
425.68	20.853
426.03	20.909
426.38	20.985
426.73	21.035
427.08	21.099
427.43	21.151
427.78	21.195
428.13	21.227
428.48	21.215
428.83	21.280
429.18	21.297
429.53	21.317
429.87	21.355
430.22	21.364
430.57	21.385
430.92	21.416
431.27	21.444
431.62	21.463
431.97	21.507
432.32	21.558
432.67	21.576
433.01	21.604
433.36	21.623
433.71	21.665
434.06	21.720
434.41	21.760
434.76	21.813
435.11	21.837
435.45	21.861
435.80	21.863
436.15	21.894
436.50	21.917
436.85	21.944
437.20	21.964
437.54	21.985
437.89	21.998
438.24	22.021
438.59	21.998
438.94	22.007
439.29	22.014
439.63	22.034
439.98	22.054
440.33	22.063
440.68	22.092
441.03	22.119
441.37	22.102
441.72	22.100
442.07	22.111
442.42	22.122
442.76	22.120
443.11	22.137
443.46	22.154
443.81	22.172
444.16	22.176
444.50	22.164
444.85	22.149
445.20	22.164
445.55	22.156
445.89	22.162
446.24	22.168
446.59	22.184
446.94	22.211
447.28	22.204
447.63	22.169
447.98	22.189
448.32	22.205
448.67	22.238
449.02	22.272
449.37	22.313
449.71	22.307
450.06	22.330
450.41	22.364
450.75	22.377
451.10	22.410
451.45	22.437
451.79	22.448
452.14	22.460
452.49	22.471
452.84	22.492
453.18	22.506
453.53	22.573
453.88	22.594
454.22	22.615
454.57	22.592
454.92	22.615
455.26	22.649
455.61	22.677
455.95	22.693
456.30	22.738
456.65	22.772
456.99	22.803
457.34	22.808
457.69	22.832
458.03	22.847
458.38	22.897
458.73	22.926
459.07	22.955
459.42	22.989
459.76	23.042
460.11	23.070
460.46	23.095
460.80	23.155
461.15	23.176
461.49	23.233
461.84	23.278
462.19	23.331
462.53	23.384
462.88	23.435
463.22	23.434
463.57	23.479
463.91	23.521
464.26	23.560
464.61	23.568
464.95	23.628
465.30	23.671
465.64	23.714
465.99	23.747
466.33	23.782
466.68	23.827
467.02	23.914
467.37	23.962
467.71	23.961
468.06	24.013
468.41	24.069
468.75	24.100
469.10	24.150
469.44	24.181
469.79	24.202
470.13	24.221
470.48	24.251
470.82	24.277
471.17	24.277
471.51	24.302
471.86	24.296
472.20	24.303
472.55	24.312
472.89	24.276
473.23	24.275
473.58	24.272
473.92	24.273
474.27	24.253
474.61	24.284
474.96	24.269
475.30	24.302
475.65	24.298
475.99	24.307
476.34	24.317
476.68	24.345
477.02	24.368
477.37	24.362
477.71	24.377
478.06	24.404
478.40	24.446
478.75	24.541
479.09	24.655
479.43	24.834
479.78	24.994
480.12	25.167
480.47	25.336
480.81	25.504
481.15	25.681
481.50	25.860
481.84	26.101
482.19	26.349
482.53	26.530
482.87	26.549
483.22	26.380
483.56	26.267
483.90	26.215
484.25	26.163
484.59	26.116
484.94	26.037
485.28	25.923
485.62	25.721
485.97	25.471
486.31	25.302
486.65	25.311
487.00	25.503
487.34	25.646
487.68	25.679
488.03	25.692
488.37	25.691
488.71	25.694
489.06	25.719
489.40	25.749
489.74	25.784
490.09	25.777
490.43	25.753
490.77	25.761
491.11	25.778
491.46	25.787
491.80	25.832
492.14	25.835
492.49	25.871
492.83	25.892
493.17	25.934
493.51	25.954
493.86	26.040
494.20	26.131
494.54	26.210
494.88	26.268
495.23	26.383
495.57	26.435
495.91	26.515
496.25	26.592
496.60	26.692
496.94	26.763
497.28	26.868
497.62	26.942
497.97	27.032
498.31	27.125
498.65	27.221
498.99	27.304
499.33	27.402
499.68	27.527
500.02	27.645
500.36	27.734
500.70	27.799
501.04	27.861
501.39	27.961
501.73	28.056
502.07	28.172
502.41	28.266
502.75	28.373
503.09	28.499
503.44	28.579
503.78	28.703
504.12	28.796
504.46	28.933
504.80	29.056
505.14	29.151
505.49	29.259
505.83	29.357
506.17	29.456
506.51	29.540
506.85	29.614
507.19	29.716
507.53	29.794
507.87	29.899
508.22	29.969
508.56	30.053
508.90	30.177
509.24	30.277
509.58	30.368
509.92	30.470
510.26	30.548
510.60	30.653
510.94	30.751
511.28	30.859
511.63	30.967
511.97	31.084
512.31	31.178
512.65	31.228
512.99	31.296
513.33	31.416
513.67	31.521
514.01	31.676
514.35	31.758
514.69	31.845
515.03	31.903
515.37	31.967
515.71	32.022
516.05	32.113
516.39	32.203
516.73	32.280
517.07	32.320
517.41	32.372
517.75	32.386
518.09	32.455
518.43	32.513
518.77	32.580
519.11	32.598
519.45	32.674
519.79	32.723
520.13	32.742
520.47	32.773
520.81	32.833
521.15	32.877
521.49	32.975
521.83	33.028
522.17	33.094
522.51	33.154
522.85	33.285
523.19	33.421
523.53	33.568
523.87	33.742
524.21	33.958
524.55	34.140
524.89	34.337
525.23	34.515
525.57	34.692
525.91	34.823
526.25	34.979
526.58	35.108
526.92	35.222
527.26	35.291
527.60	35.351
527.94	35.380
528.28	35.378
528.62	35.359
528.96	35.324
529.30	35.264
529.64	35.255
529.97	35.195
530.31	35.137
530.65	35.060
530.99	35.032
531.33	35.014
531.67	34.999
532.01	35.024
532.35	35.044
532.68	35.037
533.02	35.080
533.36	35.073
533.70	35.063
534.04	35.081
534.38	35.068
534.71	35.071
535.05	35.074
535.39	35.047
535.73	35.034
536.07	35.047
536.41	35.080
536.74	35.098
537.08	35.175
537.42	35.265
537.76	35.326
538.10	35.438
538.43	35.547
538.77	35.631
539.11	35.733
539.45	35.792
539.79	35.858
540.12	35.936
540.46	36.000
540.80	36.013
541.14	36.016
541.47	36.025
541.81	36.014
542.15	35.963
542.49	35.966
542.82	35.950
543.16	35.961
543.50	35.957
543.84	35.940
544.17	35.893
544.51	35.866
544.85	35.869
545.18	35.880
545.52	35.899
545.86	35.974
546.20	35.974
546.53	35.986
546.87	36.029
547.21	36.020
547.54	36.038
547.88	36.101
548.22	36.162
548.55	36.189
548.89	36.223
549.23	36.254
549.56	36.271
549.90	36.326
550.24	36.369
550.57	36.372
550.91	36.430
551.25	36.408
551.58	36.427
551.92	36.471
552.26	36.504
552.59	36.573
552.93	36.615
553.27	36.624
553.60	36.646
553.94	36.692
554.27	36.711
554.61	36.715
554.95	36.780
555.28	36.846
555.62	36.849
555.95	36.910
556.29	36.886
556.63	36.940
556.96	37.002
557.30	37.062
557.63	37.038
557.97	37.067
558.31	37.129
558.64	37.161
558.98	37.161
559.31	37.233
559.65	37.245
559.98	37.284
560.32	37.280
560.65	37.325
560.99	37.314
561.33	37.394
561.66	37.427
562.00	37.442
562.33	37.461
562.67	37.488
563.00	37.495
563.34	37.558
563.67	37.562
564.01	37.592
564.34	37.605
564.68	37.622
565.01	37.656
565.35	37.703
565.68	37.721
566.02	37.778
566.35	37.803
566.69	37.812
567.02	37.816
567.36	37.903
567.69	37.933
568.03	37.926
568.36	37.962
568.69	37.973
569.03	37.972
569.36	37.970
569.70	37.997
570.03	37.993
570.37	38.042
570.70	38.051
571.04	38.027
571.37	38.019
571.70	38.053
572.04	38.084
572.37	38.126
572.71	38.133
573.04	38.162
573.37	38.196
573.71	38.235
574.04	38.223
574.38	38.248
574.71	38.293
575.04	38.374
575.38	38.386
575.71	38.405
576.05	38.397
576.38	38.482
576.71	38.518
577.05	38.444
577.38	38.458
577.71	38.486
578.05	38.493
578.38	38.536
578.71	38.497
579.05	38.540
579.38	38.531
579.71	38.538
580.05	38.528
580.38	38.552
580.71	38.632
581.05	38.694
581.38	38.752
581.71	38.781
582.05	38.766
582.38	38.808
582.71	38.821
583.04	38.854
583.38	38.857
583.71	38.869
584.04	38.873
584.38	38.897
584.71	38.861
585.04	38.846
585.37	38.894
585.71	38.904
586.04	38.918
586.37	38.909
586.70	38.904
587.04	38.984
587.37	38.971
587.70	39.020
588.03	39.026
588.37	39.037
588.70	39.039
589.03	39.052
589.36	39.103
589.69	39.080
590.03	39.161
590.36	39.172
590.69	39.143
591.02	39.186
591.35	39.177
591.69	39.198
592.02	39.228
592.35	39.255
592.68	39.248
593.01	39.203
593.35	39.291
593.68	39.204
594.01	39.232
594.34	39.247
594.67	39.242
595.00	39.197
595.34	39.166
595.67	39.190
596.00	39.215
596.33	39.226
596.66	39.241
596.99	39.219
597.32	39.291
597.65	39.264
597.99	39.229
598.32	39.243
598.65	39.263
598.98	39.278
599.31	39.251
599.64	39.170
599.97	39.120
600.30	39.118
600.63	39.033
600.96	38.970
601.30	39.000
601.63	39.011
601.96	39.027
602.29	39.068
602.62	39.078
602.95	39.059
603.28	39.072
603.61	39.149
603.94	39.151
604.27	39.198
604.60	39.256
604.93	39.236
605.26	39.222
605.59	39.227
605.92	39.156
606.25	39.166
606.58	39.149
606.91	39.157
607.24	39.118
607.57	39.098
607.90	39.137
608.23	39.075
608.56	39.102
608.89	39.158
609.22	39.127
609.55	39.196
609.88	39.176
610.21	39.216
610.54	39.216
610.87	39.195
611.20	39.202
611.53	39.159
611.86	39.198
612.19	39.178
612.52	39.163
612.85	39.183
613.18	39.147
613.51	39.171
613.84	39.156
614.17	39.154
614.49	39.197
614.82	39.146
615.15	39.131
615.48	39.134
615.81	39.103
616.14	38.981
616.47	38.880
616.80	38.867
617.13	38.798
617.46	38.812
617.78	38.831
618.11	38.757
618.44	38.735
618.77	38.701
619.10	38.686
619.43	38.647
619.76	38.704
620.09	38.756
620.41	38.771
620.74	38.772
621.07	38.743
621.40	38.736
621.73	38.703
622.06	38.792
622.38	38.711
622.71	38.715
623.04	38.726
623.37	38.686
623.70	38.569
624.02	38.513
624.35	38.514
624.68	38.486
625.01	38.459
625.34	38.496
625.66	38.473
625.99	38.495
626.32	38.462
626.65	38.475
626.98	38.438
627.30	38.501
627.63	38.481
627.96	38.436
628.29	38.421
628.61	38.366
628.94	38.254
629.27	38.156
629.60	38.149
629.92	38.075
630.25	38.043
630.58	38.051
630.91	37.991
631.23	37.982
631.56	37.993
631.89	37.954
632.21	37.944
632.54	37.968
632.87	37.933
633.19	37.939
633.52	37.945
633.85	37.858
634.18	37.825
634.50	37.777
634.83	37.704
635.16	37.664
635.48	37.611
635.81	37.597
636.14	37.548
636.46	37.561
636.79	37.494
637.11	37.487
637.44	37.483
637.77	37.425
638.09	37.466
638.42	37.512
638.75	37.498
639.07	37.519
639.40	37.475
639.73	37.473
640.05	37.403
640.38	37.399
640.70	37.284
641.03	37.270
641.36	37.264
641.68	37.257
642.01	37.185
642.33	37.139
642.66	37.013
642.98	36.886
643.31	36.794
643.64	36.800
643.96	36.810
644.29	36.891
644.61	36.765
644.94	36.721
645.26	36.643
645.59	36.538
645.91	36.502
646.24	36.509
646.56	36.557
646.89	36.533
647.22	36.470
647.54	36.358
647.87	36.238
648.19	36.283
648.52	36.260
648.84	36.177
649.17	36.228
649.49	36.208
649.82	36.133
650.14	36.088
650.47	35.989
650.79	35.918
651.11	35.796
651.44	35.788
651.76	35.673
652.09	35.620
652.41	35.638
652.74	35.533
653.06	35.493
653.39	35.401
653.71	35.389
654.04	35.347
654.36	35.345
654.68	35.401
655.01	35.267
655.33	35.278
655.66	35.194
655.98	35.093
656.30	35.036
656.63	34.991
656.95	35.003
657.28	34.876
657.60	34.891
657.92	34.741
658.25	34.691
658.57	34.731
658.90	34.747
659.22	34.682
659.54	34.637
659.87	34.620
660.19	34.459
660.51	34.410
660.84	34.436
661.16	34.371
661.48	34.396
661.81	34.367
662.13	34.242
662.45	34.096
662.78	34.144
663.10	34.138
663.42	33.999
663.75	33.985
664.07	33.955
664.39	33.862
664.72	33.810
665.04	33.863
665.36	33.708
665.69	33.780
666.01	33.689
666.33	33.552
666.65	33.512
666.98	33.555
667.30	33.508
667.62	33.503
667.94	33.463
668.27	33.468
668.59	33.335
668.91	33.328
669.23	33.150
669.56	33.139
669.88	33.139
670.20	33.034
670.52	32.987
670.85	32.933
671.17	32.804
671.49	32.760
671.81	32.658
672.13	32.630
672.46	32.546
672.78	32.528
673.10	32.516
673.42	32.485
673.74	32.414
674.07	32.414
674.39	32.378
674.71	32.377
675.03	32.260
675.35	32.245
675.67	32.252
676.00	32.248
676.32	32.213
676.64	32.144
676.96	32.125
677.28	32.043
677.60	31.991
677.92	31.980
678.25	31.954
678.57	31.931
678.89	31.888
679.21	31.792
679.53	31.771
679.85	31.701
680.17	31.653
680.49	31.629
680.81	31.696
681.13	31.595
681.46	31.524
681.78	31.416
682.10	31.445
682.42	31.386
682.74	31.345
683.06	31.250
683.38	31.187
683.70	31.156
684.02	30.995
684.34	30.876
684.66	30.894
684.98	30.854
685.30	30.862
685.62	30.741
685.94	30.646
686.26	30.658
686.58	30.659
686.90	30.589
687.22	30.486
687.54	30.438
687.86	30.409
688.18	30.423
688.50	30.465
688.82	30.389
689.14	30.416
689.46	30.431
689.78	30.334
690.10	30.276
690.42	30.332
690.74	30.352
691.06	30.399
691.38	30.343
691.70	30.145
692.02	29.994
692.34	29.992
692.66	29.878
692.98	29.723
693.30	29.641
693.62	29.490
693.94	29.431
694.26	29.381
694.57	29.198
694.89	29.159
695.21	29.112
695.53	29.165
695.85	29.107
696.17	29.111
696.49	29.196
696.81	29.202
697.13	29.256
697.44	29.310
697.76	29.281
698.08	29.379
698.40	29.364
698.72	29.436
699.04	29.317
699.36	29.342
699.67	29.274
699.99	29.216
700.31	29.139
700.63	29.079
700.95	28.863
701.27	28.886
701.58	28.816
701.90	28.826
702.22	28.661
702.54	28.622
702.86	28.500
703.17	28.418
703.49	28.403
703.81	28.300
704.13	28.164
704.45	28.107
704.76	27.919
705.08	27.742
705.40	27.648
705.72	27.633
706.03	27.643
706.35	27.525
706.67	27.487
706.99	27.320
707.30	27.345
707.62	27.387
707.94	27.466
708.26	27.451
708.57	27.378
708.89	27.353
709.21	27.315
709.53	27.243
709.84	27.250
710.16	27.235
710.48	27.183
710.79	27.081
711.11	26.987
711.43	26.824
711.74	26.851
712.06	26.976
712.38	26.956
712.69	26.975
713.01	26.960
713.33	27.023
713.64	26.994
713.96	27.084
714.28	27.087
714.59	27.241
714.91	27.237
715.23	27.207
715.54	27.164
715.86	27.156
716.17	27.159
716.49	27.190
716.81	27.049
717.12	27.088
717.44	27.074
717.76	27.057
718.07	26.964
718.39	27.084
718.70	26.940
719.02	26.861
719.33	26.842
719.65	26.771
719.97	26.556
720.28	26.596
720.60	26.444
720.91	26.288
721.23	26.379
721.54	26.172
721.86	26.012
722.17	26.221
722.49	26.239
722.81	26.215
723.12	26.181
723.44	26.184
723.75	25.940
724.07	26.018
724.38	25.906
724.70	25.653
725.01	25.736
725.33	25.677
725.64	25.557
725.96	25.409
726.27	25.275
726.59	25.169
726.90	25.134
727.22	25.114
727.53	25.107
727.84	25.250
728.16	25.337
728.47	25.332
728.79	25.289
729.10	25.190
729.42	25.233
729.73	25.239
730.05	25.023
730.36	25.039
730.67	25.006
730.99	24.892
731.30	24.703
731.62	24.664
731.93	24.526
732.24	24.530
732.56	24.488
732.87	24.380
733.19	24.271
733.50	24.401
733.81	24.227
734.13	24.392
734.44	24.447
734.76	24.531
735.07	24.481
735.38	24.462
735.70	24.358
736.01	24.372
736.32	24.308
736.64	24.245
736.95	24.088
737.26	24.119
737.58	23.911
737.89	23.729
738.20	23.563
738.52	23.502
738.83	23.499
739.14	23.469
739.45	23.378
739.77	23.294
740.08	23.263
740.39	23.307
740.71	23.261
741.02	23.249
741.33	22.955
741.64	22.914
741.96	22.694
742.27	22.427
742.58	22.467
742.90	22.442
743.21	22.557
743.52	22.536
743.83	22.497
744.14	22.317
744.46	22.143
744.77	22.369
745.08	22.175
745.39	22.252
745.71	22.311
746.02	22.232
746.33	22.126
746.64	21.939
746.95	22.012
747.27	22.194
747.58	22.230
747.89	22.123
748.20	22.193
748.51	22.206
748.82	22.209
749.14	22.004
749.45	21.804
749.76	21.596
750.07	21.529
750.38	21.463
750.69	21.168
751.01	21.229
751.32	21.251
751.63	21.024
751.94	21.285
752.25	21.371
752.56	21.541
752.87	21.575
753.18	21.625
753.49	21.629
753.81	21.384
754.12	21.452
754.43	21.357
754.74	21.562
755.05	21.762
755.36	21.629
755.67	21.569
755.98	21.494
756.29	21.493
756.60	21.592
756.91	21.708
757.22	21.870
757.53	21.818
757.84	21.875
758.15	21.979
758.46	21.947
758.77	22.000
759.09	21.935
759.40	21.945
759.71	22.095
760.02	22.166
760.33	22.181
760.64	22.189
760.95	22.296
761.26	22.229
761.57	22.152
761.88	22.100
762.18	21.973
762.49	22.034
762.80	22.107
763.11	22.021
763.42	21.967
763.73	21.946
764.04	21.807
764.35	21.723
764.66	21.671
764.97	21.419
765.28	21.285
765.59	21.123
765.90	20.878
766.21	20.730
766.52	20.661
766.83	20.450
767.14	20.182
767.44	20.209
767.75	19.885
768.06	19.841
768.37	20.158
768.68	20.114
768.99	19.951
769.30	19.721
769.61	19.656
769.91	19.447
770.22	19.522
770.53	19.397
770.84	19.303
771.15	19.395
771.46	19.225
771.77	18.743
772.07	18.707
772.38	19.195
772.69	19.261
773.00	19.052
773.31	19.298
773.61	19.136
773.92	19.008
774.23	18.702
774.54	18.547
774.85	18.398
775.15	18.537
775.46	18.566
775.77	18.225
776.08	18.193
776.39	18.071
776.69	17.654
777.00	17.568
777.31	17.669
777.62	17.907
777.92	18.070
778.23	18.114
778.54	18.293
778.85	17.852
779.15	18.085
779.46	18.206
779.77	18.352
780.07	18.563
780.38	18.720
780.69	18.920
781.00	19.079
781.30	19.226
781.61	19.319
781.92	19.054
782.22	19.042
782.53	18.783
782.84	18.850
783.14	18.982
783.45	18.951
783.76	18.752
784.06	18.816
784.37	18.573
784.68	18.325
784.98	18.519
785.29	18.758
785.60	18.928
785.90	19.001
786.21	19.000
786.51	18.978
786.82	18.853
787.13	18.939
787.43	18.671
787.74	19.238
788.04	19.252
788.35	19.093
788.66	19.001
788.96	19.285
789.27	19.244
789.57	19.118
789.88	19.159
790.19	19.150
790.49	19.041
790.80	19.278
791.10	18.582
791.41	18.515
791.71	18.501
792.02	18.142
792.32	17.925
792.63	17.880
792.93	17.947
793.24	17.851
793.54	18.005
793.85	17.934
794.15	18.034
794.46	18.194
794.76	18.177
795.07	18.518
795.37	18.970
795.68	18.968
795.98	18.973
796.29	19.071
796.59	19.005
796.90	18.916
797.20	19.014
797.51	19.237
797.81	19.069
798.12	19.132
798.42	18.872
798.72	18.425
799.03	18.511
799.33	18.565
799.64	18.283
799.94	18.455
800.25	18.082
800.55	17.914
800.85	17.279
801.16	17.670
801.46	17.804
801.77	17.753
802.07	18.169
802.37	18.511
802.68	18.598
802.98	18.600
803.28	18.577
803.59	19.141
803.89	19.309
804.20	19.408
804.50	19.008
804.80	18.472
805.11	18.309
805.41	18.029
805.71	17.721
806.02	17.811
806.32	18.203
806.62	18.114
806.93	18.051
807.23	18.392
807.53	18.538
807.83	18.812
808.14	19.282
808.44	19.347
808.74	19.661
809.05	19.200
809.35	18.848
809.65	18.503
809.95	18.088
810.26	17.914
810.56	17.563
810.86	17.596
811.16	17.497
811.47	17.558
811.77	17.778
812.07	17.431
812.37	17.914
812.68	18.363
812.98	18.725
813.28	19.168
813.58	19.189
813.88	18.909
814.19	19.095
814.49	19.116
814.79	18.845
815.09	18.647
815.39	18.537
815.70	18.606
816.00	18.462
816.30	18.163
816.60	18.401
816.90	18.390
817.20	18.847
817.50	18.704
817.81	18.782
818.11	18.696
818.41	18.747
818.71	18.826
819.01	18.944
819.31	18.950
819.61	18.838
819.92	18.892
820.22	18.975
820.52	18.990
820.82	18.985
821.12	19.032
821.42	19.085
821.72	19.175
822.02	19.191
822.32	19.167
822.62	19.223
822.92	19.395
823.22	19.362
823.52	19.416
823.83	19.353
824.13	19.452
824.43	19.440
824.73	19.620
825.03	19.504
825.33	19.641
825.63	19.551
825.93	19.359
826.23	19.294
826.53	19.299
826.83	19.110
827.13	19.251
827.43	19.304
827.73	19.374
828.03	19.307
828.33	19.283
828.63	19.073
828.93	19.057
829.23	19.237
829.53	18.998
829.83	18.722
830.13	18.805
830.42	18.479
830.72	18.079
831.02	17.748
831.32	17.623
831.62	17.979
831.92	18.030
832.22	18.278
832.52	18.347
832.82	18.326
833.12	18.310
833.42	18.228
833.72	18.045
834.01	18.095
834.31	17.941
834.61	17.777
834.91	17.363
835.21	17.192
835.51	17.000
835.81	16.712
836.11	16.564
836.40	16.392
836.70	16.541
837.00	17.048
837.30	16.484
837.60	16.545
837.90	16.651
838.19	16.993
838.49	17.436
838.79	18.229
839.09	17.851
839.39	18.145
839.68	18.778
839.98	19.008
840.28	18.706
840.58	19.534
840.88	19.616
841.17	19.735
841.47	19.402
841.77	18.969
842.07	17.730
842.36	17.959
842.66	17.833
842.96	16.769
843.26	15.819
843.55	15.634
843.85	14.580
844.15	14.858
844.45	13.611
844.74	13.207
845.04	12.759
845.34	12.371
845.63	11.367
845.93	11.191
846.23	11.729
846.53	11.743
846.82	12.559
847.12	13.345
847.42	13.758
847.71	15.182
848.01	15.553
848.31	15.005
848.60	14.889
848.90	16.483
849.19	16.197
849.49	16.857
849.79	15.916
850.08	14.197
850.38	13.244
850.68	13.088
850.97	12.788
851.27	13.367
851.56	15.112
851.86	15.194
852.16	14.506
852.45	15.790
852.75	15.890
853.04	17.839
853.34	18.953
853.64	18.245
853.93	17.882
854.23	17.020
854.52	15.834
854.82	14.678
855.11	14.442
855.41	16.192
855.70	15.764
856.00	15.346
856.30	14.196
856.59	14.511
856.89	14.989
857.18	13.997
857.48	14.044
857.77	15.361
858.07	14.891
858.36	15.886
858.66	12.986
858.95	11.757
859.25	10.232
859.54	9.049
859.84	9.659
860.13	10.469
860.42	10.481
860.72	10.679
861.01	9.943
861.31	10.042
861.60	10.826
861.90	12.013
862.19	12.967
862.49	13.257
862.78	12.769
863.07	11.082
863.37	10.476
863.66	9.815
863.96	9.596
864.25	10.615
864.54	11.841
864.84	11.400
865.13	11.271
865.43	11.299
865.72	17.274
866.01	22.081
866.31	23.586
866.60	11.741
866.89	22.224
>>>>>End Spectral Data<<<<<
