OOIBase32 Version 2.0.0.6 Data File
++++++++++++++++++++++++++++++++++++
Date: 01-18-2012, 22:45:09
User: Valued Ocean Optics Customer
Spectrometer Serial Number: USB2E2917
Spectrometer Channel: Master
Integration Time (msec): 5
Spectra Averaged: 10
Boxcar Smoothing: 5
Correct for Electrical Dark: Enabled
Time Normalized: Disabled
Dual-beam Reference: Disabled
Reference Channel: Master
Temperature: Not acquired
Spectrometer Type: S2000
ADC Type: USB2000
Number of Pixels in File: 2048
Graph Title: 
>>>>>Begin Spectral Data<<<<<
180.30	0.000
180.67	0.000
181.03	14.883
181.40	64.696
181.77	239.774
182.14	96.206
182.51	30.645
182.88	40.504
183.25	178.538
183.62	49.938
183.99	-194.409
184.36	116.490
184.73	0.885
185.10	668.295
185.46	116.864
185.83	-35.394
186.20	37.022
186.57	-161.845
186.94	-140.537
187.31	74.597
187.68	-401.731
188.05	7.369
188.42	20.359
188.78	15.467
189.15	38.733
189.52	12.051
189.89	35.172
190.26	25.473
190.63	20.305
191.00	19.487
191.37	23.537
191.73	25.744
192.10	32.718
192.47	30.957
192.84	32.237
193.21	21.027
193.58	29.669
193.94	24.407
194.31	35.833
194.68	43.418
195.05	50.042
195.42	44.853
195.79	38.074
196.15	36.028
196.52	32.174
196.89	45.958
197.26	58.950
197.63	63.574
198.00	60.529
198.36	55.142
198.73	54.904
199.10	54.805
199.47	62.378
199.84	83.918
200.20	86.458
200.57	91.012
200.94	87.457
201.31	78.706
201.68	72.262
202.04	60.127
202.41	35.245
202.78	26.401
203.15	25.422
203.51	30.552
203.88	16.316
204.25	28.928
204.62	23.886
204.98	30.326
205.35	19.516
205.72	33.709
206.09	55.200
206.46	65.379
206.82	73.949
207.19	74.611
207.56	78.984
207.92	65.152
208.29	75.140
208.66	71.656
209.03	67.805
209.39	82.266
209.76	67.026
210.13	46.454
210.50	41.735
210.86	19.991
211.23	7.904
211.60	-17.943
211.96	8.140
212.33	-5.595
212.70	-1.526
213.07	2.566
213.43	2.584
213.80	5.517
214.17	2.665
214.53	21.027
214.90	36.984
215.27	39.423
215.63	40.473
216.00	28.506
216.37	32.547
216.74	36.378
217.10	39.963
217.47	36.806
217.84	32.464
218.20	25.299
218.57	20.346
218.94	3.600
219.30	2.131
219.67	3.576
220.04	10.701
220.40	11.944
220.77	23.367
221.13	22.278
221.50	23.652
221.87	25.970
222.23	26.353
222.60	23.480
222.97	21.599
223.33	22.324
223.70	20.918
224.07	17.836
224.43	13.046
224.80	8.337
225.16	9.111
225.53	7.283
225.90	6.496
226.26	5.102
226.63	4.915
226.99	5.132
227.36	4.549
227.73	4.935
228.09	4.592
228.46	5.949
228.82	5.714
229.19	5.935
229.56	5.185
229.92	5.794
230.29	6.381
230.65	6.449
231.02	5.772
231.38	5.001
231.75	5.421
232.12	7.355
232.48	7.470
232.85	5.926
233.21	3.791
233.58	4.005
233.94	2.587
234.31	2.681
234.68	1.084
235.04	2.984
235.41	3.823
235.77	3.856
236.14	1.832
236.50	2.822
236.87	4.302
237.23	5.111
237.60	4.966
237.96	5.436
238.33	5.227
238.69	6.137
239.06	4.956
239.42	4.760
239.79	3.411
240.15	3.368
240.52	2.630
240.88	2.839
241.25	2.716
241.61	3.155
241.98	3.342
242.34	3.338
242.71	2.918
243.07	3.122
243.44	3.202
243.80	3.528
244.17	3.373
244.53	3.793
244.90	3.641
245.26	3.688
245.63	3.729
245.99	3.465
246.36	3.435
246.72	3.784
247.09	3.826
247.45	3.505
247.81	3.451
248.18	3.605
248.54	3.213
248.91	2.889
249.27	3.264
249.64	3.018
250.00	3.430
250.36	3.803
250.73	3.696
251.09	3.740
251.46	4.094
251.82	4.344
252.19	4.236
252.55	4.299
252.91	4.081
253.28	2.880
253.64	2.648
254.01	1.934
254.37	1.463
254.73	1.254
255.10	1.908
255.46	2.329
255.83	2.373
256.19	2.537
256.55	2.771
256.92	2.872
257.28	3.134
257.65	3.286
258.01	3.334
258.37	3.379
258.74	3.339
259.10	3.112
259.46	2.862
259.83	2.771
260.19	2.729
260.55	2.686
260.92	2.872
261.28	2.947
261.64	2.862
262.01	3.044
262.37	3.217
262.73	3.029
263.10	3.231
263.46	3.464
263.82	3.463
264.19	3.741
264.55	3.437
264.91	3.738
265.28	3.761
265.64	3.560
266.00	3.268
266.37	2.806
266.73	3.049
267.09	2.709
267.46	2.674
267.82	2.731
268.18	2.689
268.54	2.858
268.91	2.774
269.27	2.752
269.63	2.714
270.00	2.744
270.36	2.949
270.72	2.960
271.08	3.176
271.45	3.252
271.81	3.522
272.17	3.175
272.53	2.832
272.90	2.726
273.26	2.560
273.62	2.582
273.98	2.625
274.35	2.725
274.71	2.641
275.07	2.553
275.43	2.715
275.80	2.301
276.16	2.414
276.52	2.629
276.88	2.451
277.25	2.553
277.61	2.632
277.97	2.730
278.33	2.509
278.69	2.512
279.06	2.747
279.42	2.317
279.78	2.455
280.14	2.872
280.50	2.984
280.87	2.998
281.23	2.971
281.59	2.957
281.95	3.015
282.31	3.178
282.68	3.334
283.04	3.158
283.40	3.113
283.76	2.944
284.12	2.689
284.48	2.615
284.85	2.604
285.21	2.581
285.57	2.920
285.93	3.076
286.29	3.033
286.65	2.724
287.02	2.617
287.38	2.643
287.74	2.621
288.10	2.834
288.46	2.927
288.82	2.913
289.18	2.954
289.54	2.847
289.91	2.505
290.27	2.372
290.63	2.542
290.99	2.595
291.35	2.466
291.71	2.447
292.07	2.269
292.43	2.310
292.79	2.431
293.16	2.391
293.52	2.219
293.88	2.443
294.24	2.648
294.60	2.732
294.96	2.705
295.32	3.066
295.68	3.321
296.04	3.269
296.40	3.250
296.76	3.153
297.12	3.092
297.49	3.199
297.85	3.251
298.21	3.103
298.57	3.113
298.93	3.118
299.29	3.123
299.65	3.002
300.01	3.118
300.37	3.124
300.73	3.182
301.09	3.304
301.45	3.300
301.81	3.210
302.17	3.247
302.53	3.271
302.89	3.523
303.25	3.464
303.61	3.712
303.97	3.908
304.33	3.913
304.69	3.950
305.05	3.926
305.41	3.894
305.77	3.906
306.13	3.974
306.49	3.851
306.85	3.744
307.21	3.573
307.57	3.373
307.93	3.152
308.29	3.115
308.65	3.186
309.01	3.176
309.37	3.101
309.73	3.160
310.09	3.017
310.45	3.149
310.81	3.226
311.17	3.327
311.53	3.603
311.89	3.637
312.25	3.646
312.61	3.641
312.96	3.686
313.32	3.680
313.68	3.472
314.04	3.731
314.40	3.541
314.76	3.383
315.12	3.431
315.48	3.115
315.84	3.170
316.20	3.152
316.56	3.111
316.92	3.097
317.27	3.131
317.63	3.207
317.99	3.204
318.35	3.365
318.71	3.491
319.07	3.325
319.43	3.293
319.79	3.190
320.15	3.243
320.50	3.210
320.86	3.220
321.22	3.318
321.58	3.301
321.94	3.252
322.30	3.141
322.66	3.085
323.01	3.213
323.37	3.255
323.73	3.239
324.09	3.283
324.45	3.280
324.81	3.271
325.17	3.189
325.52	3.406
325.88	3.342
326.24	3.360
326.60	3.409
326.96	3.428
327.31	3.329
327.67	3.323
328.03	3.126
328.39	3.175
328.75	3.142
329.11	3.169
329.46	2.935
329.82	2.960
330.18	2.946
330.54	2.756
330.90	2.680
331.25	2.743
331.61	2.823
331.97	2.990
332.33	2.886
332.68	2.904
333.04	2.912
333.40	2.988
333.76	3.028
334.11	3.052
334.47	3.118
334.83	3.276
335.19	3.331
335.54	3.343
335.90	3.358
336.26	3.489
336.62	3.457
336.97	3.434
337.33	3.414
337.69	3.286
338.05	3.340
338.40	3.348
338.76	3.186
339.12	3.066
339.48	3.015
339.83	2.947
340.19	2.941
340.55	3.038
340.90	3.045
341.26	3.069
341.62	2.997
341.97	3.001
342.33	2.968
342.69	3.033
343.04	3.066
343.40	3.164
343.76	3.107
344.12	3.108
344.47	3.111
344.83	3.139
345.19	3.140
345.54	3.263
345.90	3.213
346.26	3.211
346.61	3.199
346.97	3.260
347.32	3.165
347.68	3.187
348.04	3.144
348.39	3.100
348.75	3.087
349.11	3.097
349.46	3.121
349.82	3.164
350.18	3.120
350.53	3.099
350.89	3.049
351.24	3.061
351.60	3.172
351.96	3.127
352.31	3.083
352.67	2.988
353.02	2.928
353.38	2.955
353.74	2.934
354.09	3.048
354.45	3.036
354.80	3.024
355.16	3.051
355.52	2.941
355.87	2.908
356.23	2.962
356.58	2.943
356.94	2.986
357.29	2.894
357.65	2.872
358.00	2.797
358.36	2.847
358.72	2.925
359.07	2.935
359.43	2.950
359.78	3.018
360.14	2.983
360.49	3.032
360.85	2.958
361.20	2.974
361.56	2.991
361.91	3.017
362.27	2.961
362.62	2.899
362.98	2.879
363.33	2.867
363.69	2.859
364.04	2.830
364.40	2.831
364.75	2.897
365.11	3.001
365.46	2.981
365.82	2.999
366.17	2.996
366.53	3.067
366.88	3.130
367.24	3.173
367.59	3.180
367.95	3.197
368.30	3.252
368.66	3.169
369.01	3.101
369.37	3.090
369.72	3.122
370.08	3.183
370.43	3.144
370.78	3.097
371.14	3.104
371.49	3.111
371.85	3.145
372.20	3.104
372.56	3.218
372.91	3.246
373.26	3.297
373.62	3.290
373.97	3.283
374.33	3.308
374.68	3.360
375.03	3.371
375.39	3.402
375.74	3.436
376.10	3.425
376.45	3.425
376.80	3.437
377.16	3.427
377.51	3.412
377.87	3.452
378.22	3.473
378.57	3.443
378.93	3.439
379.28	3.424
379.63	3.414
379.99	3.435
380.34	3.455
380.70	3.468
381.05	3.485
381.40	3.522
381.76	3.556
382.11	3.581
382.46	3.628
382.82	3.632
383.17	3.661
383.52	3.700
383.88	3.805
384.23	3.815
384.58	3.823
384.94	3.883
385.29	3.909
385.64	3.894
385.99	3.879
386.35	3.836
386.70	3.915
387.05	3.942
387.41	3.963
387.76	3.980
388.11	3.997
388.47	4.026
388.82	4.018
389.17	4.055
389.52	4.075
389.88	4.066
390.23	4.169
390.58	4.169
390.93	4.214
391.29	4.229
391.64	4.229
391.99	4.238
392.34	4.274
392.70	4.329
393.05	4.363
393.40	4.402
393.75	4.497
394.11	4.512
394.46	4.560
394.81	4.587
395.16	4.623
395.52	4.689
395.87	4.702
396.22	4.705
396.57	4.740
396.92	4.727
397.28	4.755
397.63	4.800
397.98	4.837
398.33	4.850
398.68	4.860
399.04	4.898
399.39	4.937
399.74	4.976
400.09	5.025
400.44	5.070
400.80	5.091
401.15	5.120
401.50	5.155
401.85	5.199
402.20	5.258
402.55	5.308
402.90	5.340
403.26	5.380
403.61	5.450
403.96	5.534
404.31	5.537
404.66	5.613
405.01	5.678
405.36	5.710
405.72	5.776
406.07	5.835
406.42	5.920
406.77	5.986
407.12	5.999
407.47	6.057
407.82	6.082
408.17	6.133
408.53	6.207
408.88	6.246
409.23	6.289
409.58	6.297
409.93	6.333
410.28	6.334
410.63	6.373
410.98	6.447
411.33	6.516
411.68	6.565
412.03	6.668
412.38	6.693
412.73	6.756
413.09	6.823
413.44	6.868
413.79	6.914
414.14	6.981
414.49	7.040
414.84	7.086
415.19	7.116
415.54	7.174
415.89	7.178
416.24	7.262
416.59	7.277
416.94	7.330
417.29	7.375
417.64	7.434
417.99	7.493
418.34	7.541
418.69	7.581
419.04	7.618
419.39	7.659
419.74	7.704
420.09	7.736
420.44	7.810
420.79	7.841
421.14	7.884
421.49	7.920
421.84	7.923
422.19	7.958
422.54	7.991
422.89	8.032
423.24	8.074
423.59	8.144
423.94	8.162
424.29	8.195
424.64	8.240
424.99	8.284
425.34	8.327
425.68	8.408
426.03	8.452
426.38	8.521
426.73	8.559
427.08	8.604
427.43	8.638
427.78	8.680
428.13	8.722
428.48	8.760
428.83	8.825
429.18	8.874
429.53	8.929
429.87	8.974
430.22	8.970
430.57	9.005
430.92	9.011
431.27	9.022
431.62	9.080
431.97	9.087
432.32	9.125
432.67	9.142
433.01	9.173
433.36	9.167
433.71	9.180
434.06	9.238
434.41	9.286
434.76	9.344
435.11	9.413
435.45	9.451
435.80	9.523
436.15	9.560
436.50	9.592
436.85	9.617
437.20	9.661
437.54	9.707
437.89	9.735
438.24	9.746
438.59	9.763
438.94	9.756
439.29	9.764
439.63	9.776
439.98	9.792
440.33	9.820
440.68	9.836
441.03	9.872
441.37	9.909
441.72	9.911
442.07	9.954
442.42	9.973
442.76	10.011
443.11	10.039
443.46	10.064
443.81	10.092
444.16	10.112
444.50	10.125
444.85	10.136
445.20	10.140
445.55	10.144
445.89	10.155
446.24	10.169
446.59	10.177
446.94	10.176
447.28	10.171
447.63	10.164
447.98	10.164
448.32	10.178
448.67	10.185
449.02	10.194
449.37	10.212
449.71	10.225
450.06	10.256
450.41	10.304
450.75	10.340
451.10	10.360
451.45	10.382
451.79	10.394
452.14	10.418
452.49	10.424
452.84	10.446
453.18	10.486
453.53	10.491
453.88	10.535
454.22	10.530
454.57	10.565
454.92	10.605
455.26	10.654
455.61	10.698
455.95	10.725
456.30	10.772
456.65	10.788
456.99	10.811
457.34	10.847
457.69	10.837
458.03	10.854
458.38	10.854
458.73	10.902
459.07	10.904
459.42	10.927
459.76	10.957
460.11	10.966
460.46	10.997
460.80	11.056
461.15	11.097
461.49	11.148
461.84	11.193
462.19	11.271
462.53	11.267
462.88	11.326
463.22	11.349
463.57	11.376
463.91	11.434
464.26	11.478
464.61	11.500
464.95	11.538
465.30	11.549
465.64	11.576
465.99	11.604
466.33	11.638
466.68	11.671
467.02	11.714
467.37	11.728
467.71	11.737
468.06	11.779
468.41	11.795
468.75	11.831
469.10	11.918
469.44	11.946
469.79	11.963
470.13	12.006
470.48	12.012
470.82	12.022
471.17	12.064
471.51	12.094
471.86	12.098
472.20	12.113
472.55	12.122
472.89	12.111
473.23	12.144
473.58	12.189
473.92	12.194
474.27	12.244
474.61	12.289
474.96	12.289
475.30	12.297
475.65	12.297
475.99	12.320
476.34	12.330
476.68	12.341
477.02	12.351
477.37	12.326
477.71	12.343
478.06	12.371
478.40	12.409
478.75	12.493
479.09	12.602
479.43	12.703
479.78	12.805
480.12	12.907
480.47	12.993
480.81	13.091
481.15	13.170
481.50	13.256
481.84	13.332
482.19	13.404
482.53	13.474
482.87	13.511
483.22	13.544
483.56	13.571
483.90	13.585
484.25	13.591
484.59	13.589
484.94	13.595
485.28	13.582
485.62	13.565
485.97	13.539
486.31	13.523
486.65	13.528
487.00	13.531
487.34	13.540
487.68	13.557
488.03	13.593
488.37	13.620
488.71	13.656
489.06	13.689
489.40	13.724
489.74	13.773
490.09	13.798
490.43	13.821
490.77	13.855
491.11	13.887
491.46	13.923
491.80	13.960
492.14	13.977
492.49	14.012
492.83	14.065
493.17	14.108
493.51	14.162
493.86	14.229
494.20	14.314
494.54	14.399
494.88	14.492
495.23	14.569
495.57	14.642
495.91	14.747
496.25	14.826
496.60	14.898
496.94	14.979
497.28	15.063
497.62	15.156
497.97	15.222
498.31	15.316
498.65	15.410
498.99	15.501
499.33	15.583
499.68	15.663
500.02	15.771
500.36	15.871
500.70	15.989
501.04	16.082
501.39	16.186
501.73	16.320
502.07	16.449
502.41	16.545
502.75	16.670
503.09	16.807
503.44	16.955
503.78	17.061
504.12	17.204
504.46	17.333
504.80	17.472
505.14	17.577
505.49	17.696
505.83	17.803
506.17	17.914
506.51	18.022
506.85	18.138
507.19	18.217
507.53	18.324
507.87	18.409
508.22	18.496
508.56	18.601
508.90	18.726
509.24	18.830
509.58	18.921
509.92	19.032
510.26	19.125
510.60	19.194
510.94	19.323
511.28	19.422
511.63	19.511
511.97	19.625
512.31	19.718
512.65	19.807
512.99	19.903
513.33	20.012
513.67	20.129
514.01	20.265
514.35	20.402
514.69	20.528
515.03	20.649
515.37	20.771
515.71	20.868
516.05	20.984
516.39	21.087
516.73	21.175
517.07	21.264
517.41	21.340
517.75	21.382
518.09	21.453
518.43	21.534
518.77	21.591
519.11	21.688
519.45	21.769
519.79	21.835
520.13	21.913
520.47	22.008
520.81	22.095
521.15	22.176
521.49	22.317
521.83	22.434
522.17	22.511
522.51	22.640
522.85	22.733
523.19	22.885
523.53	23.063
523.87	23.244
524.21	23.432
524.55	23.646
524.89	23.843
525.23	24.041
525.57	24.212
525.91	24.368
526.25	24.513
526.58	24.657
526.92	24.756
527.26	24.850
527.60	24.932
527.94	24.998
528.28	25.036
528.62	25.077
528.96	25.087
529.30	25.106
529.64	25.129
529.97	25.152
530.31	25.158
530.65	25.196
530.99	25.212
531.33	25.255
531.67	25.300
532.01	25.351
532.35	25.391
532.68	25.435
533.02	25.473
533.36	25.524
533.70	25.536
534.04	25.586
534.38	25.618
534.71	25.675
535.05	25.726
535.39	25.756
535.73	25.804
536.07	25.879
536.41	25.980
536.74	26.097
537.08	26.188
537.42	26.328
537.76	26.444
538.10	26.557
538.43	26.695
538.77	26.797
539.11	26.923
539.45	27.052
539.79	27.151
540.12	27.232
540.46	27.279
540.80	27.336
541.14	27.370
541.47	27.400
541.81	27.458
542.15	27.445
542.49	27.470
542.82	27.505
543.16	27.505
543.50	27.520
543.84	27.532
544.17	27.585
544.51	27.623
544.85	27.677
545.18	27.724
545.52	27.771
545.86	27.880
546.20	27.923
546.53	27.962
546.87	28.022
547.21	28.069
547.54	28.116
547.88	28.173
548.22	28.242
548.55	28.289
548.89	28.406
549.23	28.463
549.56	28.532
549.90	28.603
550.24	28.665
550.57	28.745
550.91	28.802
551.25	28.897
551.58	28.946
551.92	28.996
552.26	29.066
552.59	29.108
552.93	29.165
553.27	29.179
553.60	29.270
553.94	29.328
554.27	29.359
554.61	29.439
554.95	29.477
555.28	29.533
555.62	29.635
555.95	29.730
556.29	29.773
556.63	29.823
556.96	29.903
557.30	29.963
557.63	30.056
557.97	30.140
558.31	30.210
558.64	30.268
558.98	30.349
559.31	30.368
559.65	30.405
559.98	30.456
560.32	30.493
560.65	30.569
560.99	30.615
561.33	30.620
561.66	30.672
562.00	30.664
562.33	30.715
562.67	30.782
563.00	30.858
563.34	30.872
563.67	30.947
564.01	31.005
564.34	31.019
564.68	31.100
565.01	31.203
565.35	31.226
565.68	31.348
566.02	31.421
566.35	31.425
566.69	31.438
567.02	31.512
567.36	31.580
567.69	31.691
568.03	31.766
568.36	31.765
568.69	31.784
569.03	31.832
569.36	31.837
569.70	31.847
570.03	31.911
570.37	31.980
570.70	32.039
571.04	32.051
571.37	32.051
571.70	32.066
572.04	32.123
572.37	32.148
572.71	32.196
573.04	32.258
573.37	32.303
573.71	32.342
574.04	32.371
574.38	32.412
574.71	32.441
575.04	32.471
575.38	32.517
575.71	32.551
576.05	32.588
576.38	32.641
576.71	32.692
577.05	32.738
577.38	32.765
577.71	32.831
578.05	32.845
578.38	32.870
578.71	32.911
579.05	32.952
579.38	32.988
579.71	33.024
580.05	33.038
580.38	33.038
580.71	33.060
581.05	33.139
581.38	33.208
581.71	33.275
582.05	33.333
582.38	33.332
582.71	33.383
583.04	33.431
583.38	33.485
583.71	33.525
584.04	33.555
584.38	33.599
584.71	33.592
585.04	33.585
585.37	33.626
585.71	33.685
586.04	33.750
586.37	33.761
586.70	33.774
587.04	33.836
587.37	33.869
587.70	33.930
588.03	33.958
588.37	34.017
588.70	34.027
589.03	34.056
589.36	34.074
589.69	34.131
590.03	34.137
590.36	34.196
590.69	34.228
591.02	34.264
591.35	34.264
591.69	34.306
592.02	34.282
592.35	34.316
592.68	34.314
593.01	34.324
593.35	34.273
593.68	34.300
594.01	34.306
594.34	34.306
594.67	34.328
595.00	34.387
595.34	34.391
595.67	34.418
596.00	34.452
596.33	34.470
596.66	34.457
596.99	34.503
597.32	34.596
597.65	34.619
597.99	34.629
598.32	34.659
598.65	34.631
598.98	34.690
599.31	34.725
599.64	34.717
599.97	34.737
600.30	34.770
600.63	34.804
600.96	34.793
601.30	34.800
601.63	34.796
601.96	34.783
602.29	34.808
602.62	34.818
602.95	34.844
603.28	34.877
603.61	34.873
603.94	34.916
604.27	34.935
604.60	34.935
604.93	34.974
605.26	35.031
605.59	35.020
605.92	35.045
606.25	35.052
606.58	35.038
606.91	35.030
607.24	35.068
607.57	35.093
607.90	35.095
608.23	35.088
608.56	35.122
608.89	35.131
609.22	35.204
609.55	35.236
609.88	35.242
610.21	35.291
610.54	35.327
610.87	35.347
611.20	35.368
611.53	35.419
611.86	35.438
612.19	35.386
612.52	35.373
612.85	35.373
613.18	35.340
613.51	35.383
613.84	35.386
614.17	35.407
614.49	35.429
614.82	35.393
615.15	35.416
615.48	35.462
615.81	35.513
616.14	35.559
616.47	35.554
616.80	35.555
617.13	35.585
617.46	35.614
617.78	35.643
618.11	35.611
618.44	35.615
618.77	35.573
619.10	35.617
619.43	35.613
619.76	35.633
620.09	35.639
620.41	35.674
620.74	35.665
621.07	35.635
621.40	35.626
621.73	35.628
622.06	35.632
622.38	35.618
622.71	35.584
623.04	35.604
623.37	35.586
623.70	35.587
624.02	35.623
624.35	35.609
624.68	35.619
625.01	35.588
625.34	35.577
625.66	35.548
625.99	35.585
626.32	35.566
626.65	35.566
626.98	35.576
627.30	35.580
627.63	35.575
627.96	35.559
628.29	35.567
628.61	35.582
628.94	35.635
629.27	35.666
629.60	35.670
629.92	35.638
630.25	35.641
630.58	35.588
630.91	35.616
631.23	35.603
631.56	35.603
631.89	35.590
632.21	35.571
632.54	35.547
632.87	35.502
633.19	35.486
633.52	35.536
633.85	35.503
634.18	35.561
634.50	35.548
634.83	35.531
635.16	35.540
635.48	35.523
635.81	35.535
636.14	35.524
636.46	35.562
636.79	35.600
637.11	35.607
637.44	35.589
637.77	35.533
638.09	35.545
638.42	35.470
638.75	35.367
639.07	35.414
639.40	35.391
639.73	35.393
640.05	35.390
640.38	35.295
640.70	35.252
641.03	35.225
641.36	35.235
641.68	35.196
642.01	35.190
642.33	35.281
642.66	35.215
642.98	35.193
643.31	35.178
643.64	35.188
643.96	35.170
644.29	35.135
644.61	35.152
644.94	35.105
645.26	35.098
645.59	35.105
645.91	35.095
646.24	35.115
646.56	35.106
646.89	35.077
647.22	35.013
647.54	35.073
647.87	35.015
648.19	35.003
648.52	34.961
648.84	34.946
649.17	34.941
649.49	34.883
649.82	34.831
650.14	34.822
650.47	34.846
650.79	34.861
651.11	34.792
651.44	34.879
651.76	34.829
652.09	34.812
652.41	34.775
652.74	34.787
653.06	34.783
653.39	34.718
653.71	34.691
654.04	34.663
654.36	34.659
654.68	34.646
655.01	34.536
655.33	34.548
655.66	34.533
655.98	34.544
656.30	34.482
656.63	34.425
656.95	34.456
657.28	34.437
657.60	34.407
657.92	34.367
658.25	34.296
658.57	34.355
658.90	34.297
659.22	34.283
659.54	34.171
659.87	34.180
660.19	34.146
660.51	34.110
660.84	34.081
661.16	33.959
661.48	33.908
661.81	33.874
662.13	33.734
662.45	33.719
662.78	33.690
663.10	33.713
663.42	33.716
663.75	33.735
664.07	33.708
664.39	33.707
664.72	33.748
665.04	33.693
665.36	33.756
665.69	33.714
666.01	33.688
666.33	33.633
666.65	33.540
666.98	33.425
667.30	33.330
667.62	33.295
667.94	33.248
668.27	33.247
668.59	33.239
668.91	33.168
669.23	33.134
669.56	33.086
669.88	33.113
670.20	33.079
670.52	33.077
670.85	33.063
671.17	33.027
671.49	32.927
671.81	32.855
672.13	32.835
672.46	32.740
672.78	32.815
673.10	32.736
673.42	32.573
673.74	32.551
674.07	32.468
674.39	32.545
674.71	32.516
675.03	32.513
675.35	32.437
675.67	32.457
676.00	32.490
676.32	32.457
676.64	32.492
676.96	32.596
677.28	32.568
677.60	32.527
677.92	32.433
678.25	32.423
678.57	32.406
678.89	32.443
679.21	32.398
679.53	32.419
679.85	32.346
680.17	32.317
680.49	32.246
680.81	32.255
681.13	32.229
681.46	32.190
681.78	32.120
682.10	32.119
682.42	32.088
682.74	32.124
683.06	32.036
683.38	32.129
683.70	32.109
684.02	32.058
684.34	32.062
684.66	32.176
684.98	32.202
685.30	32.275
685.62	32.263
685.94	32.249
686.26	32.227
686.58	32.183
686.90	32.041
687.22	32.048
687.54	32.099
687.86	32.060
688.18	31.972
688.50	31.891
688.82	31.784
689.14	31.783
689.46	31.745
689.78	31.632
690.10	31.697
690.42	31.754
690.74	31.706
691.06	31.650
691.38	31.617
691.70	31.617
692.02	31.645
692.34	31.710
692.66	31.679
692.98	31.612
693.30	31.539
693.62	31.451
693.94	31.332
694.26	31.229
694.57	31.257
694.89	31.263
695.21	31.228
695.53	31.247
695.85	31.150
696.17	31.075
696.49	31.031
696.81	31.052
697.13	31.052
697.44	31.019
697.76	31.037
698.08	30.945
698.40	30.873
698.72	30.807
699.04	30.684
699.36	30.671
699.67	30.636
699.99	30.557
700.31	30.486
700.63	30.408
700.95	30.344
701.27	30.296
701.58	30.217
701.90	30.167
702.22	30.134
702.54	30.110
702.86	30.018
703.17	29.844
703.49	29.760
703.81	29.667
704.13	29.632
704.45	29.584
704.76	29.441
705.08	29.355
705.40	29.251
705.72	29.162
706.03	29.082
706.35	28.977
706.67	29.000
706.99	29.093
707.30	29.048
707.62	29.012
707.94	29.036
708.26	29.030
708.57	29.022
708.89	29.044
709.21	29.047
709.53	29.015
709.84	29.021
710.16	29.012
710.48	28.959
710.79	28.881
711.11	28.839
711.43	28.760
711.74	28.792
712.06	28.869
712.38	28.907
712.69	28.846
713.01	28.948
713.33	28.947
713.64	28.982
713.96	29.022
714.28	29.069
714.59	29.100
714.91	29.128
715.23	29.178
715.54	29.123
715.86	29.029
716.17	29.097
716.49	28.955
716.81	28.937
717.12	28.925
717.44	28.846
717.76	28.827
718.07	28.793
718.39	28.764
718.70	28.689
719.02	28.524
719.33	28.435
719.65	28.308
719.97	28.135
720.28	27.980
720.60	27.809
720.91	27.737
721.23	27.658
721.54	27.487
721.86	27.356
722.17	27.214
722.49	27.280
722.81	27.235
723.12	27.154
723.44	27.284
723.75	27.347
724.07	27.406
724.38	27.492
724.70	27.434
725.01	27.490
725.33	27.551
725.64	27.541
725.96	27.447
726.27	27.489
726.59	27.338
726.90	27.239
727.22	27.171
727.53	27.104
727.84	26.911
728.16	26.964
728.47	26.931
728.79	26.865
729.10	26.808
729.42	26.740
729.73	26.628
730.05	26.838
730.36	26.914
730.67	26.945
730.99	26.880
731.30	26.852
731.62	26.665
731.93	26.493
732.24	26.325
732.56	26.193
732.87	26.066
733.19	26.017
733.50	25.867
733.81	25.588
734.13	25.376
734.44	25.222
734.76	25.172
735.07	25.115
735.38	25.097
735.70	25.177
736.01	25.239
736.32	25.321
736.64	25.343
736.95	25.189
737.26	25.203
737.58	25.263
737.89	25.305
738.20	25.180
738.52	25.260
738.83	25.192
739.14	25.027
739.45	24.829
739.77	24.589
740.08	24.364
740.39	24.289
740.71	24.340
741.02	24.106
741.33	23.939
741.64	23.927
741.96	23.874
742.27	23.736
742.58	23.646
742.90	23.565
743.21	23.593
743.52	23.608
743.83	23.523
744.14	23.290
744.46	23.291
744.77	23.329
745.08	23.265
745.39	22.979
745.71	22.924
746.02	22.978
746.33	23.038
746.64	23.136
746.95	22.986
747.27	23.058
747.58	23.043
747.89	22.993
748.20	22.826
748.51	22.878
748.82	22.884
749.14	22.795
749.45	22.566
749.76	22.609
750.07	22.539
750.38	22.634
750.69	22.637
751.01	22.804
751.32	22.899
751.63	22.959
751.94	22.715
752.25	22.662
752.56	22.770
752.87	22.839
753.18	22.650
753.49	22.626
753.81	22.691
754.12	22.584
754.43	22.445
754.74	22.602
755.05	22.673
755.36	23.160
755.67	23.499
755.98	23.716
756.29	23.984
756.60	24.083
756.91	24.332
757.22	24.380
757.53	24.670
757.84	24.833
758.15	24.911
758.46	25.158
758.77	25.148
759.09	25.139
759.40	25.258
759.71	25.329
760.02	25.602
760.33	25.552
760.64	25.656
760.95	25.675
761.26	25.713
761.57	25.742
761.88	25.695
762.18	25.502
762.49	25.539
762.80	25.472
763.11	25.407
763.42	25.228
763.73	25.226
764.04	25.109
764.35	24.889
764.66	24.695
764.97	24.429
765.28	24.077
765.59	24.050
765.90	23.682
766.21	23.358
766.52	22.915
766.83	22.484
767.14	22.190
767.44	21.838
767.75	21.438
768.06	21.165
768.37	20.782
768.68	20.625
768.99	20.323
769.30	20.168
769.61	20.019
769.91	19.857
770.22	19.847
770.53	19.587
770.84	19.544
771.15	19.748
771.46	19.442
771.77	19.657
772.07	19.716
772.38	19.583
772.69	19.863
773.00	19.928
773.31	19.834
773.61	19.905
773.92	19.780
774.23	19.571
774.54	19.607
774.85	20.081
775.15	19.767
775.46	19.675
775.77	19.872
776.08	19.683
776.39	19.400
776.69	19.560
777.00	19.518
777.31	19.934
777.62	20.059
777.92	20.028
778.23	19.662
778.54	19.739
778.85	19.795
779.15	19.397
779.46	18.944
779.77	18.898
780.07	19.150
780.38	19.210
780.69	18.909
781.00	18.790
781.30	18.811
781.61	18.890
781.92	19.024
782.22	18.966
782.53	19.069
782.84	19.499
783.14	19.717
783.45	19.357
783.76	19.378
784.06	19.446
784.37	19.552
784.68	19.607
784.98	19.845
785.29	20.003
785.60	20.352
785.90	20.666
786.21	20.402
786.51	20.536
786.82	20.807
787.13	20.872
787.43	20.981
787.74	21.236
788.04	21.085
788.35	21.097
788.66	21.187
788.96	21.067
789.27	20.950
789.57	21.148
789.88	21.048
790.19	21.042
790.49	20.808
790.80	20.859
791.10	20.842
791.41	20.612
791.71	20.343
792.02	20.218
792.32	20.214
792.63	20.180
792.93	20.334
793.24	20.615
793.54	20.347
793.85	20.752
794.15	20.666
794.46	20.905
794.76	21.119
795.07	21.407
795.37	21.323
795.68	21.222
795.98	21.530
796.29	21.526
796.59	21.138
796.90	21.055
797.20	21.099
797.51	21.058
797.81	20.940
798.12	21.134
798.42	21.095
798.72	20.824
799.03	21.093
799.33	21.099
799.64	21.256
799.94	21.287
800.25	21.620
800.55	21.466
800.85	21.424
801.16	21.314
801.46	21.395
801.77	21.338
802.07	21.616
802.37	21.854
802.68	21.654
802.98	21.705
803.28	21.958
803.59	22.140
803.89	22.097
804.20	21.869
804.50	21.501
804.80	21.498
805.11	21.299
805.41	21.355
805.71	20.765
806.02	20.499
806.32	20.241
806.62	20.183
806.93	20.229
807.23	20.452
807.53	20.711
807.83	20.989
808.14	20.717
808.44	21.229
808.74	21.541
809.05	21.476
809.35	21.635
809.65	21.568
809.95	21.643
810.26	20.972
810.56	20.934
810.86	21.178
811.16	20.983
811.47	21.251
811.77	21.460
812.07	21.209
812.37	21.696
812.68	21.777
812.98	21.834
813.28	22.144
813.58	22.740
813.88	22.689
814.19	22.806
814.49	23.171
814.79	23.236
815.09	22.559
815.39	22.733
815.70	22.520
816.00	22.534
816.30	22.581
816.60	22.548
816.90	22.410
817.20	22.864
817.50	22.960
817.81	23.174
818.11	23.300
818.41	23.657
818.71	23.801
819.01	23.998
819.31	24.166
819.61	24.049
819.92	24.124
820.22	24.291
820.52	24.259
820.82	24.334
821.12	24.339
821.42	24.361
821.72	24.405
822.02	24.445
822.32	24.420
822.62	24.418
822.92	24.505
823.22	24.573
823.52	24.577
823.83	24.552
824.13	24.473
824.43	24.492
824.73	24.493
825.03	24.433
825.33	24.363
825.63	24.342
825.93	24.240
826.23	24.238
826.53	24.065
826.83	23.961
827.13	23.927
827.43	23.808
827.73	23.662
828.03	23.545
828.33	23.477
828.63	23.194
828.93	22.970
829.23	23.149
829.53	22.979
829.83	22.890
830.13	23.281
830.42	23.313
830.72	23.423
831.02	23.409
831.32	23.227
831.62	23.202
831.92	23.542
832.22	23.701
832.52	23.590
832.82	23.895
833.12	23.830
833.42	23.428
833.72	23.115
834.01	23.057
834.31	23.196
834.61	23.227
834.91	23.021
835.21	22.813
835.51	22.975
835.81	22.606
836.11	22.115
836.40	21.745
836.70	21.522
837.00	21.997
837.30	21.966
837.60	21.586
837.90	21.572
838.19	21.458
838.49	21.324
838.79	21.481
839.09	22.223
839.39	22.057
839.68	21.578
839.98	21.570
840.28	21.089
840.58	21.251
840.88	21.264
841.17	21.378
841.47	22.084
841.77	21.823
842.07	20.494
842.36	18.866
842.66	18.916
842.96	19.843
843.26	19.688
843.55	19.778
843.85	19.486
844.15	18.771
844.45	19.295
844.74	17.885
845.04	17.189
845.34	18.311
845.63	17.859
845.93	18.523
846.23	18.251
846.53	17.706
846.82	16.880
847.12	15.080
847.42	16.340
847.71	14.977
848.01	15.048
848.31	15.105
848.60	14.486
848.90	16.279
849.19	15.791
849.49	15.590
849.79	16.147
850.08	17.656
850.38	18.301
850.68	16.663
850.97	15.350
851.27	15.721
851.56	16.424
851.86	15.590
852.16	16.003
852.45	15.677
852.75	15.344
853.04	14.537
853.34	14.728
853.64	16.604
853.93	17.109
854.23	21.502
854.52	21.063
854.82	19.643
855.11	20.659
855.41	18.667
855.70	18.227
856.00	19.371
856.30	19.768
856.59	18.501
856.89	18.066
857.18	17.854
857.48	16.108
857.77	16.752
858.07	18.713
858.36	19.951
858.66	22.236
858.95	23.430
859.25	20.713
859.54	20.138
859.84	21.331
860.13	19.238
860.42	20.436
860.72	20.333
861.01	21.189
861.31	21.000
861.60	18.104
861.90	17.308
862.19	16.838
862.49	19.481
862.78	20.246
863.07	20.707
863.37	21.633
863.66	20.292
863.96	18.787
864.25	17.121
864.54	16.602
864.84	19.076
865.13	18.452
865.43	18.927
865.72	9.461
866.01	13.914
866.31	30.882
866.60	17.521
866.89	24.592
>>>>>End Spectral Data<<<<<
