OOIBase32 Version 2.0.0.6 Data File
++++++++++++++++++++++++++++++++++++
Date: 01-20-2012, 22:05:07
User: Valued Ocean Optics Customer
Spectrometer Serial Number: USB2E2917
Spectrometer Channel: Master
Integration Time (msec): 4
Spectra Averaged: 10
Boxcar Smoothing: 5
Correct for Electrical Dark: Enabled
Time Normalized: Disabled
Dual-beam Reference: Disabled
Reference Channel: Master
Temperature: Not acquired
Spectrometer Type: S2000
ADC Type: USB2000
Number of Pixels in File: 2048
Graph Title: 
>>>>>Begin Spectral Data<<<<<
180.30	0.000
180.67	0.000
181.03	37.583
181.40	-14.508
181.77	429.118
182.14	2013.867
182.51	104.213
182.88	-284.253
183.25	149.245
183.62	-15.324
183.99	-305.069
184.36	-61.878
184.73	71.778
185.10	-27.099
185.46	-76.733
185.83	-20.892
186.20	366.886
186.57	87.178
186.94	-133.240
187.31	-39.688
187.68	-1.029
188.05	40.504
188.42	45.312
188.78	35.013
189.15	21.156
189.52	22.726
189.89	12.634
190.26	0.596
190.63	15.914
191.00	27.267
191.37	19.702
191.73	36.892
192.10	29.628
192.47	30.791
192.84	33.988
193.21	38.931
193.58	37.951
193.94	48.058
194.31	62.674
194.68	66.606
195.05	57.474
195.42	61.029
195.79	56.572
196.15	55.517
196.52	55.685
196.89	41.154
197.26	37.099
197.63	28.813
198.00	22.654
198.36	14.112
198.73	15.816
199.10	20.835
199.47	20.860
199.84	12.664
200.20	12.084
200.57	10.562
200.94	23.187
201.31	27.671
201.68	32.369
202.04	33.150
202.41	34.397
202.78	34.075
203.15	33.331
203.51	34.934
203.88	32.343
204.25	28.972
204.62	28.887
204.98	26.902
205.35	22.958
205.72	28.084
206.09	30.748
206.46	29.815
206.82	28.653
207.19	19.819
207.56	11.498
207.92	6.624
208.29	14.537
208.66	12.797
209.03	10.415
209.39	16.307
209.76	18.252
210.13	13.709
210.50	12.877
210.86	16.386
211.23	24.267
211.60	36.344
211.96	46.664
212.33	43.205
212.70	40.914
213.07	53.111
213.43	42.670
213.80	32.722
214.17	41.772
214.53	44.289
214.90	44.442
215.27	40.795
215.63	33.815
216.00	31.193
216.37	31.003
216.74	32.598
217.10	26.959
217.47	25.657
217.84	27.735
218.20	16.672
218.57	10.255
218.94	12.278
219.30	16.815
219.67	20.291
220.04	16.801
220.40	17.822
220.77	21.405
221.13	24.457
221.50	22.360
221.87	23.326
222.23	25.865
222.60	24.222
222.97	20.998
223.33	16.442
223.70	11.741
224.07	11.360
224.43	8.621
224.80	6.975
225.16	5.344
225.53	6.517
225.90	5.600
226.26	4.861
226.63	4.681
226.99	4.758
227.36	4.679
227.73	5.268
228.09	5.397
228.46	5.903
228.82	5.465
229.19	5.095
229.56	4.278
229.92	4.524
230.29	4.201
230.65	5.212
231.02	5.429
231.38	5.241
231.75	5.023
232.12	4.832
232.48	5.049
232.85	5.251
233.21	5.669
233.58	5.819
233.94	5.327
234.31	4.923
234.68	4.650
235.04	4.320
235.41	4.367
235.77	3.995
236.14	3.846
236.50	4.071
236.87	4.462
237.23	4.414
237.60	4.881
237.96	4.441
238.33	5.155
238.69	5.149
239.06	4.764
239.42	4.554
239.79	4.470
240.15	4.390
240.52	4.337
240.88	4.541
241.25	4.706
241.61	4.257
241.98	4.413
242.34	4.107
242.71	4.028
243.07	4.164
243.44	4.093
243.80	4.203
244.17	4.444
244.53	4.344
244.90	4.148
245.26	4.038
245.63	4.250
245.99	4.234
246.36	4.453
246.72	4.463
247.09	4.661
247.45	4.924
247.81	4.913
248.18	4.697
248.54	4.774
248.91	4.922
249.27	5.159
249.64	5.072
250.00	5.087
250.36	4.998
250.73	4.718
251.09	4.149
251.46	4.114
251.82	4.034
252.19	3.898
252.55	3.918
252.91	3.888
253.28	3.696
253.64	3.886
254.01	4.063
254.37	3.961
254.73	4.055
255.10	4.148
255.46	3.944
255.83	4.105
256.19	4.184
256.55	3.872
256.92	3.899
257.28	3.875
257.65	3.758
258.01	3.704
258.37	3.699
258.74	3.811
259.10	4.026
259.46	4.126
259.83	4.019
260.19	4.097
260.55	4.071
260.92	4.121
261.28	4.208
261.64	4.398
262.01	4.398
262.37	4.428
262.73	4.351
263.10	4.091
263.46	4.091
263.82	4.307
264.19	4.315
264.55	4.461
264.91	4.151
265.28	4.115
265.64	4.055
266.00	4.299
266.37	4.312
266.73	4.284
267.09	4.351
267.46	4.193
267.82	4.175
268.18	4.064
268.54	4.078
268.91	4.219
269.27	4.151
269.63	3.982
270.00	3.786
270.36	3.874
270.72	3.825
271.08	3.868
271.45	3.923
271.81	3.781
272.17	3.889
272.53	3.964
272.90	3.997
273.26	3.988
273.62	4.150
273.98	4.258
274.35	4.018
274.71	3.936
275.07	3.873
275.43	3.906
275.80	4.159
276.16	4.004
276.52	3.985
276.88	3.876
277.25	3.807
277.61	3.717
277.97	3.652
278.33	3.746
278.69	3.914
279.06	3.723
279.42	3.678
279.78	3.454
280.14	3.555
280.50	3.513
280.87	3.559
281.23	3.494
281.59	3.563
281.95	3.473
282.31	3.473
282.68	3.428
283.04	3.490
283.40	3.466
283.76	3.553
284.12	3.501
284.48	3.539
284.85	3.514
285.21	3.618
285.57	3.545
285.93	3.643
286.29	3.670
286.65	3.802
287.02	3.847
287.38	3.847
287.74	3.874
288.10	3.882
288.46	3.953
288.82	3.925
289.18	4.005
289.54	4.056
289.91	3.931
290.27	3.871
290.63	3.779
290.99	3.922
291.35	3.944
291.71	3.959
292.07	3.966
292.43	3.771
292.79	3.918
293.16	3.773
293.52	3.890
293.88	3.957
294.24	4.028
294.60	3.846
294.96	3.738
295.32	3.629
295.68	3.598
296.04	3.573
296.40	3.632
296.76	3.641
297.12	3.780
297.49	3.711
297.85	3.778
298.21	3.675
298.57	3.784
298.93	3.709
299.29	3.860
299.65	3.883
300.01	3.928
300.37	3.871
300.73	3.735
301.09	3.673
301.45	3.596
301.81	3.653
302.17	3.683
302.53	3.694
302.89	3.751
303.25	3.724
303.61	3.726
303.97	3.668
304.33	3.727
304.69	3.679
305.05	3.742
305.41	3.718
305.77	3.694
306.13	3.725
306.49	3.793
306.85	3.770
307.21	3.753
307.57	3.795
307.93	3.876
308.29	3.842
308.65	3.909
309.01	3.790
309.37	3.878
309.73	3.839
310.09	3.927
310.45	3.981
310.81	4.016
311.17	4.079
311.53	4.014
311.89	3.986
312.25	4.147
312.61	4.183
312.96	4.207
313.32	4.144
313.68	4.138
314.04	4.243
314.40	4.150
314.76	4.197
315.12	4.122
315.48	4.191
315.84	4.297
316.20	4.163
316.56	4.092
316.92	4.123
317.27	4.175
317.63	4.169
317.99	4.018
318.35	4.050
318.71	4.078
319.07	4.137
319.43	4.100
319.79	3.952
320.15	3.900
320.50	3.984
320.86	4.041
321.22	4.059
321.58	4.064
321.94	4.041
322.30	3.996
322.66	4.051
323.01	4.043
323.37	4.009
323.73	4.081
324.09	4.108
324.45	4.196
324.81	4.189
325.17	4.210
325.52	4.243
325.88	4.318
326.24	4.351
326.60	4.383
326.96	4.422
327.31	4.501
327.67	4.489
328.03	4.604
328.39	4.614
328.75	4.729
329.11	4.798
329.46	4.832
329.82	4.823
330.18	4.858
330.54	4.795
330.90	4.830
331.25	4.919
331.61	4.877
331.97	4.883
332.33	4.808
332.68	4.725
333.04	4.677
333.40	4.641
333.76	4.761
334.11	4.790
334.47	4.796
334.83	4.693
335.19	4.593
335.54	4.719
335.90	4.719
336.26	4.849
336.62	4.872
336.97	4.944
337.33	4.988
337.69	4.891
338.05	4.949
338.40	4.927
338.76	4.999
339.12	4.963
339.48	4.964
339.83	4.902
340.19	4.797
340.55	4.798
340.90	4.697
341.26	4.678
341.62	4.704
341.97	4.635
342.33	4.733
342.69	4.770
343.04	4.822
343.40	4.780
343.76	4.819
344.12	4.836
344.47	4.844
344.83	4.887
345.19	4.896
345.54	4.886
345.90	4.897
346.26	4.849
346.61	4.806
346.97	4.801
347.32	4.871
347.68	4.901
348.04	4.919
348.39	4.950
348.75	4.966
349.11	5.003
349.46	4.976
349.82	4.995
350.18	5.038
350.53	5.140
350.89	5.188
351.24	5.159
351.60	5.150
351.96	5.184
352.31	5.171
352.67	5.234
353.02	5.204
353.38	5.210
353.74	5.232
354.09	5.191
354.45	5.069
354.80	5.022
355.16	5.032
355.52	5.010
355.87	4.938
356.23	4.966
356.58	4.882
356.94	4.923
357.29	4.953
357.65	4.942
358.00	4.981
358.36	5.058
358.72	5.032
359.07	5.029
359.43	5.098
359.78	5.085
360.14	5.056
360.49	5.090
360.85	5.080
361.20	5.081
361.56	5.110
361.91	5.071
362.27	5.023
362.62	5.075
362.98	5.090
363.33	5.044
363.69	5.101
364.04	5.107
364.40	5.178
364.75	5.205
365.11	5.250
365.46	5.269
365.82	5.302
366.17	5.362
366.53	5.408
366.88	5.410
367.24	5.438
367.59	5.501
367.95	5.549
368.30	5.529
368.66	5.551
369.01	5.555
369.37	5.514
369.72	5.516
370.08	5.538
370.43	5.591
370.78	5.611
371.14	5.661
371.49	5.608
371.85	5.580
372.20	5.593
372.56	5.627
372.91	5.639
373.26	5.693
373.62	5.727
373.97	5.767
374.33	5.748
374.68	5.794
375.03	5.821
375.39	5.875
375.74	5.927
376.10	5.900
376.45	5.956
376.80	5.967
377.16	5.994
377.51	6.018
377.87	6.057
378.22	6.078
378.57	6.120
378.93	6.179
379.28	6.236
379.63	6.297
379.99	6.428
380.34	6.440
380.70	6.523
381.05	6.589
381.40	6.647
381.76	6.665
382.11	6.731
382.46	6.736
382.82	6.775
383.17	6.824
383.52	6.886
383.88	6.936
384.23	7.012
384.58	7.047
384.94	7.127
385.29	7.207
385.64	7.288
385.99	7.342
386.35	7.432
386.70	7.535
387.05	7.623
387.41	7.670
387.76	7.748
388.11	7.812
388.47	7.851
388.82	7.899
389.17	7.981
389.52	8.078
389.88	8.191
390.23	8.288
390.58	8.336
390.93	8.421
391.29	8.523
391.64	8.573
391.99	8.658
392.34	8.766
392.70	8.866
393.05	8.955
393.40	9.022
393.75	9.100
394.11	9.188
394.46	9.265
394.81	9.326
395.16	9.436
395.52	9.532
395.87	9.618
396.22	9.707
396.57	9.772
396.92	9.860
397.28	9.948
397.63	10.042
397.98	10.144
398.33	10.239
398.68	10.330
399.04	10.407
399.39	10.480
399.74	10.579
400.09	10.690
400.44	10.773
400.80	10.863
401.15	10.949
401.50	11.008
401.85	11.060
402.20	11.138
402.55	11.231
402.90	11.319
403.26	11.408
403.61	11.462
403.96	11.531
404.31	11.632
404.66	11.724
405.01	11.820
405.36	11.920
405.72	12.037
406.07	12.120
406.42	12.198
406.77	12.264
407.12	12.346
407.47	12.466
407.82	12.554
408.17	12.639
408.53	12.708
408.88	12.775
409.23	12.848
409.58	12.935
409.93	13.054
410.28	13.151
410.63	13.241
410.98	13.348
411.33	13.420
411.68	13.502
412.03	13.610
412.38	13.664
412.73	13.751
413.09	13.809
413.44	13.865
413.79	13.875
414.14	13.975
414.49	14.066
414.84	14.137
415.19	14.172
415.54	14.219
415.89	14.248
416.24	14.303
416.59	14.347
416.94	14.382
417.29	14.417
417.64	14.477
417.99	14.516
418.34	14.545
418.69	14.577
419.04	14.627
419.39	14.702
419.74	14.759
420.09	14.804
420.44	14.855
420.79	14.907
421.14	14.952
421.49	15.011
421.84	15.049
422.19	15.084
422.54	15.140
422.89	15.199
423.24	15.234
423.59	15.302
423.94	15.352
424.29	15.390
424.64	15.459
424.99	15.524
425.34	15.584
425.68	15.629
426.03	15.712
426.38	15.776
426.73	15.841
427.08	15.897
427.43	15.921
427.78	15.977
428.13	16.063
428.48	16.122
428.83	16.208
429.18	16.238
429.53	16.300
429.87	16.370
430.22	16.403
430.57	16.466
430.92	16.516
431.27	16.573
431.62	16.610
431.97	16.662
432.32	16.703
432.67	16.722
433.01	16.793
433.36	16.860
433.71	16.880
434.06	16.930
434.41	16.948
434.76	16.991
435.11	17.048
435.45	17.118
435.80	17.144
436.15	17.192
436.50	17.229
436.85	17.258
437.20	17.259
437.54	17.261
437.89	17.289
438.24	17.306
438.59	17.301
438.94	17.320
439.29	17.334
439.63	17.344
439.98	17.345
440.33	17.363
440.68	17.366
441.03	17.389
441.37	17.439
441.72	17.446
442.07	17.488
442.42	17.516
442.76	17.530
443.11	17.548
443.46	17.591
443.81	17.610
444.16	17.626
444.50	17.650
444.85	17.674
445.20	17.670
445.55	17.698
445.89	17.711
446.24	17.730
446.59	17.728
446.94	17.743
447.28	17.728
447.63	17.753
447.98	17.778
448.32	17.792
448.67	17.801
449.02	17.855
449.37	17.896
449.71	17.908
450.06	17.913
450.41	17.968
450.75	17.977
451.10	18.028
451.45	18.069
451.79	18.071
452.14	18.098
452.49	18.114
452.84	18.138
453.18	18.140
453.53	18.163
453.88	18.215
454.22	18.225
454.57	18.254
454.92	18.273
455.26	18.306
455.61	18.351
455.95	18.386
456.30	18.434
456.65	18.478
456.99	18.529
457.34	18.574
457.69	18.618
458.03	18.636
458.38	18.693
458.73	18.733
459.07	18.766
459.42	18.822
459.76	18.893
460.11	18.935
460.46	18.989
460.80	19.026
461.15	19.098
461.49	19.149
461.84	19.258
462.19	19.323
462.53	19.418
462.88	19.481
463.22	19.548
463.57	19.590
463.91	19.664
464.26	19.719
464.61	19.806
464.95	19.848
465.30	19.930
465.64	19.975
465.99	20.036
466.33	20.067
466.68	20.133
467.02	20.189
467.37	20.225
467.71	20.277
468.06	20.303
468.41	20.343
468.75	20.392
469.10	20.427
469.44	20.466
469.79	20.511
470.13	20.551
470.48	20.573
470.82	20.603
471.17	20.627
471.51	20.628
471.86	20.658
472.20	20.650
472.55	20.685
472.89	20.695
473.23	20.704
473.58	20.676
473.92	20.673
474.27	20.683
474.61	20.672
474.96	20.692
475.30	20.713
475.65	20.728
475.99	20.745
476.34	20.728
476.68	20.712
477.02	20.702
477.37	20.701
477.71	20.701
478.06	20.695
478.40	20.747
478.75	20.845
479.09	21.035
479.43	21.453
479.78	21.984
480.12	22.568
480.47	23.161
480.81	23.753
481.15	24.358
481.50	24.968
481.84	25.663
482.19	26.396
482.53	27.099
482.87	27.660
483.22	27.834
483.56	27.700
483.90	27.377
484.25	26.922
484.59	26.384
484.94	25.765
485.28	25.075
485.62	24.282
485.97	23.435
486.31	22.659
486.65	22.041
487.00	21.637
487.34	21.423
487.68	21.374
488.03	21.402
488.37	21.463
488.71	21.579
489.06	21.707
489.40	21.845
489.74	22.003
490.09	22.154
490.43	22.257
490.77	22.381
491.11	22.500
491.46	22.535
491.80	22.583
492.14	22.640
492.49	22.675
492.83	22.753
493.17	22.839
493.51	22.910
493.86	22.997
494.20	23.103
494.54	23.206
494.88	23.333
495.23	23.448
495.57	23.535
495.91	23.649
496.25	23.736
496.60	23.821
496.94	23.937
497.28	24.062
497.62	24.180
497.97	24.294
498.31	24.420
498.65	24.554
498.99	24.722
499.33	24.883
499.68	25.022
500.02	25.210
500.36	25.363
500.70	25.465
501.04	25.584
501.39	25.732
501.73	25.874
502.07	25.995
502.41	26.098
502.75	26.202
503.09	26.337
503.44	26.479
503.78	26.585
504.12	26.723
504.46	26.888
504.80	27.025
505.14	27.157
505.49	27.278
505.83	27.412
506.17	27.552
506.51	27.693
506.85	27.823
507.19	27.899
507.53	28.025
507.87	28.121
508.22	28.219
508.56	28.325
508.90	28.422
509.24	28.524
509.58	28.622
509.92	28.735
510.26	28.836
510.60	28.902
510.94	29.033
511.28	29.111
511.63	29.224
511.97	29.309
512.31	29.409
512.65	29.490
512.99	29.622
513.33	29.760
513.67	29.868
514.01	29.966
514.35	30.096
514.69	30.209
515.03	30.332
515.37	30.441
515.71	30.567
516.05	30.647
516.39	30.743
516.73	30.822
517.07	30.885
517.41	30.943
517.75	30.996
518.09	31.059
518.43	31.109
518.77	31.143
519.11	31.177
519.45	31.208
519.79	31.252
520.13	31.314
520.47	31.371
520.81	31.462
521.15	31.534
521.49	31.593
521.83	31.669
522.17	31.739
522.51	31.830
522.85	31.902
523.19	32.032
523.53	32.232
523.87	32.443
524.21	32.725
524.55	33.053
524.89	33.392
525.23	33.784
525.57	34.121
525.91	34.475
526.25	34.835
526.58	35.196
526.92	35.468
527.26	35.614
527.60	35.532
527.94	35.198
528.28	34.780
528.62	34.412
528.96	34.158
529.30	33.951
529.64	33.698
529.97	33.391
530.31	33.063
530.65	32.775
530.99	32.600
531.33	32.688
531.67	33.020
532.01	33.390
532.35	33.676
532.68	33.740
533.02	33.729
533.36	33.703
533.70	33.683
534.04	33.676
534.38	33.667
534.71	33.657
535.05	33.640
535.39	33.619
535.73	33.624
536.07	33.616
536.41	33.689
536.74	33.756
537.08	33.854
537.42	33.949
537.76	34.047
538.10	34.149
538.43	34.247
538.77	34.333
539.11	34.430
539.45	34.516
539.79	34.610
540.12	34.645
540.46	34.687
540.80	34.678
541.14	34.706
541.47	34.699
541.81	34.689
542.15	34.678
542.49	34.665
542.82	34.616
543.16	34.574
543.50	34.541
543.84	34.510
544.17	34.501
544.51	34.540
544.85	34.512
545.18	34.524
545.52	34.552
545.86	34.583
546.20	34.629
546.53	34.730
546.87	34.768
547.21	34.831
547.54	34.897
547.88	34.952
548.22	35.031
548.55	35.130
548.89	35.192
549.23	35.242
549.56	35.269
549.90	35.281
550.24	35.261
550.57	35.297
550.91	35.322
551.25	35.343
551.58	35.356
551.92	35.373
552.26	35.396
552.59	35.445
552.93	35.488
553.27	35.542
553.60	35.631
553.94	35.678
554.27	35.706
554.61	35.741
554.95	35.779
555.28	35.870
555.62	35.870
555.95	35.921
556.29	36.000
556.63	36.052
556.96	36.125
557.30	36.138
557.63	36.225
557.97	36.297
558.31	36.342
558.64	36.348
558.98	36.344
559.31	36.386
559.65	36.392
559.98	36.376
560.32	36.412
560.65	36.424
560.99	36.430
561.33	36.430
561.66	36.466
562.00	36.472
562.33	36.519
562.67	36.568
563.00	36.605
563.34	36.663
563.67	36.708
564.01	36.714
564.34	36.720
564.68	36.770
565.01	36.792
565.35	36.832
565.68	36.875
566.02	36.927
566.35	36.949
566.69	36.999
567.02	37.007
567.36	36.994
567.69	37.046
568.03	37.060
568.36	37.086
568.69	37.089
569.03	37.055
569.36	37.088
569.70	37.101
570.03	37.109
570.37	37.139
570.70	37.192
571.04	37.208
571.37	37.214
571.70	37.260
572.04	37.258
572.37	37.309
572.71	37.363
573.04	37.415
573.37	37.447
573.71	37.490
574.04	37.527
574.38	37.529
574.71	37.637
575.04	37.686
575.38	37.758
575.71	37.814
576.05	37.898
576.38	37.976
576.71	38.015
577.05	38.095
577.38	38.182
577.71	38.261
578.05	38.316
578.38	38.326
578.71	38.354
579.05	38.353
579.38	38.427
579.71	38.435
580.05	38.438
580.38	38.507
580.71	38.541
581.05	38.550
581.38	38.564
581.71	38.604
582.05	38.694
582.38	38.738
582.71	38.808
583.04	38.860
583.38	38.858
583.71	38.887
584.04	38.820
584.38	38.790
584.71	38.783
585.04	38.760
585.37	38.795
585.71	38.760
586.04	38.803
586.37	38.834
586.70	38.819
587.04	38.839
587.37	38.869
587.70	38.880
588.03	38.897
588.37	38.926
588.70	38.928
589.03	38.960
589.36	38.934
589.69	38.928
590.03	38.915
590.36	38.941
590.69	38.987
591.02	39.035
591.35	39.103
591.69	39.129
592.02	39.122
592.35	39.130
592.68	39.099
593.01	39.139
593.35	39.099
593.68	39.074
594.01	39.056
594.34	39.034
594.67	38.984
595.00	38.964
595.34	38.968
595.67	38.981
596.00	39.020
596.33	39.046
596.66	39.054
596.99	39.119
597.32	39.161
597.65	39.221
597.99	39.245
598.32	39.267
598.65	39.280
598.98	39.319
599.31	39.325
599.64	39.296
599.97	39.276
600.30	39.268
600.63	39.214
600.96	39.182
601.30	39.137
601.63	39.138
601.96	39.141
602.29	39.138
602.62	39.106
602.95	39.118
603.28	39.100
603.61	39.107
603.94	39.107
604.27	39.131
604.60	39.165
604.93	39.165
605.26	39.134
605.59	39.155
605.92	39.145
606.25	39.141
606.58	39.129
606.91	39.139
607.24	39.128
607.57	39.135
607.90	39.172
608.23	39.194
608.56	39.194
608.89	39.232
609.22	39.241
609.55	39.288
609.88	39.323
610.21	39.343
610.54	39.406
610.87	39.467
611.20	39.500
611.53	39.463
611.86	39.404
612.19	39.420
612.52	39.447
612.85	39.439
613.18	39.441
613.51	39.456
613.84	39.446
614.17	39.422
614.49	39.428
614.82	39.430
615.15	39.449
615.48	39.451
615.81	39.497
616.14	39.475
616.47	39.472
616.80	39.404
617.13	39.360
617.46	39.351
617.78	39.304
618.11	39.265
618.44	39.273
618.77	39.244
619.10	39.241
619.43	39.184
619.76	39.156
620.09	39.140
620.41	39.142
620.74	39.149
621.07	39.110
621.40	39.139
621.73	39.091
622.06	39.031
622.38	38.990
622.71	38.954
623.04	38.918
623.37	38.898
623.70	38.861
624.02	38.814
624.35	38.793
624.68	38.770
625.01	38.706
625.34	38.684
625.66	38.668
625.99	38.658
626.32	38.646
626.65	38.613
626.98	38.599
627.30	38.594
627.63	38.578
627.96	38.552
628.29	38.503
628.61	38.507
628.94	38.444
629.27	38.395
629.60	38.418
629.92	38.417
630.25	38.354
630.58	38.279
630.91	38.230
631.23	38.224
631.56	38.163
631.89	38.234
632.21	38.180
632.54	38.227
632.87	38.206
633.19	38.169
633.52	38.134
633.85	38.123
634.18	38.133
634.50	38.098
634.83	38.079
635.16	38.036
635.48	37.976
635.81	38.010
636.14	38.010
636.46	37.965
636.79	37.925
637.11	37.875
637.44	37.871
637.77	37.845
638.09	37.816
638.42	37.795
638.75	37.807
639.07	37.740
639.40	37.674
639.73	37.579
640.05	37.610
640.38	37.610
640.70	37.601
641.03	37.560
641.36	37.549
641.68	37.509
642.01	37.467
642.33	37.412
642.66	37.325
642.98	37.344
643.31	37.347
643.64	37.275
643.96	37.156
644.29	37.090
644.61	37.039
644.94	36.931
645.26	36.907
645.59	36.823
645.91	36.733
646.24	36.753
646.56	36.693
646.89	36.586
647.22	36.527
647.54	36.512
647.87	36.441
648.19	36.353
648.52	36.319
648.84	36.259
649.17	36.219
649.49	36.245
649.82	36.217
650.14	36.085
650.47	36.077
650.79	36.000
651.11	35.922
651.44	35.909
651.76	35.882
652.09	35.854
652.41	35.766
652.74	35.771
653.06	35.719
653.39	35.651
653.71	35.666
654.04	35.567
654.36	35.490
654.68	35.464
655.01	35.383
655.33	35.328
655.66	35.229
655.98	35.168
656.30	35.094
656.63	35.033
656.95	34.963
657.28	34.907
657.60	34.836
657.92	34.818
658.25	34.772
658.57	34.703
658.90	34.700
659.22	34.639
659.54	34.577
659.87	34.479
660.19	34.408
660.51	34.326
660.84	34.203
661.16	34.211
661.48	34.208
661.81	34.063
662.13	34.038
662.45	33.942
662.78	33.952
663.10	33.901
663.42	33.871
663.75	33.885
664.07	33.857
664.39	33.861
664.72	33.660
665.04	33.580
665.36	33.611
665.69	33.577
666.01	33.512
666.33	33.477
666.65	33.506
666.98	33.438
667.30	33.293
667.62	33.198
667.94	33.126
668.27	33.184
668.59	33.077
668.91	32.965
669.23	32.911
669.56	32.896
669.88	32.780
670.20	32.686
670.52	32.703
670.85	32.699
671.17	32.738
671.49	32.663
671.81	32.630
672.13	32.642
672.46	32.665
672.78	32.650
673.10	32.618
673.42	32.576
673.74	32.625
674.07	32.565
674.39	32.503
674.71	32.413
675.03	32.421
675.35	32.428
675.67	32.343
676.00	32.215
676.32	32.181
676.64	32.132
676.96	32.108
677.28	31.963
677.60	31.938
677.92	31.877
678.25	31.823
678.57	31.797
678.89	31.736
679.21	31.704
679.53	31.757
679.85	31.721
680.17	31.712
680.49	31.694
680.81	31.753
681.13	31.712
681.46	31.753
681.78	31.810
682.10	31.823
682.42	31.737
682.74	31.788
683.06	31.730
683.38	31.654
683.70	31.745
684.02	31.833
684.34	31.821
684.66	31.914
684.98	31.898
685.30	31.859
685.62	31.859
685.94	31.918
686.26	31.891
686.58	31.910
686.90	31.978
687.22	31.862
687.54	31.831
687.86	31.788
688.18	31.730
688.50	31.718
688.82	31.689
689.14	31.690
689.46	31.665
689.78	31.591
690.10	31.541
690.42	31.538
690.74	31.553
691.06	31.407
691.38	31.451
691.70	31.440
692.02	31.375
692.34	31.355
692.66	31.274
692.98	31.210
693.30	31.164
693.62	31.162
693.94	30.991
694.26	30.852
694.57	30.809
694.89	30.751
695.21	30.644
695.53	30.654
695.85	30.581
696.17	30.491
696.49	30.483
696.81	30.524
697.13	30.481
697.44	30.503
697.76	30.551
698.08	30.598
698.40	30.620
698.72	30.583
699.04	30.550
699.36	30.586
699.67	30.567
699.99	30.541
700.31	30.486
700.63	30.410
700.95	30.405
701.27	30.297
701.58	30.261
701.90	30.049
702.22	29.973
702.54	29.943
702.86	29.871
703.17	29.899
703.49	29.858
703.81	29.791
704.13	29.894
704.45	29.771
704.76	29.739
705.08	29.636
705.40	29.659
705.72	29.621
706.03	29.544
706.35	29.436
706.67	29.413
706.99	29.371
707.30	29.424
707.62	29.280
707.94	29.252
708.26	29.279
708.57	29.317
708.89	29.345
709.21	29.370
709.53	29.352
709.84	29.398
710.16	29.295
710.48	29.293
710.79	29.154
711.11	29.090
711.43	29.000
711.74	28.912
712.06	28.842
712.38	28.786
712.69	28.721
713.01	28.714
713.33	28.704
713.64	28.613
713.96	28.619
714.28	28.670
714.59	28.734
714.91	28.859
715.23	28.846
715.54	28.758
715.86	28.738
716.17	28.767
716.49	28.747
716.81	28.672
717.12	28.756
717.44	28.659
717.76	28.472
718.07	28.399
718.39	28.342
718.70	28.290
719.02	28.289
719.33	28.175
719.65	28.079
719.97	27.960
720.28	28.002
720.60	27.914
720.91	27.933
721.23	27.944
721.54	27.987
721.86	27.928
722.17	27.866
722.49	27.846
722.81	27.803
723.12	27.896
723.44	27.940
723.75	27.819
724.07	27.860
724.38	27.821
724.70	27.722
725.01	27.630
725.33	27.542
725.64	27.588
725.96	27.440
726.27	27.495
726.59	27.433
726.90	27.278
727.22	27.352
727.53	27.338
727.84	27.257
728.16	27.275
728.47	27.263
728.79	27.203
729.10	27.216
729.42	27.304
729.73	27.187
730.05	27.146
730.36	27.135
730.67	27.045
730.99	26.985
731.30	27.011
731.62	27.086
731.93	27.027
732.24	27.050
732.56	26.872
732.87	26.829
733.19	26.756
733.50	26.754
733.81	26.717
734.13	26.656
734.44	26.564
734.76	26.419
735.07	26.276
735.38	26.204
735.70	26.215
736.01	26.394
736.32	26.340
736.64	26.395
736.95	26.226
737.26	26.186
737.58	26.169
737.89	26.245
738.20	26.340
738.52	26.337
738.83	26.204
739.14	26.105
739.45	25.933
739.77	26.035
740.08	25.946
740.39	25.892
740.71	25.904
741.02	25.814
741.33	25.822
741.64	25.693
741.96	25.682
742.27	25.699
742.58	25.878
742.90	25.615
743.21	25.396
743.52	25.479
743.83	25.384
744.14	25.298
744.46	25.210
744.77	25.087
745.08	24.987
745.39	24.959
745.71	25.004
746.02	24.671
746.33	25.013
746.64	25.027
746.95	24.830
747.27	24.909
747.58	24.749
747.89	24.699
748.20	24.501
748.51	24.545
748.82	24.411
749.14	24.349
749.45	24.371
749.76	24.059
750.07	23.891
750.38	24.132
750.69	24.062
751.01	24.217
751.32	24.453
751.63	24.609
751.94	24.578
752.25	24.677
752.56	24.784
752.87	24.840
753.18	24.884
753.49	25.040
753.81	24.776
754.12	24.737
754.43	24.705
754.74	24.568
755.05	24.523
755.36	24.440
755.67	24.445
755.98	24.478
756.29	24.465
756.60	24.669
756.91	24.727
757.22	24.797
757.53	24.797
757.84	24.931
758.15	24.909
758.46	25.114
758.77	25.190
759.09	25.368
759.40	25.298
759.71	25.439
760.02	25.418
760.33	25.350
760.64	25.332
760.95	25.474
761.26	25.527
761.57	25.488
761.88	25.363
762.18	25.502
762.49	25.431
762.80	25.376
763.11	25.345
763.42	25.224
763.73	25.030
764.04	25.104
764.35	24.988
764.66	24.809
764.97	24.742
765.28	24.587
765.59	24.125
765.90	23.968
766.21	23.856
766.52	23.623
766.83	23.529
767.14	23.524
767.44	23.211
767.75	23.299
768.06	23.092
768.37	22.987
768.68	22.981
768.99	23.228
769.30	23.175
769.61	23.335
769.91	23.388
770.22	23.490
770.53	23.581
770.84	23.645
771.15	23.425
771.46	23.558
771.77	23.412
772.07	23.304
772.38	23.330
772.69	23.091
773.00	23.056
773.31	22.726
773.61	22.467
773.92	22.272
774.23	22.342
774.54	22.144
774.85	22.240
775.15	22.604
775.46	22.511
775.77	22.274
776.08	22.216
776.39	22.051
776.69	22.202
777.00	22.566
777.31	23.012
777.62	22.778
777.92	22.857
778.23	22.536
778.54	22.069
778.85	22.098
779.15	22.167
779.46	22.487
779.77	22.073
780.07	22.343
780.38	22.156
780.69	21.752
781.00	21.660
781.30	21.836
781.61	21.741
781.92	22.062
782.22	22.198
782.53	22.248
782.84	21.989
783.14	22.088
783.45	21.573
783.76	21.355
784.06	21.365
784.37	21.694
784.68	21.564
784.98	21.871
785.29	21.986
785.60	22.218
785.90	22.308
786.21	22.253
786.51	22.657
786.82	22.829
787.13	23.037
787.43	23.231
787.74	23.183
788.04	23.172
788.35	23.293
788.66	23.333
788.96	23.344
789.27	23.417
789.57	23.601
789.88	23.825
790.19	23.723
790.49	23.419
790.80	23.588
791.10	23.690
791.41	23.823
791.71	23.631
792.02	23.556
792.32	23.560
792.63	23.217
792.93	23.108
793.24	22.576
793.54	22.678
793.85	22.778
794.15	22.757
794.46	22.577
794.76	22.486
795.07	22.434
795.37	22.472
795.68	22.065
795.98	22.491
796.29	22.816
796.59	22.724
796.90	22.610
797.20	22.819
797.51	22.530
797.81	22.411
798.12	22.208
798.42	22.395
798.72	22.153
799.03	22.430
799.33	22.064
799.64	21.543
799.94	22.004
800.25	22.160
800.55	22.170
800.85	22.504
801.16	22.384
801.46	22.742
801.77	22.717
802.07	23.040
802.37	23.134
802.68	23.332
802.98	23.608
803.28	23.435
803.59	23.400
803.89	23.120
804.20	22.613
804.50	23.221
804.80	23.224
805.11	23.234
805.41	23.158
805.71	22.875
806.02	22.716
806.32	22.620
806.62	22.390
806.93	22.208
807.23	22.313
807.53	22.577
807.83	22.265
808.14	22.073
808.44	21.633
808.74	21.142
809.05	21.200
809.35	21.549
809.65	21.739
809.95	22.243
810.26	22.754
810.56	22.574
810.86	22.893
811.16	23.306
811.47	23.200
811.77	24.032
812.07	24.591
812.37	24.909
812.68	24.397
812.98	24.702
813.28	24.151
813.58	24.132
813.88	24.658
814.19	24.470
814.49	23.676
814.79	23.830
815.09	22.795
815.39	22.535
815.70	22.128
816.00	22.379
816.30	22.364
816.60	22.832
816.90	22.978
817.20	22.781
817.50	22.889
817.81	23.197
818.11	23.231
818.41	23.652
818.71	23.866
819.01	24.071
819.31	24.144
819.61	24.146
819.92	24.224
820.22	24.123
820.52	24.118
820.82	24.152
821.12	24.247
821.42	24.249
821.72	24.263
822.02	24.288
822.32	24.259
822.62	24.244
822.92	24.237
823.22	24.233
823.52	24.321
823.83	24.350
824.13	24.395
824.43	24.300
824.73	24.382
825.03	24.315
825.33	24.057
825.63	23.994
825.93	23.887
826.23	23.725
826.53	23.621
826.83	23.515
827.13	23.645
827.43	23.523
827.73	23.445
828.03	23.352
828.33	23.280
828.63	23.349
828.93	23.603
829.23	23.859
829.53	23.894
829.83	24.084
830.13	24.003
830.42	23.766
830.72	23.692
831.02	23.898
831.32	24.074
831.62	24.016
831.92	23.927
832.22	23.722
832.52	23.671
832.82	23.795
833.12	23.413
833.42	23.494
833.72	23.396
834.01	23.405
834.31	23.161
834.61	23.235
834.91	23.215
835.21	23.801
835.51	23.730
835.81	23.507
836.11	23.667
836.40	24.273
836.70	24.523
837.00	24.607
837.30	25.000
837.60	25.955
837.90	25.631
838.19	25.929
838.49	25.087
838.79	25.584
839.09	25.537
839.39	25.280
839.68	25.267
839.98	24.933
840.28	24.465
840.58	23.937
840.88	23.048
841.17	22.845
841.47	22.273
841.77	22.316
842.07	20.851
842.36	20.255
842.66	20.440
842.96	19.533
843.26	20.054
843.55	21.065
843.85	21.062
844.15	21.233
844.45	21.937
844.74	23.740
845.04	24.844
845.34	25.053
845.63	26.488
845.93	26.327
846.23	25.161
846.53	24.536
846.82	23.971
847.12	23.068
847.42	24.317
847.71	23.793
848.01	22.912
848.31	22.879
848.60	23.537
848.90	21.292
849.19	20.410
849.49	21.913
849.79	21.963
850.08	22.354
850.38	22.901
850.68	22.105
850.97	22.347
851.27	21.337
851.56	21.761
851.86	22.334
852.16	23.386
852.45	23.018
852.75	22.262
853.04	22.246
853.34	22.166
853.64	24.662
853.93	24.356
854.23	23.683
854.52	25.056
854.82	24.071
855.11	23.547
855.41	25.979
855.70	27.348
856.00	27.382
856.30	26.686
856.59	27.199
856.89	26.862
857.18	26.018
857.48	26.851
857.77	26.235
858.07	26.062
858.36	25.802
858.66	24.641
858.95	24.578
859.25	25.445
859.54	24.865
859.84	23.675
860.13	21.660
860.42	21.732
860.72	21.415
861.01	21.933
861.31	20.655
861.60	21.527
861.90	20.551
862.19	19.499
862.49	19.250
862.78	21.184
863.07	21.254
863.37	21.229
863.66	22.395
863.96	21.269
864.25	21.973
864.54	23.543
864.84	22.500
865.13	23.065
865.43	22.308
865.72	32.629
866.01	26.880
866.31	17.270
866.60	23.674
866.89	7.294
>>>>>End Spectral Data<<<<<
