OOIBase32 Version 2.0.0.6 Data File
++++++++++++++++++++++++++++++++++++
Date: 01-20-2012, 23:11:07
User: Valued Ocean Optics Customer
Spectrometer Serial Number: USB2E2917
Spectrometer Channel: Master
Integration Time (msec): 3
Spectra Averaged: 10
Boxcar Smoothing: 5
Correct for Electrical Dark: Enabled
Time Normalized: Disabled
Dual-beam Reference: Disabled
Reference Channel: Master
Temperature: Not acquired
Spectrometer Type: S2000
ADC Type: USB2000
Number of Pixels in File: 2048
Graph Title: 
>>>>>Begin Spectral Data<<<<<
180.30	0.000
180.67	0.000
181.03	6.208
181.40	-698.374
181.77	156.526
182.14	-112.301
182.51	48.721
182.88	-60.604
183.25	-81.041
183.62	-371.989
183.99	4101.898
184.36	235.210
184.73	37.435
185.10	76.497
185.46	509.076
185.83	-89.508
186.20	50.450
186.57	62.559
186.94	99.382
187.31	-125.023
187.68	175.679
188.05	25.977
188.42	25.841
188.78	-1.639
189.15	26.099
189.52	114.771
189.89	97.572
190.26	5.279
190.63	-16.259
191.00	-2.081
191.37	19.353
191.73	30.296
192.10	27.646
192.47	12.011
192.84	16.772
193.21	19.462
193.58	8.874
193.94	-5.365
194.31	-4.739
194.68	-41.496
195.05	-76.594
195.42	-111.985
195.79	-257.162
196.15	-253.563
196.52	-62.192
196.89	1230629.688
197.26	586.694
197.63	-2519.836
198.00	-1465.481
198.36	572.922
198.73	-335.628
199.10	-1267.721
199.47	-107.646
199.84	67.011
200.20	154.553
200.57	-15.055
200.94	27.110
201.31	16.012
201.68	13.019
202.04	33.363
202.41	34.454
202.78	23.619
203.15	15.239
203.51	-7.862
203.88	-26.404
204.25	-59.237
204.62	-40.280
204.98	-32.922
205.35	4.765
205.72	10.753
206.09	19.560
206.46	10.292
206.82	6.621
207.19	4.042
207.56	27.405
207.92	44.359
208.29	45.639
208.66	35.556
209.03	27.150
209.39	32.366
209.76	37.092
210.13	39.261
210.50	58.141
210.86	60.438
211.23	75.265
211.60	47.752
211.96	36.877
212.33	36.732
212.70	45.974
213.07	42.478
213.43	38.948
213.80	34.064
214.17	25.167
214.53	-8.171
214.90	-15.945
215.27	-47.004
215.63	-14.912
216.00	-22.332
216.37	-8.896
216.74	-65.523
217.10	-57.774
217.47	-66.638
217.84	-46.605
218.20	-47.943
218.57	-21.956
218.94	-14.671
219.30	1.987
219.67	-4.215
220.04	9.169
220.40	6.723
220.77	14.888
221.13	8.442
221.50	6.573
221.87	8.101
222.23	14.123
222.60	11.476
222.97	12.394
223.33	8.650
223.70	9.522
224.07	4.214
224.43	4.773
224.80	5.375
225.16	6.228
225.53	4.476
225.90	3.226
226.26	2.860
226.63	3.553
226.99	2.508
227.36	2.094
227.73	3.021
228.09	3.260
228.46	2.058
228.82	1.552
229.19	2.914
229.56	5.587
229.92	4.206
230.29	4.334
230.65	3.827
231.02	6.096
231.38	7.945
231.75	8.509
232.12	8.639
232.48	10.125
232.85	9.238
233.21	7.721
233.58	5.429
233.94	6.955
234.31	6.521
234.68	7.072
235.04	5.896
235.41	2.375
235.77	0.867
236.14	1.771
236.50	2.373
236.87	4.338
237.23	4.894
237.60	6.331
237.96	5.964
238.33	5.785
238.69	5.335
239.06	4.547
239.42	5.507
239.79	5.728
240.15	6.049
240.52	6.135
240.88	6.184
241.25	6.482
241.61	5.996
241.98	5.856
242.34	5.716
242.71	5.950
243.07	6.000
243.44	5.592
243.80	5.415
244.17	5.095
244.53	4.637
244.90	4.461
245.26	4.358
245.63	4.681
245.99	4.955
246.36	5.060
246.72	5.316
247.09	5.459
247.45	5.649
247.81	5.760
248.18	6.069
248.54	6.458
248.91	6.462
249.27	6.150
249.64	5.804
250.00	5.093
250.36	4.592
250.73	4.157
251.09	4.041
251.46	4.552
251.82	4.307
252.19	3.893
252.55	3.321
252.91	3.429
253.28	3.969
253.64	4.207
254.01	4.888
254.37	5.824
254.73	5.333
255.10	5.294
255.46	4.534
255.83	4.821
256.19	4.957
256.55	4.993
256.92	4.716
257.28	4.632
257.65	4.745
258.01	4.845
258.37	4.678
258.74	4.996
259.10	5.217
259.46	5.347
259.83	5.476
260.19	5.548
260.55	5.724
260.92	6.057
261.28	5.990
261.64	5.705
262.01	5.197
262.37	5.171
262.73	4.575
263.10	4.350
263.46	4.344
263.82	4.050
264.19	3.724
264.55	3.618
264.91	3.282
265.28	3.703
265.64	3.999
266.00	4.228
266.37	4.276
266.73	4.917
267.09	4.814
267.46	5.028
267.82	5.259
268.18	5.535
268.54	5.461
268.91	5.663
269.27	5.525
269.63	5.547
270.00	5.724
270.36	5.969
270.72	5.402
271.08	5.277
271.45	5.147
271.81	5.141
272.17	4.840
272.53	4.883
272.90	4.950
273.26	4.743
273.62	4.811
273.98	4.726
274.35	4.534
274.71	4.712
275.07	4.638
275.43	4.642
275.80	4.597
276.16	4.635
276.52	4.868
276.88	4.616
277.25	4.670
277.61	4.445
277.97	4.515
278.33	4.413
278.69	4.399
279.06	4.627
279.42	4.532
279.78	4.336
280.14	4.439
280.50	4.421
280.87	4.506
281.23	4.418
281.59	4.362
281.95	4.093
282.31	4.096
282.68	4.263
283.04	4.131
283.40	4.279
283.76	4.443
284.12	4.531
284.48	4.460
284.85	4.444
285.21	4.650
285.57	4.849
285.93	5.054
286.29	5.054
286.65	5.110
287.02	5.286
287.38	5.338
287.74	5.264
288.10	5.230
288.46	5.168
288.82	5.355
289.18	5.515
289.54	5.470
289.91	5.641
290.27	5.693
290.63	5.630
290.99	5.504
291.35	5.257
291.71	5.113
292.07	5.144
292.43	5.324
292.79	5.183
293.16	4.828
293.52	4.802
293.88	4.578
294.24	4.482
294.60	4.435
294.96	4.511
295.32	4.706
295.68	4.865
296.04	4.662
296.40	4.526
296.76	4.600
297.12	4.715
297.49	4.613
297.85	4.644
298.21	4.890
298.57	5.100
298.93	5.049
299.29	4.956
299.65	4.802
300.01	4.909
300.37	4.937
300.73	4.731
301.09	4.697
301.45	4.753
301.81	4.752
302.17	4.693
302.53	4.583
302.89	4.574
303.25	4.444
303.61	4.431
303.97	4.450
304.33	4.463
304.69	4.785
305.05	4.853
305.41	4.922
305.77	4.969
306.13	4.802
306.49	4.777
306.85	4.837
307.21	5.050
307.57	5.097
307.93	5.114
308.29	5.174
308.65	5.139
309.01	5.072
309.37	5.218
309.73	5.194
310.09	5.376
310.45	5.514
310.81	5.511
311.17	5.492
311.53	5.406
311.89	5.213
312.25	5.286
312.61	5.194
312.96	5.383
313.32	5.183
313.68	5.210
314.04	5.057
314.40	4.941
314.76	4.914
315.12	4.911
315.48	5.105
315.84	5.366
316.20	5.399
316.56	5.394
316.92	5.289
317.27	5.351
317.63	5.482
317.99	5.489
318.35	5.374
318.71	5.365
319.07	5.249
319.43	5.321
319.79	5.180
320.15	5.286
320.50	5.270
320.86	5.239
321.22	5.200
321.58	5.188
321.94	5.324
322.30	5.564
322.66	5.602
323.01	5.819
323.37	5.824
323.73	5.958
324.09	5.911
324.45	5.999
324.81	6.284
325.17	6.405
325.52	6.473
325.88	6.487
326.24	6.524
326.60	6.667
326.96	6.629
327.31	6.645
327.67	6.713
328.03	6.696
328.39	6.890
328.75	6.868
329.11	6.919
329.46	6.820
329.82	6.903
330.18	6.986
330.54	7.141
330.90	7.333
331.25	7.478
331.61	7.615
331.97	7.672
332.33	7.712
332.68	7.601
333.04	7.619
333.40	7.774
333.76	7.748
334.11	7.625
334.47	7.525
334.83	7.513
335.19	7.503
335.54	7.414
335.90	7.461
336.26	7.404
336.62	7.488
336.97	7.556
337.33	7.663
337.69	7.760
338.05	7.857
338.40	7.911
338.76	7.917
339.12	7.885
339.48	7.920
339.83	7.864
340.19	7.872
340.55	7.918
340.90	7.901
341.26	7.861
341.62	7.873
341.97	7.846
342.33	7.833
342.69	7.752
343.04	7.712
343.40	7.747
343.76	7.746
344.12	7.806
344.47	7.828
344.83	7.813
345.19	7.780
345.54	7.744
345.90	7.754
346.26	7.855
346.61	7.929
346.97	7.996
347.32	8.021
347.68	8.067
348.04	8.038
348.39	8.021
348.75	8.082
349.11	8.049
349.46	8.102
349.82	8.111
350.18	8.050
350.53	8.120
350.89	8.145
351.24	8.140
351.60	8.116
351.96	8.073
352.31	8.060
352.67	8.009
353.02	8.073
353.38	8.138
353.74	8.216
354.09	8.312
354.45	8.332
354.80	8.360
355.16	8.332
355.52	8.316
355.87	8.334
356.23	8.353
356.58	8.481
356.94	8.513
357.29	8.482
357.65	8.490
358.00	8.446
358.36	8.380
358.72	8.346
359.07	8.369
359.43	8.494
359.78	8.537
360.14	8.582
360.49	8.505
360.85	8.521
361.20	8.558
361.56	8.538
361.91	8.570
362.27	8.605
362.62	8.673
362.98	8.774
363.33	8.777
363.69	8.795
364.04	8.776
364.40	8.850
364.75	8.822
365.11	8.789
365.46	8.756
365.82	8.786
366.17	8.866
366.53	8.913
366.88	8.910
367.24	8.885
367.59	8.907
367.95	8.956
368.30	8.890
368.66	8.946
369.01	8.929
369.37	9.025
369.72	9.049
370.08	9.039
370.43	9.017
370.78	8.972
371.14	9.010
371.49	9.018
371.85	9.042
372.20	9.162
372.56	9.198
372.91	9.258
373.26	9.276
373.62	9.282
373.97	9.273
374.33	9.233
374.68	9.302
375.03	9.308
375.39	9.373
375.74	9.368
376.10	9.350
376.45	9.379
376.80	9.459
377.16	9.501
377.51	9.536
377.87	9.556
378.22	9.565
378.57	9.579
378.93	9.632
379.28	9.585
379.63	9.688
379.99	9.756
380.34	9.803
380.70	9.767
381.05	9.802
381.40	9.847
381.76	9.946
382.11	10.106
382.46	10.173
382.82	10.296
383.17	10.493
383.52	10.571
383.88	10.585
384.23	10.581
384.58	10.698
384.94	10.737
385.29	10.798
385.64	10.777
385.99	10.809
386.35	10.872
386.70	10.843
387.05	10.810
387.41	10.826
387.76	10.895
388.11	10.938
388.47	10.999
388.82	11.096
389.17	11.129
389.52	11.184
389.88	11.186
390.23	11.194
390.58	11.242
390.93	11.298
391.29	11.319
391.64	11.326
391.99	11.376
392.34	11.367
392.70	11.371
393.05	11.359
393.40	11.456
393.75	11.487
394.11	11.561
394.46	11.581
394.81	11.563
395.16	11.570
395.52	11.674
395.87	11.637
396.22	11.659
396.57	11.646
396.92	11.682
397.28	11.643
397.63	11.663
397.98	11.653
398.33	11.686
398.68	11.735
399.04	11.766
399.39	11.692
399.74	11.751
400.09	11.796
400.44	11.820
400.80	11.840
401.15	11.875
401.50	11.910
401.85	11.932
402.20	11.937
402.55	11.943
402.90	11.916
403.26	11.981
403.61	12.053
403.96	12.076
404.31	12.109
404.66	12.161
405.01	12.159
405.36	12.186
405.72	12.225
406.07	12.222
406.42	12.275
406.77	12.302
407.12	12.290
407.47	12.263
407.82	12.275
408.17	12.286
408.53	12.245
408.88	12.237
409.23	12.206
409.58	12.159
409.93	12.171
410.28	12.123
410.63	12.152
410.98	12.156
411.33	12.152
411.68	12.142
412.03	12.115
412.38	12.135
412.73	12.153
413.09	12.125
413.44	12.123
413.79	12.130
414.14	12.125
414.49	12.107
414.84	12.079
415.19	12.076
415.54	12.069
415.89	12.060
416.24	12.036
416.59	12.031
416.94	11.993
417.29	11.961
417.64	11.952
417.99	11.965
418.34	11.949
418.69	11.952
419.04	11.925
419.39	11.906
419.74	11.898
420.09	11.904
420.44	11.877
420.79	11.923
421.14	11.942
421.49	11.942
421.84	11.920
422.19	11.893
422.54	11.887
422.89	11.914
423.24	11.912
423.59	11.915
423.94	11.898
424.29	11.915
424.64	11.900
424.99	11.904
425.34	11.906
425.68	11.901
426.03	11.957
426.38	11.943
426.73	11.926
427.08	11.931
427.43	11.915
427.78	11.951
428.13	11.949
428.48	11.961
428.83	11.967
429.18	11.982
429.53	12.010
429.87	12.023
430.22	12.027
430.57	12.029
430.92	12.033
431.27	12.051
431.62	12.047
431.97	12.052
432.32	12.043
432.67	12.029
433.01	11.994
433.36	11.987
433.71	11.988
434.06	12.001
434.41	12.003
434.76	12.020
435.11	12.010
435.45	11.998
435.80	12.001
436.15	12.007
436.50	12.022
436.85	12.022
437.20	11.999
437.54	11.979
437.89	11.990
438.24	12.001
438.59	11.997
438.94	12.009
439.29	12.026
439.63	12.024
439.98	12.034
440.33	12.033
440.68	12.047
441.03	12.084
441.37	12.064
441.72	12.055
442.07	12.039
442.42	12.028
442.76	11.980
443.11	11.948
443.46	11.930
443.81	11.916
444.16	11.903
444.50	11.916
444.85	11.901
445.20	11.915
445.55	11.906
445.89	11.889
446.24	11.881
446.59	11.916
446.94	11.943
447.28	11.956
447.63	11.928
447.98	11.915
448.32	11.879
448.67	11.877
449.02	11.872
449.37	11.868
449.71	11.857
450.06	11.843
450.41	11.819
450.75	11.786
451.10	11.798
451.45	11.830
451.79	11.841
452.14	11.833
452.49	11.826
452.84	11.825
453.18	11.811
453.53	11.845
453.88	11.874
454.22	11.899
454.57	11.912
454.92	11.888
455.26	11.884
455.61	11.904
455.95	11.914
456.30	11.923
456.65	11.934
456.99	11.969
457.34	11.973
457.69	11.964
458.03	11.980
458.38	11.991
458.73	12.021
459.07	12.055
459.42	12.082
459.76	12.131
460.11	12.184
460.46	12.227
460.80	12.241
461.15	12.273
461.49	12.306
461.84	12.343
462.19	12.384
462.53	12.439
462.88	12.450
463.22	12.484
463.57	12.511
463.91	12.518
464.26	12.545
464.61	12.621
464.95	12.656
465.30	12.718
465.64	12.718
465.99	12.736
466.33	12.746
466.68	12.797
467.02	12.788
467.37	12.803
467.71	12.820
468.06	12.858
468.41	12.831
468.75	12.878
469.10	12.895
469.44	12.940
469.79	12.945
470.13	12.976
470.48	12.973
470.82	13.010
471.17	13.021
471.51	13.030
471.86	12.996
472.20	13.033
472.55	13.022
472.89	13.013
473.23	13.016
473.58	13.055
473.92	13.031
474.27	13.012
474.61	12.988
474.96	12.985
475.30	13.017
475.65	13.042
475.99	13.034
476.34	13.040
476.68	13.041
477.02	13.049
477.37	13.033
477.71	13.037
478.06	13.044
478.40	13.052
478.75	13.053
479.09	13.044
479.43	13.076
479.78	13.114
480.12	13.161
480.47	13.224
480.81	13.274
481.15	13.338
481.50	13.395
481.84	13.469
482.19	13.524
482.53	13.587
482.87	13.632
483.22	13.668
483.56	13.694
483.90	13.709
484.25	13.717
484.59	13.726
484.94	13.718
485.28	13.717
485.62	13.694
485.97	13.692
486.31	13.685
486.65	13.697
487.00	13.705
487.34	13.705
487.68	13.742
488.03	13.761
488.37	13.780
488.71	13.816
489.06	13.853
489.40	13.890
489.74	13.918
490.09	13.956
490.43	13.981
490.77	14.026
491.11	14.089
491.46	14.104
491.80	14.138
492.14	14.191
492.49	14.235
492.83	14.299
493.17	14.374
493.51	14.468
493.86	14.545
494.20	14.616
494.54	14.693
494.88	14.775
495.23	14.859
495.57	14.953
495.91	15.031
496.25	15.119
496.60	15.186
496.94	15.279
497.28	15.363
497.62	15.451
497.97	15.572
498.31	15.653
498.65	15.744
498.99	15.867
499.33	15.983
499.68	16.100
500.02	16.176
500.36	16.312
500.70	16.403
501.04	16.517
501.39	16.617
501.73	16.727
502.07	16.840
502.41	16.970
502.75	17.072
503.09	17.177
503.44	17.292
503.78	17.427
504.12	17.526
504.46	17.632
504.80	17.724
505.14	17.840
505.49	17.943
505.83	18.048
506.17	18.140
506.51	18.257
506.85	18.349
507.19	18.442
507.53	18.550
507.87	18.619
508.22	18.689
508.56	18.774
508.90	18.873
509.24	18.941
509.58	19.037
509.92	19.127
510.26	19.194
510.60	19.298
510.94	19.380
511.28	19.452
511.63	19.551
511.97	19.669
512.31	19.789
512.65	19.876
512.99	19.998
513.33	20.100
513.67	20.179
514.01	20.287
514.35	20.395
514.69	20.490
515.03	20.579
515.37	20.688
515.71	20.755
516.05	20.823
516.39	20.891
516.73	20.950
517.07	21.020
517.41	21.098
517.75	21.158
518.09	21.221
518.43	21.277
518.77	21.346
519.11	21.418
519.45	21.477
519.79	21.522
520.13	21.568
520.47	21.598
520.81	21.632
521.15	21.696
521.49	21.740
521.83	21.760
522.17	21.816
522.51	21.875
522.85	21.889
523.19	21.951
523.53	22.043
523.87	22.181
524.21	22.321
524.55	22.457
524.89	22.544
525.23	22.650
525.57	22.752
525.91	22.850
526.25	22.915
526.58	22.988
526.92	23.069
527.26	23.125
527.60	23.149
527.94	23.177
528.28	23.186
528.62	23.200
528.96	23.193
529.30	23.177
529.64	23.160
529.97	23.173
530.31	23.183
530.65	23.171
530.99	23.172
531.33	23.156
531.67	23.147
532.01	23.144
532.35	23.156
532.68	23.168
533.02	23.179
533.36	23.196
533.70	23.192
534.04	23.192
534.38	23.204
534.71	23.203
535.05	23.239
535.39	23.242
535.73	23.260
536.07	23.250
536.41	23.267
536.74	23.300
537.08	23.303
537.42	23.334
537.76	23.365
538.10	23.370
538.43	23.405
538.77	23.429
539.11	23.475
539.45	23.492
539.79	23.553
540.12	23.587
540.46	23.617
540.80	23.643
541.14	23.665
541.47	23.667
541.81	23.682
542.15	23.685
542.49	23.677
542.82	23.681
543.16	23.709
543.50	23.696
543.84	23.668
544.17	23.640
544.51	23.640
544.85	23.637
545.18	23.643
545.52	23.654
545.86	23.679
546.20	23.702
546.53	23.704
546.87	23.676
547.21	23.678
547.54	23.702
547.88	23.725
548.22	23.745
548.55	23.746
548.89	23.722
549.23	23.747
549.56	23.685
549.90	23.663
550.24	23.669
550.57	23.671
550.91	23.644
551.25	23.619
551.58	23.641
551.92	23.632
552.26	23.648
552.59	23.667
552.93	23.645
553.27	23.666
553.60	23.684
553.94	23.676
554.27	23.680
554.61	23.677
554.95	23.715
555.28	23.689
555.62	23.684
555.95	23.642
556.29	23.660
556.63	23.656
556.96	23.659
557.30	23.678
557.63	23.671
557.97	23.668
558.31	23.706
558.64	23.686
558.98	23.714
559.31	23.673
559.65	23.661
559.98	23.625
560.32	23.635
560.65	23.646
560.99	23.608
561.33	23.575
561.66	23.554
562.00	23.512
562.33	23.501
562.67	23.458
563.00	23.470
563.34	23.461
563.67	23.430
564.01	23.414
564.34	23.378
564.68	23.384
565.01	23.361
565.35	23.344
565.68	23.305
566.02	23.281
566.35	23.260
566.69	23.253
567.02	23.232
567.36	23.237
567.69	23.215
568.03	23.192
568.36	23.141
568.69	23.130
569.03	23.131
569.36	23.134
569.70	23.143
570.03	23.091
570.37	23.037
570.70	23.021
571.04	22.976
571.37	22.956
571.70	22.952
572.04	22.957
572.37	22.948
572.71	22.915
573.04	22.899
573.37	22.850
573.71	22.858
574.04	22.858
574.38	22.838
574.71	22.843
575.04	22.822
575.38	22.796
575.71	22.753
576.05	22.724
576.38	22.657
576.71	22.619
577.05	22.611
577.38	22.582
577.71	22.558
578.05	22.511
578.38	22.481
578.71	22.477
579.05	22.467
579.38	22.430
579.71	22.395
580.05	22.410
580.38	22.395
580.71	22.344
581.05	22.313
581.38	22.242
581.71	22.223
582.05	22.171
582.38	22.076
582.71	22.025
583.04	21.998
583.38	21.960
583.71	21.902
584.04	21.858
584.38	21.839
584.71	21.834
585.04	21.787
585.37	21.745
585.71	21.723
586.04	21.669
586.37	21.657
586.70	21.637
587.04	21.653
587.37	21.629
587.70	21.587
588.03	21.524
588.37	21.461
588.70	21.449
589.03	21.401
589.36	21.360
589.69	21.317
590.03	21.229
590.36	21.179
590.69	21.115
591.02	21.029
591.35	20.952
591.69	20.898
592.02	20.842
592.35	20.771
592.68	20.686
593.01	20.609
593.35	20.555
593.68	20.512
594.01	20.453
594.34	20.359
594.67	20.333
595.00	20.315
595.34	20.281
595.67	20.226
596.00	20.211
596.33	20.214
596.66	20.208
596.99	20.203
597.32	20.155
597.65	20.094
597.99	20.056
598.32	19.989
598.65	19.901
598.98	19.804
599.31	19.719
599.64	19.620
599.97	19.545
600.30	19.449
600.63	19.389
600.96	19.334
601.30	19.305
601.63	19.279
601.96	19.249
602.29	19.229
602.62	19.224
602.95	19.209
603.28	19.205
603.61	19.176
603.94	19.150
604.27	19.093
604.60	19.047
604.93	18.986
605.26	18.911
605.59	18.831
605.92	18.764
606.25	18.676
606.58	18.578
606.91	18.481
607.24	18.433
607.57	18.384
607.90	18.374
608.23	18.342
608.56	18.322
608.89	18.234
609.22	18.212
609.55	18.158
609.88	18.156
610.21	18.156
610.54	18.119
610.87	18.066
611.20	18.033
611.53	17.933
611.86	17.847
612.19	17.777
612.52	17.766
612.85	17.683
613.18	17.615
613.51	17.486
613.84	17.426
614.17	17.379
614.49	17.282
614.82	17.198
615.15	17.153
615.48	17.136
615.81	17.065
616.14	17.087
616.47	17.063
616.80	17.050
617.13	17.061
617.46	17.003
617.78	17.003
618.11	16.956
618.44	16.891
618.77	16.815
619.10	16.809
619.43	16.737
619.76	16.634
620.09	16.593
620.41	16.561
620.74	16.493
621.07	16.425
621.40	16.258
621.73	16.224
622.06	16.154
622.38	16.134
622.71	16.028
623.04	15.976
623.37	15.926
623.70	15.885
624.02	15.850
624.35	15.838
624.68	15.822
625.01	15.849
625.34	15.838
625.66	15.840
625.99	15.852
626.32	15.809
626.65	15.825
626.98	15.795
627.30	15.768
627.63	15.746
627.96	15.671
628.29	15.620
628.61	15.544
628.94	15.447
629.27	15.402
629.60	15.267
629.92	15.218
630.25	15.138
630.58	15.045
630.91	14.979
631.23	14.906
631.56	14.860
631.89	14.788
632.21	14.784
632.54	14.738
632.87	14.693
633.19	14.690
633.52	14.660
633.85	14.625
634.18	14.654
634.50	14.663
634.83	14.609
635.16	14.581
635.48	14.587
635.81	14.522
636.14	14.488
636.46	14.423
636.79	14.385
637.11	14.371
637.44	14.337
637.77	14.271
638.09	14.173
638.42	14.138
638.75	14.052
639.07	13.991
639.40	13.990
639.73	13.924
640.05	13.848
640.38	13.821
640.70	13.768
641.03	13.741
641.36	13.687
641.68	13.634
642.01	13.607
642.33	13.604
642.66	13.570
642.98	13.448
643.31	13.473
643.64	13.511
643.96	13.488
644.29	13.431
644.61	13.398
644.94	13.388
645.26	13.396
645.59	13.334
645.91	13.309
646.24	13.328
646.56	13.361
646.89	13.342
647.22	13.286
647.54	13.233
647.87	13.228
648.19	13.214
648.52	13.201
648.84	13.132
649.17	13.106
649.49	13.112
649.82	13.023
650.14	13.007
650.47	12.961
650.79	12.928
651.11	12.925
651.44	12.898
651.76	12.835
652.09	12.846
652.41	12.887
652.74	12.923
653.06	12.920
653.39	12.956
653.71	12.899
654.04	12.860
654.36	12.843
654.68	12.797
655.01	12.755
655.33	12.731
655.66	12.685
655.98	12.607
656.30	12.521
656.63	12.497
656.95	12.447
657.28	12.470
657.60	12.503
657.92	12.482
658.25	12.486
658.57	12.482
658.90	12.475
659.22	12.433
659.54	12.498
659.87	12.558
660.19	12.477
660.51	12.427
660.84	12.314
661.16	12.268
661.48	12.238
661.81	12.118
662.13	12.102
662.45	12.041
662.78	12.032
663.10	11.984
663.42	11.953
663.75	11.981
664.07	12.018
664.39	12.133
664.72	12.154
665.04	12.122
665.36	12.135
665.69	12.118
666.01	12.117
666.33	12.076
666.65	12.057
666.98	11.962
667.30	11.939
667.62	11.888
667.94	11.783
668.27	11.763
668.59	11.814
668.91	11.872
669.23	11.845
669.56	11.803
669.88	11.780
670.20	11.757
670.52	11.803
670.85	11.829
671.17	11.852
671.49	11.913
671.81	11.920
672.13	11.857
672.46	11.826
672.78	11.760
673.10	11.785
673.42	11.830
673.74	11.824
674.07	11.770
674.39	11.715
674.71	11.701
675.03	11.690
675.35	11.628
675.67	11.704
676.00	11.679
676.32	11.742
676.64	11.794
676.96	11.844
677.28	11.858
677.60	11.867
677.92	11.856
678.25	11.878
678.57	11.851
678.89	11.881
679.21	11.831
679.53	11.914
679.85	11.950
680.17	11.843
680.49	11.836
680.81	11.822
681.13	11.814
681.46	11.887
681.78	11.899
682.10	11.952
682.42	11.902
682.74	11.988
683.06	11.915
683.38	11.888
683.70	12.015
684.02	11.967
684.34	11.981
684.66	12.101
684.98	12.060
685.30	11.972
685.62	11.989
685.94	12.027
686.26	11.985
686.58	12.042
686.90	11.990
687.22	12.040
687.54	11.949
687.86	11.908
688.18	11.803
688.50	11.938
688.82	12.049
689.14	11.969
689.46	11.950
689.78	11.949
690.10	11.841
690.42	11.928
690.74	11.860
691.06	11.968
691.38	12.006
691.70	12.023
692.02	11.873
692.34	11.884
692.66	11.865
692.98	11.864
693.30	11.750
693.62	11.856
693.94	11.833
694.26	11.846
694.57	11.808
694.89	11.777
695.21	11.816
695.53	11.840
695.85	11.745
696.17	11.767
696.49	11.721
696.81	11.814
697.13	11.738
697.44	11.778
697.76	11.733
698.08	11.775
698.40	11.763
698.72	11.662
699.04	11.587
699.36	11.580
699.67	11.542
699.99	11.608
700.31	11.503
700.63	11.534
700.95	11.398
701.27	11.366
701.58	11.313
701.90	11.255
702.22	11.366
702.54	11.390
702.86	11.435
703.17	11.535
703.49	11.432
703.81	11.444
704.13	11.397
704.45	11.450
704.76	11.382
705.08	11.338
705.40	11.402
705.72	11.377
706.03	11.231
706.35	11.205
706.67	11.009
706.99	11.089
707.30	11.059
707.62	11.073
707.94	11.010
708.26	11.103
708.57	11.120
708.89	11.141
709.21	11.099
709.53	11.249
709.84	11.260
710.16	11.395
710.48	11.314
710.79	11.421
711.11	11.397
711.43	11.360
711.74	11.365
712.06	11.447
712.38	11.363
712.69	11.427
713.01	11.446
713.33	11.459
713.64	11.404
713.96	11.492
714.28	11.373
714.59	11.437
714.91	11.495
715.23	11.462
715.54	11.397
715.86	11.524
716.17	11.522
716.49	11.445
716.81	11.408
717.12	11.391
717.44	11.397
717.76	11.527
718.07	11.478
718.39	11.574
718.70	11.582
719.02	11.631
719.33	11.485
719.65	11.444
719.97	11.401
720.28	11.519
720.60	11.491
720.91	11.557
721.23	11.509
721.54	11.677
721.86	11.618
722.17	11.774
722.49	11.674
722.81	11.796
723.12	11.710
723.44	11.850
723.75	11.763
724.07	11.852
724.38	11.781
724.70	11.733
725.01	11.568
725.33	11.479
725.64	11.409
725.96	11.493
726.27	11.455
726.59	11.442
726.90	11.391
727.22	11.360
727.53	11.388
727.84	11.455
728.16	11.386
728.47	11.386
728.79	11.441
729.10	11.473
729.42	11.392
729.73	11.400
730.05	11.399
730.36	11.336
730.67	11.338
730.99	11.276
731.30	11.169
731.62	11.293
731.93	11.276
732.24	11.235
732.56	11.137
732.87	11.144
733.19	11.113
733.50	11.120
733.81	11.158
734.13	11.162
734.44	11.238
734.76	11.348
735.07	11.372
735.38	11.294
735.70	11.315
736.01	11.128
736.32	11.106
736.64	11.187
736.95	11.223
737.26	11.143
737.58	11.154
737.89	11.022
738.20	10.854
738.52	10.726
738.83	10.906
739.14	10.880
739.45	10.943
739.77	10.894
740.08	10.813
740.39	10.897
740.71	10.925
741.02	10.872
741.33	10.905
741.64	10.970
741.96	11.032
742.27	10.939
742.58	10.967
742.90	11.137
743.21	11.075
743.52	11.030
743.83	10.850
744.14	10.932
744.46	10.829
744.77	10.925
745.08	10.800
745.39	10.541
745.71	10.483
746.02	10.340
746.33	10.437
746.64	10.532
746.95	10.405
747.27	10.477
747.58	10.490
747.89	10.539
748.20	10.414
748.51	10.593
748.82	10.744
749.14	10.954
749.45	11.108
749.76	10.911
750.07	11.024
750.38	11.163
750.69	11.193
751.01	11.352
751.32	11.540
751.63	11.628
751.94	11.407
752.25	11.681
752.56	11.518
752.87	11.503
753.18	11.505
753.49	11.505
753.81	11.706
754.12	11.590
754.43	11.243
754.74	11.234
755.05	11.045
755.36	11.307
755.67	11.036
755.98	11.123
756.29	11.067
756.60	11.189
756.91	11.069
757.22	10.874
757.53	10.874
757.84	10.946
758.15	10.840
758.46	11.059
758.77	11.059
759.09	11.151
759.40	11.167
759.71	11.159
760.02	11.073
760.33	11.117
760.64	11.042
760.95	10.986
761.26	11.135
761.57	11.103
761.88	11.101
762.18	11.032
762.49	11.080
762.80	10.949
763.11	10.936
763.42	10.995
763.73	11.032
764.04	11.086
764.35	11.137
764.66	11.063
764.97	11.107
765.28	11.084
765.59	11.002
765.90	11.020
766.21	11.186
766.52	11.269
766.83	11.206
767.14	10.948
767.44	10.893
767.75	10.960
768.06	11.007
768.37	10.907
768.68	10.723
768.99	10.966
769.30	11.101
769.61	10.925
769.91	11.058
770.22	11.131
770.53	11.386
770.84	11.134
771.15	11.384
771.46	11.065
771.77	11.100
772.07	11.309
772.38	10.958
772.69	10.655
773.00	10.895
773.31	10.724
773.61	10.826
773.92	10.986
774.23	11.026
774.54	10.708
774.85	10.790
775.15	10.589
775.46	10.284
775.77	10.243
776.08	9.891
776.39	9.711
776.69	9.531
777.00	9.330
777.31	9.078
777.62	9.263
777.92	9.168
778.23	9.507
778.54	9.856
778.85	10.233
779.15	10.550
779.46	10.948
779.77	10.949
780.07	11.075
780.38	11.047
780.69	11.281
781.00	10.962
781.30	11.068
781.61	10.896
781.92	10.619
782.22	10.042
782.53	9.946
782.84	9.760
783.14	9.613
783.45	9.834
783.76	9.955
784.06	9.810
784.37	10.639
784.68	10.458
784.98	10.563
785.29	10.885
785.60	11.505
785.90	11.504
786.21	11.760
786.51	11.765
786.82	11.567
787.13	11.563
787.43	11.359
787.74	10.948
788.04	11.246
788.35	11.091
788.66	11.042
788.96	10.683
789.27	11.074
789.57	10.992
789.88	10.942
790.19	11.020
790.49	10.905
790.80	11.108
791.10	11.494
791.41	11.490
791.71	11.355
792.02	11.214
792.32	11.483
792.63	11.172
792.93	10.848
793.24	10.772
793.54	10.488
793.85	10.451
794.15	10.250
794.46	10.241
794.76	10.136
795.07	10.546
795.37	10.594
795.68	10.409
795.98	10.296
796.29	10.365
796.59	10.794
796.90	11.081
797.20	11.277
797.51	11.400
797.81	11.086
798.12	10.958
798.42	10.866
798.72	10.944
799.03	11.244
799.33	11.486
799.64	11.581
799.94	11.730
800.25	11.803
800.55	11.490
800.85	11.138
801.16	11.169
801.46	11.341
801.77	11.253
802.07	11.739
802.37	11.681
802.68	11.326
802.98	11.380
803.28	11.310
803.59	11.276
803.89	11.794
804.20	12.318
804.50	12.441
804.80	12.740
805.11	12.934
805.41	12.212
805.71	11.936
806.02	12.550
806.32	13.231
806.62	13.219
806.93	12.996
807.23	12.063
807.53	12.332
807.83	12.354
808.14	12.486
808.44	12.425
808.74	12.787
809.05	12.801
809.35	12.164
809.65	11.537
809.95	11.437
810.26	11.235
810.56	12.105
810.86	12.035
811.16	12.712
811.47	11.995
811.77	11.865
812.07	11.269
812.37	11.058
812.68	11.179
812.98	11.066
813.28	11.342
813.58	12.042
813.88	12.180
814.19	11.695
814.49	10.585
814.79	10.744
815.09	10.074
815.39	10.539
815.70	11.259
816.00	11.828
816.30	11.776
816.60	11.565
816.90	11.562
817.20	11.079
817.50	11.388
817.81	11.615
818.11	11.771
818.41	11.995
818.71	11.947
819.01	11.809
819.31	11.693
819.61	11.765
819.92	11.762
820.22	11.856
820.52	11.924
820.82	11.928
821.12	11.998
821.42	12.032
821.72	12.067
822.02	12.048
822.32	12.061
822.62	12.136
822.92	12.111
823.22	12.100
823.52	12.012
823.83	12.009
824.13	11.958
824.43	11.863
824.73	11.892
825.03	11.984
825.33	12.019
825.63	12.074
825.93	11.884
826.23	11.982
826.53	12.014
826.83	12.132
827.13	12.170
827.43	12.244
827.73	12.348
828.03	12.355
828.33	12.192
828.63	12.212
828.93	12.151
829.23	12.451
829.53	12.555
829.83	12.804
830.13	12.682
830.42	12.830
830.72	12.936
831.02	12.800
831.32	12.590
831.62	12.708
831.92	13.034
832.22	12.974
832.52	12.874
832.82	12.645
833.12	12.309
833.42	12.240
833.72	12.110
834.01	11.889
834.31	12.297
834.61	12.530
834.91	12.572
835.21	12.407
835.51	12.657
835.81	12.665
836.11	12.908
836.40	13.565
836.70	13.864
837.00	14.273
837.30	14.348
837.60	14.349
837.90	14.228
838.19	14.320
838.49	14.007
838.79	13.805
839.09	13.236
839.39	13.077
839.68	12.387
839.98	12.349
840.28	12.415
840.58	12.652
840.88	12.192
841.17	12.291
841.47	11.782
841.77	11.436
842.07	11.595
842.36	12.312
842.66	12.718
842.96	12.327
843.26	12.845
843.55	12.147
843.85	12.314
844.15	12.723
844.45	11.054
844.74	10.428
845.04	11.541
845.34	10.941
845.63	10.886
845.93	10.473
846.23	10.648
846.53	10.214
846.82	10.863
847.12	10.924
847.42	9.746
847.71	11.451
848.01	11.987
848.31	11.939
848.60	11.700
848.90	11.760
849.19	11.177
849.49	12.753
849.79	12.366
850.08	11.653
850.38	10.824
850.68	9.659
850.97	10.014
851.27	11.326
851.56	11.138
851.86	12.138
852.16	12.282
852.45	12.874
852.75	11.640
853.04	11.865
853.34	13.609
853.64	15.099
853.93	14.834
854.23	14.819
854.52	14.064
854.82	15.353
855.11	15.998
855.41	15.231
855.70	13.405
856.00	12.377
856.30	12.081
856.59	10.332
856.89	12.233
857.18	14.161
857.48	13.974
857.77	15.479
858.07	14.248
858.36	12.872
858.66	12.484
858.95	13.299
859.25	13.480
859.54	13.252
859.84	14.598
860.13	12.603
860.42	12.011
860.72	12.676
861.01	10.867
861.31	9.535
861.60	8.591
861.90	8.554
862.19	9.726
862.49	11.392
862.78	11.754
863.07	9.932
863.37	8.129
863.66	9.261
863.96	9.548
864.25	10.443
864.54	9.772
864.84	10.604
865.13	10.776
865.43	11.191
865.72	20.817
866.01	-8.243
866.31	10.676
866.60	5.182
866.89	16.911
>>>>>End Spectral Data<<<<<
