OOIBase32 Version 2.0.0.6 Data File
++++++++++++++++++++++++++++++++++++
Date: 01-20-2012, 23:14:07
User: Valued Ocean Optics Customer
Spectrometer Serial Number: USB2E2917
Spectrometer Channel: Master
Integration Time (msec): 3
Spectra Averaged: 10
Boxcar Smoothing: 5
Correct for Electrical Dark: Enabled
Time Normalized: Disabled
Dual-beam Reference: Disabled
Reference Channel: Master
Temperature: Not acquired
Spectrometer Type: S2000
ADC Type: USB2000
Number of Pixels in File: 2048
Graph Title: 
>>>>>Begin Spectral Data<<<<<
180.30	0.000
180.67	0.000
181.03	41.860
181.40	140.217
181.77	266.473
182.14	-483.417
182.51	166.874
182.88	214.679
183.25	-68.883
183.62	520.677
183.99	68.937
184.36	76.048
184.73	180.697
185.10	134.765
185.46	66.030
185.83	527.796
186.20	8.903
186.57	-36.864
186.94	-22.299
187.31	185.757
187.68	237.144
188.05	160.863
188.42	112.083
188.78	60.086
189.15	53.134
189.52	62.792
189.89	41.087
190.26	42.647
190.63	40.033
191.00	30.753
191.37	34.522
191.73	35.003
192.10	37.204
192.47	38.307
192.84	38.884
193.21	24.734
193.58	1.073
193.94	7.350
194.31	-9.274
194.68	-35.544
195.05	-24.061
195.42	-24.610
195.79	-30.287
196.15	-47.696
196.52	-29.707
196.89	-36.134
197.26	-36.273
197.63	-14.360
198.00	-114.172
198.36	-189.958
198.73	2157.610
199.10	-7090.676
199.47	940.742
199.84	-421.320
200.20	-241.999
200.57	-421.662
200.94	-2290.262
201.31	-835.183
201.68	-390.999
202.04	-76.295
202.41	-39.721
202.78	-25.792
203.15	-19.696
203.51	-8.121
203.88	-26.304
204.25	-10.118
204.62	6.807
204.98	14.106
205.35	44.604
205.72	63.792
206.09	41.472
206.46	22.716
206.82	29.598
207.19	18.765
207.56	20.955
207.92	20.394
208.29	27.509
208.66	37.826
209.03	30.295
209.39	18.124
209.76	6.906
210.13	7.850
210.50	21.814
210.86	20.312
211.23	35.216
211.60	29.924
211.96	30.096
212.33	18.877
212.70	8.749
213.07	20.341
213.43	30.603
213.80	29.662
214.17	29.635
214.53	38.275
214.90	45.085
215.27	42.013
215.63	42.326
216.00	52.668
216.37	59.428
216.74	56.569
217.10	45.744
217.47	38.274
217.84	34.600
218.20	27.637
218.57	13.998
218.94	9.935
219.30	6.056
219.67	2.816
220.04	-2.834
220.40	-2.822
220.77	-15.773
221.13	-15.431
221.50	-16.112
221.87	-22.876
222.23	-24.386
222.60	-25.486
222.97	-19.964
223.33	-10.331
223.70	-1.053
224.07	-4.438
224.43	-1.670
224.80	4.612
225.16	2.558
225.53	2.886
225.90	3.818
226.26	5.384
226.63	6.820
226.99	6.227
227.36	4.306
227.73	2.240
228.09	1.331
228.46	-0.104
228.82	-0.694
229.19	0.845
229.56	0.551
229.92	1.633
230.29	0.812
230.65	-0.277
231.02	-0.381
231.38	-0.039
231.75	0.564
232.12	1.120
232.48	1.520
232.85	1.441
233.21	1.227
233.58	3.171
233.94	2.767
234.31	2.855
234.68	2.717
235.04	2.351
235.41	1.861
235.77	1.750
236.14	2.174
236.50	1.458
236.87	1.437
237.23	0.108
237.60	-1.631
237.96	-1.537
238.33	-0.902
238.69	-1.685
239.06	-1.779
239.42	-0.763
239.79	-1.449
240.15	-1.495
240.52	-1.352
240.88	-1.317
241.25	-0.701
241.61	-0.924
241.98	-0.830
242.34	-0.092
242.71	0.637
243.07	0.890
243.44	0.339
243.80	0.670
244.17	0.857
244.53	1.242
244.90	1.449
245.26	1.592
245.63	1.822
245.99	1.553
246.36	1.115
246.72	0.777
247.09	0.527
247.45	0.483
247.81	0.468
248.18	0.578
248.54	0.332
248.91	0.144
249.27	-0.114
249.64	-0.117
250.00	0.188
250.36	0.131
250.73	0.766
251.09	1.514
251.46	1.592
251.82	1.250
252.19	0.144
252.55	0.683
252.91	0.732
253.28	0.814
253.64	1.080
254.01	0.725
254.37	1.012
254.73	0.749
255.10	0.262
255.46	0.750
255.83	0.876
256.19	1.252
256.55	0.606
256.92	0.310
257.28	0.183
257.65	0.172
258.01	0.265
258.37	0.017
258.74	0.124
259.10	0.028
259.46	-0.160
259.83	-0.050
260.19	0.338
260.55	0.576
260.92	0.836
261.28	1.017
261.64	1.029
262.01	1.076
262.37	1.573
262.73	1.774
263.10	2.211
263.46	2.308
263.82	2.375
264.19	2.027
264.55	1.845
264.91	1.999
265.28	1.945
265.64	1.937
266.00	2.080
266.37	1.998
266.73	1.725
267.09	1.326
267.46	1.279
267.82	1.370
268.18	1.405
268.54	1.599
268.91	1.570
269.27	1.504
269.63	1.280
270.00	0.923
270.36	0.653
270.72	0.527
271.08	0.951
271.45	1.015
271.81	0.763
272.17	0.778
272.53	0.753
272.90	0.630
273.26	0.449
273.62	0.459
273.98	0.562
274.35	0.997
274.71	1.223
275.07	0.913
275.43	0.655
275.80	0.453
276.16	0.185
276.52	-0.097
276.88	-0.401
277.25	-0.111
277.61	0.254
277.97	0.252
278.33	0.033
278.69	0.022
279.06	0.211
279.42	0.531
279.78	0.871
280.14	0.963
280.50	0.924
280.87	1.017
281.23	0.718
281.59	0.564
281.95	0.458
282.31	0.383
282.68	0.328
283.04	0.260
283.40	0.352
283.76	0.249
284.12	0.186
284.48	0.347
284.85	0.624
285.21	1.050
285.57	0.891
285.93	1.125
286.29	1.267
286.65	1.250
287.02	1.399
287.38	1.387
287.74	1.596
288.10	1.687
288.46	1.762
288.82	1.644
289.18	1.511
289.54	1.759
289.91	1.804
290.27	1.859
290.63	1.942
290.99	1.847
291.35	1.805
291.71	1.853
292.07	2.063
292.43	2.382
292.79	2.606
293.16	2.847
293.52	3.025
293.88	3.089
294.24	3.382
294.60	3.658
294.96	4.007
295.32	4.289
295.68	4.527
296.04	4.605
296.40	4.466
296.76	4.496
297.12	4.694
297.49	4.976
297.85	5.162
298.21	5.346
298.57	5.672
298.93	5.922
299.29	6.088
299.65	6.391
300.01	6.842
300.37	7.525
300.73	8.194
301.09	8.399
301.45	8.512
301.81	8.842
302.17	9.140
302.53	9.504
302.89	9.804
303.25	10.131
303.61	10.449
303.97	10.618
304.33	10.504
304.69	10.524
305.05	10.636
305.41	10.935
305.77	11.231
306.13	11.110
306.49	11.153
306.85	11.242
307.21	11.292
307.57	11.359
307.93	11.437
308.29	11.714
308.65	11.910
309.01	12.024
309.37	12.268
309.73	12.339
310.09	12.550
310.45	12.532
310.81	12.694
311.17	12.888
311.53	12.969
311.89	13.113
312.25	13.140
312.61	13.018
312.96	13.204
313.32	13.089
313.68	13.263
314.04	13.461
314.40	13.669
314.76	13.473
315.12	13.495
315.48	13.495
315.84	13.428
316.20	13.388
316.56	13.447
316.92	13.487
317.27	13.439
317.63	13.292
317.99	13.231
318.35	13.113
318.71	13.212
319.07	13.172
319.43	13.034
319.79	13.140
320.15	13.380
320.50	13.452
320.86	13.384
321.22	13.400
321.58	13.407
321.94	13.212
322.30	13.269
322.66	13.329
323.01	13.323
323.37	13.479
323.73	13.462
324.09	13.305
324.45	13.323
324.81	13.344
325.17	13.314
325.52	13.356
325.88	13.546
326.24	13.583
326.60	13.527
326.96	13.701
327.31	13.657
327.67	13.688
328.03	13.760
328.39	13.755
328.75	13.696
329.11	13.764
329.46	13.721
329.82	13.563
330.18	13.531
330.54	13.549
330.90	13.298
331.25	13.306
331.61	13.350
331.97	13.265
332.33	13.148
332.68	13.171
333.04	13.018
333.40	12.952
333.76	12.978
334.11	12.933
334.47	12.845
334.83	12.966
335.19	12.814
335.54	12.572
335.90	12.478
336.26	12.513
336.62	12.529
336.97	12.660
337.33	12.717
337.69	12.748
338.05	12.669
338.40	12.629
338.76	12.507
339.12	12.661
339.48	12.841
339.83	12.865
340.19	12.859
340.55	12.744
340.90	12.646
341.26	12.654
341.62	12.643
341.97	12.611
342.33	12.572
342.69	12.569
343.04	12.392
343.40	12.353
343.76	12.261
344.12	12.187
344.47	12.116
344.83	12.093
345.19	12.000
345.54	11.877
345.90	11.888
346.26	11.874
346.61	11.826
346.97	11.895
347.32	11.671
347.68	11.732
348.04	11.761
348.39	11.760
348.75	11.795
349.11	11.771
349.46	11.797
349.82	11.768
350.18	11.818
350.53	11.762
350.89	11.749
351.24	11.911
351.60	11.882
351.96	11.782
352.31	11.752
352.67	11.719
353.02	11.713
353.38	11.709
353.74	11.689
354.09	11.660
354.45	11.755
354.80	11.725
355.16	11.617
355.52	11.575
355.87	11.637
356.23	11.652
356.58	11.619
356.94	11.523
357.29	11.472
357.65	11.439
358.00	11.390
358.36	11.353
358.72	11.298
359.07	11.344
359.43	11.307
359.78	11.300
360.14	11.208
360.49	11.197
360.85	11.277
361.20	11.296
361.56	11.259
361.91	11.186
362.27	11.084
362.62	11.089
362.98	10.975
363.33	10.999
363.69	10.940
364.04	11.002
364.40	11.020
364.75	10.962
365.11	10.887
365.46	10.916
365.82	10.954
366.17	11.028
366.53	10.967
366.88	10.983
367.24	10.900
367.59	10.947
367.95	10.912
368.30	10.849
368.66	10.866
369.01	10.843
369.37	10.798
369.72	10.835
370.08	10.822
370.43	10.796
370.78	10.820
371.14	10.842
371.49	10.746
371.85	10.737
372.20	10.735
372.56	10.677
372.91	10.720
373.26	10.680
373.62	10.596
373.97	10.555
374.33	10.601
374.68	10.602
375.03	10.577
375.39	10.553
375.74	10.529
376.10	10.488
376.45	10.415
376.80	10.411
377.16	10.369
377.51	10.361
377.87	10.321
378.22	10.257
378.57	10.261
378.93	10.242
379.28	10.239
379.63	10.212
379.99	10.104
380.34	10.131
380.70	10.099
381.05	10.081
381.40	10.051
381.76	10.072
382.11	10.047
382.46	9.963
382.82	9.928
383.17	9.902
383.52	9.877
383.88	9.967
384.23	9.941
384.58	9.891
384.94	9.911
385.29	9.893
385.64	9.835
385.99	9.798
386.35	9.831
386.70	9.859
387.05	9.776
387.41	9.761
387.76	9.686
388.11	9.683
388.47	9.618
388.82	9.622
389.17	9.605
389.52	9.574
389.88	9.545
390.23	9.527
390.58	9.500
390.93	9.532
391.29	9.504
391.64	9.511
391.99	9.455
392.34	9.442
392.70	9.400
393.05	9.344
393.40	9.367
393.75	9.397
394.11	9.321
394.46	9.307
394.81	9.253
395.16	9.240
395.52	9.176
395.87	9.146
396.22	9.168
396.57	9.106
396.92	9.081
397.28	9.031
397.63	9.008
397.98	8.948
398.33	8.898
398.68	8.922
399.04	8.904
399.39	8.891
399.74	8.832
400.09	8.835
400.44	8.824
400.80	8.814
401.15	8.751
401.50	8.719
401.85	8.700
402.20	8.666
402.55	8.595
402.90	8.521
403.26	8.502
403.61	8.500
403.96	8.405
404.31	8.364
404.66	8.338
405.01	8.335
405.36	8.313
405.72	8.296
406.07	8.249
406.42	8.246
406.77	8.241
407.12	8.215
407.47	8.198
407.82	8.174
408.17	8.141
408.53	8.102
408.88	8.077
409.23	8.062
409.58	8.030
409.93	8.047
410.28	8.008
410.63	8.004
410.98	8.011
411.33	7.992
411.68	7.960
412.03	7.988
412.38	8.003
412.73	7.984
413.09	7.927
413.44	7.922
413.79	7.858
414.14	7.822
414.49	7.822
414.84	7.813
415.19	7.779
415.54	7.791
415.89	7.720
416.24	7.695
416.59	7.695
416.94	7.704
417.29	7.741
417.64	7.745
417.99	7.773
418.34	7.755
418.69	7.727
419.04	7.720
419.39	7.696
419.74	7.716
420.09	7.723
420.44	7.699
420.79	7.690
421.14	7.644
421.49	7.631
421.84	7.615
422.19	7.601
422.54	7.605
422.89	7.630
423.24	7.617
423.59	7.602
423.94	7.575
424.29	7.577
424.64	7.585
424.99	7.607
425.34	7.607
425.68	7.603
426.03	7.600
426.38	7.581
426.73	7.564
427.08	7.619
427.43	7.652
427.78	7.671
428.13	7.704
428.48	7.705
428.83	7.699
429.18	7.735
429.53	7.753
429.87	7.743
430.22	7.779
430.57	7.787
430.92	7.785
431.27	7.771
431.62	7.782
431.97	7.777
432.32	7.763
432.67	7.742
433.01	7.706
433.36	7.707
433.71	7.730
434.06	7.694
434.41	7.695
434.76	7.663
435.11	7.687
435.45	7.676
435.80	7.684
436.15	7.686
436.50	7.717
436.85	7.730
437.20	7.736
437.54	7.741
437.89	7.763
438.24	7.777
438.59	7.800
438.94	7.763
439.29	7.771
439.63	7.739
439.98	7.738
440.33	7.698
440.68	7.711
441.03	7.698
441.37	7.696
441.72	7.686
442.07	7.687
442.42	7.691
442.76	7.700
443.11	7.689
443.46	7.716
443.81	7.706
444.16	7.732
444.50	7.731
444.85	7.735
445.20	7.733
445.55	7.735
445.89	7.714
446.24	7.706
446.59	7.706
446.94	7.707
447.28	7.682
447.63	7.704
447.98	7.709
448.32	7.715
448.67	7.694
449.02	7.669
449.37	7.669
449.71	7.672
450.06	7.675
450.41	7.706
450.75	7.707
451.10	7.713
451.45	7.683
451.79	7.647
452.14	7.612
452.49	7.615
452.84	7.613
453.18	7.603
453.53	7.594
453.88	7.601
454.22	7.572
454.57	7.570
454.92	7.562
455.26	7.575
455.61	7.593
455.95	7.592
456.30	7.570
456.65	7.575
456.99	7.582
457.34	7.575
457.69	7.553
458.03	7.567
458.38	7.577
458.73	7.565
459.07	7.567
459.42	7.560
459.76	7.541
460.11	7.570
460.46	7.569
460.80	7.556
461.15	7.546
461.49	7.541
461.84	7.525
462.19	7.500
462.53	7.491
462.88	7.482
463.22	7.465
463.57	7.459
463.91	7.420
464.26	7.437
464.61	7.431
464.95	7.431
465.30	7.449
465.64	7.460
465.99	7.467
466.33	7.492
466.68	7.505
467.02	7.517
467.37	7.540
467.71	7.524
468.06	7.474
468.41	7.457
468.75	7.432
469.10	7.420
469.44	7.393
469.79	7.377
470.13	7.370
470.48	7.312
470.82	7.288
471.17	7.268
471.51	7.294
471.86	7.302
472.20	7.297
472.55	7.318
472.89	7.321
473.23	7.286
473.58	7.254
473.92	7.226
474.27	7.225
474.61	7.216
474.96	7.225
475.30	7.222
475.65	7.230
475.99	7.221
476.34	7.210
476.68	7.172
477.02	7.186
477.37	7.182
477.71	7.184
478.06	7.197
478.40	7.213
478.75	7.217
479.09	7.228
479.43	7.238
479.78	7.269
480.12	7.290
480.47	7.303
480.81	7.324
481.15	7.358
481.50	7.363
481.84	7.379
482.19	7.394
482.53	7.400
482.87	7.408
483.22	7.413
483.56	7.405
483.90	7.397
484.25	7.385
484.59	7.368
484.94	7.332
485.28	7.319
485.62	7.294
485.97	7.268
486.31	7.253
486.65	7.221
487.00	7.194
487.34	7.164
487.68	7.149
488.03	7.146
488.37	7.128
488.71	7.125
489.06	7.115
489.40	7.091
489.74	7.067
490.09	7.040
490.43	7.019
490.77	7.018
491.11	7.019
491.46	7.002
491.80	6.978
492.14	6.956
492.49	6.929
492.83	6.899
493.17	6.874
493.51	6.845
493.86	6.800
494.20	6.787
494.54	6.752
494.88	6.726
495.23	6.700
495.57	6.689
495.91	6.699
496.25	6.696
496.60	6.707
496.94	6.712
497.28	6.740
497.62	6.759
497.97	6.751
498.31	6.727
498.65	6.722
498.99	6.695
499.33	6.697
499.68	6.662
500.02	6.639
500.36	6.613
500.70	6.598
501.04	6.550
501.39	6.536
501.73	6.506
502.07	6.498
502.41	6.491
502.75	6.504
503.09	6.501
503.44	6.494
503.78	6.504
504.12	6.491
504.46	6.468
504.80	6.467
505.14	6.445
505.49	6.451
505.83	6.448
506.17	6.439
506.51	6.435
506.85	6.415
507.19	6.407
507.53	6.416
507.87	6.418
508.22	6.416
508.56	6.399
508.90	6.407
509.24	6.391
509.58	6.397
509.92	6.394
510.26	6.394
510.60	6.406
510.94	6.413
511.28	6.371
511.63	6.348
511.97	6.337
512.31	6.339
512.65	6.320
512.99	6.329
513.33	6.308
513.67	6.273
514.01	6.247
514.35	6.208
514.69	6.204
515.03	6.204
515.37	6.194
515.71	6.205
516.05	6.195
516.39	6.188
516.73	6.171
517.07	6.153
517.41	6.173
517.75	6.178
518.09	6.172
518.43	6.157
518.77	6.157
519.11	6.158
519.45	6.134
519.79	6.111
520.13	6.111
520.47	6.097
520.81	6.098
521.15	6.073
521.49	6.052
521.83	6.042
522.17	6.039
522.51	6.042
522.85	6.059
523.19	6.061
523.53	6.095
523.87	6.122
524.21	6.140
524.55	6.164
524.89	6.177
525.23	6.177
525.57	6.185
525.91	6.197
526.25	6.198
526.58	6.196
526.92	6.202
527.26	6.192
527.60	6.162
527.94	6.158
528.28	6.130
528.62	6.109
528.96	6.103
529.30	6.096
529.64	6.076
529.97	6.053
530.31	6.030
530.65	6.004
530.99	5.977
531.33	5.962
531.67	5.931
532.01	5.945
532.35	5.951
532.68	5.930
533.02	5.905
533.36	5.882
533.70	5.876
534.04	5.865
534.38	5.836
534.71	5.828
535.05	5.820
535.39	5.816
535.73	5.781
536.07	5.740
536.41	5.732
536.74	5.722
537.08	5.738
537.42	5.718
537.76	5.709
538.10	5.723
538.43	5.709
538.77	5.730
539.11	5.715
539.45	5.710
539.79	5.721
540.12	5.731
540.46	5.742
540.80	5.714
541.14	5.711
541.47	5.700
541.81	5.696
542.15	5.701
542.49	5.687
542.82	5.702
543.16	5.685
543.50	5.661
543.84	5.638
544.17	5.618
544.51	5.606
544.85	5.605
545.18	5.606
545.52	5.610
545.86	5.584
546.20	5.541
546.53	5.512
546.87	5.511
547.21	5.496
547.54	5.486
547.88	5.461
548.22	5.475
548.55	5.461
548.89	5.445
549.23	5.428
549.56	5.444
549.90	5.476
550.24	5.449
550.57	5.449
550.91	5.439
551.25	5.421
551.58	5.403
551.92	5.377
552.26	5.390
552.59	5.378
552.93	5.346
553.27	5.340
553.60	5.314
553.94	5.325
554.27	5.318
554.61	5.324
554.95	5.344
555.28	5.351
555.62	5.374
555.95	5.345
556.29	5.359
556.63	5.387
556.96	5.370
557.30	5.367
557.63	5.358
557.97	5.339
558.31	5.339
558.64	5.303
558.98	5.294
559.31	5.276
559.65	5.276
559.98	5.263
560.32	5.231
560.65	5.221
560.99	5.210
561.33	5.222
561.66	5.240
562.00	5.248
562.33	5.242
562.67	5.232
563.00	5.244
563.34	5.235
563.67	5.252
564.01	5.286
564.34	5.276
564.68	5.282
565.01	5.295
565.35	5.262
565.68	5.263
566.02	5.258
566.35	5.292
566.69	5.255
567.02	5.271
567.36	5.257
567.69	5.235
568.03	5.271
568.36	5.265
568.69	5.231
569.03	5.274
569.36	5.238
569.70	5.244
570.03	5.239
570.37	5.253
570.70	5.242
571.04	5.239
571.37	5.236
571.70	5.235
572.04	5.245
572.37	5.232
572.71	5.218
573.04	5.247
573.37	5.242
573.71	5.239
574.04	5.262
574.38	5.274
574.71	5.250
575.04	5.245
575.38	5.197
575.71	5.181
576.05	5.204
576.38	5.213
576.71	5.193
577.05	5.205
577.38	5.184
577.71	5.177
578.05	5.168
578.38	5.145
578.71	5.146
579.05	5.153
579.38	5.154
579.71	5.135
580.05	5.105
580.38	5.099
580.71	5.083
581.05	5.068
581.38	5.034
581.71	5.015
582.05	5.065
582.38	5.046
582.71	5.068
583.04	5.055
583.38	5.057
583.71	5.090
584.04	5.103
584.38	5.116
584.71	5.135
585.04	5.178
585.37	5.179
585.71	5.134
586.04	5.136
586.37	5.136
586.70	5.158
587.04	5.167
587.37	5.144
587.70	5.156
588.03	5.165
588.37	5.184
588.70	5.152
589.03	5.141
589.36	5.195
589.69	5.218
590.03	5.236
590.36	5.226
590.69	5.222
591.02	5.207
591.35	5.190
591.69	5.188
592.02	5.182
592.35	5.203
592.68	5.243
593.01	5.214
593.35	5.200
593.68	5.182
594.01	5.198
594.34	5.221
594.67	5.248
595.00	5.247
595.34	5.246
595.67	5.251
596.00	5.255
596.33	5.243
596.66	5.240
596.99	5.244
597.32	5.232
597.65	5.236
597.99	5.232
598.32	5.228
598.65	5.210
598.98	5.227
599.31	5.222
599.64	5.177
599.97	5.149
600.30	5.180
600.63	5.200
600.96	5.213
601.30	5.208
601.63	5.193
601.96	5.210
602.29	5.268
602.62	5.245
602.95	5.243
603.28	5.268
603.61	5.301
603.94	5.296
604.27	5.315
604.60	5.344
604.93	5.381
605.26	5.425
605.59	5.427
605.92	5.382
606.25	5.379
606.58	5.373
606.91	5.377
607.24	5.360
607.57	5.391
607.90	5.377
608.23	5.367
608.56	5.355
608.89	5.330
609.22	5.325
609.55	5.333
609.88	5.351
610.21	5.359
610.54	5.378
610.87	5.377
611.20	5.331
611.53	5.297
611.86	5.263
612.19	5.235
612.52	5.224
612.85	5.229
613.18	5.252
613.51	5.253
613.84	5.238
614.17	5.201
614.49	5.228
614.82	5.242
615.15	5.267
615.48	5.312
615.81	5.327
616.14	5.318
616.47	5.284
616.80	5.291
617.13	5.306
617.46	5.309
617.78	5.299
618.11	5.272
618.44	5.256
618.77	5.256
619.10	5.179
619.43	5.145
619.76	5.124
620.09	5.146
620.41	5.120
620.74	5.086
621.07	5.106
621.40	5.144
621.73	5.162
622.06	5.145
622.38	5.154
622.71	5.205
623.04	5.198
623.37	5.209
623.70	5.188
624.02	5.236
624.35	5.275
624.68	5.282
625.01	5.266
625.34	5.250
625.66	5.271
625.99	5.252
626.32	5.269
626.65	5.307
626.98	5.320
627.30	5.328
627.63	5.330
627.96	5.302
628.29	5.254
628.61	5.265
628.94	5.280
629.27	5.273
629.60	5.279
629.92	5.290
630.25	5.249
630.58	5.245
630.91	5.261
631.23	5.182
631.56	5.194
631.89	5.224
632.21	5.233
632.54	5.194
632.87	5.180
633.19	5.141
633.52	5.094
633.85	5.109
634.18	5.137
634.50	5.133
634.83	5.175
635.16	5.159
635.48	5.143
635.81	5.133
636.14	5.176
636.46	5.206
636.79	5.193
637.11	5.167
637.44	5.152
637.77	5.134
638.09	5.092
638.42	5.080
638.75	5.061
639.07	5.069
639.40	5.024
639.73	5.047
640.05	5.006
640.38	5.083
640.70	5.094
641.03	5.076
641.36	5.025
641.68	5.030
642.01	5.044
642.33	5.055
642.66	5.057
642.98	5.104
643.31	5.020
643.64	5.066
643.96	5.014
644.29	5.027
644.61	5.034
644.94	5.031
645.26	5.039
645.59	4.993
645.91	4.986
646.24	4.988
646.56	4.968
646.89	4.979
647.22	4.975
647.54	5.042
647.87	5.073
648.19	5.102
648.52	5.098
648.84	5.091
649.17	5.154
649.49	5.175
649.82	5.145
650.14	5.125
650.47	5.126
650.79	5.123
651.11	5.056
651.44	4.986
651.76	4.951
652.09	5.018
652.41	4.985
652.74	4.927
653.06	4.851
653.39	4.893
653.71	4.968
654.04	5.061
654.36	5.017
654.68	5.026
655.01	5.085
655.33	5.076
655.66	5.052
655.98	5.078
656.30	5.092
656.63	5.192
656.95	5.220
657.28	5.120
657.60	5.053
657.92	5.071
658.25	5.070
658.57	5.070
658.90	5.092
659.22	5.084
659.54	5.051
659.87	5.009
660.19	5.004
660.51	4.950
660.84	4.975
661.16	4.993
661.48	4.994
661.81	5.003
662.13	4.995
662.45	5.012
662.78	5.046
663.10	5.084
663.42	5.095
663.75	5.007
664.07	5.006
664.39	5.011
664.72	4.995
665.04	4.995
665.36	5.018
665.69	4.941
666.01	4.964
666.33	4.893
666.65	4.937
666.98	4.958
667.30	4.990
667.62	4.991
667.94	4.978
668.27	4.971
668.59	4.919
668.91	4.837
669.23	4.885
669.56	4.853
669.88	4.822
670.20	4.686
670.52	4.648
670.85	4.583
671.17	4.607
671.49	4.524
671.81	4.515
672.13	4.578
672.46	4.687
672.78	4.669
673.10	4.662
673.42	4.732
673.74	4.808
674.07	4.835
674.39	4.845
674.71	4.790
675.03	4.944
675.35	4.993
675.67	4.952
676.00	4.868
676.32	4.899
676.64	4.897
676.96	4.881
677.28	4.885
677.60	4.846
677.92	4.815
678.25	4.790
678.57	4.726
678.89	4.659
679.21	4.691
679.53	4.738
679.85	4.764
680.17	4.726
680.49	4.759
680.81	4.743
681.13	4.870
681.46	4.958
681.78	4.999
682.10	5.091
682.42	5.110
682.74	5.054
683.06	5.038
683.38	5.080
683.70	5.161
684.02	5.097
684.34	5.111
684.66	5.062
684.98	5.067
685.30	5.135
685.62	5.111
685.94	5.135
686.26	5.248
686.58	5.253
686.90	5.223
687.22	5.178
687.54	5.202
687.86	5.117
688.18	5.052
688.50	5.041
688.82	4.947
689.14	4.927
689.46	4.874
689.78	4.852
690.10	4.883
690.42	4.865
690.74	4.879
691.06	4.915
691.38	4.957
691.70	4.977
692.02	4.951
692.34	5.008
692.66	4.964
692.98	5.072
693.30	5.057
693.62	4.917
693.94	4.954
694.26	4.909
694.57	4.921
694.89	4.973
695.21	4.968
695.53	4.957
695.85	4.913
696.17	4.919
696.49	4.948
696.81	4.869
697.13	4.967
697.44	4.953
697.76	4.927
698.08	4.892
698.40	4.899
698.72	4.912
699.04	4.925
699.36	4.913
699.67	4.869
699.99	4.786
700.31	4.865
700.63	4.789
700.95	4.692
701.27	4.741
701.58	4.713
701.90	4.658
702.22	4.750
702.54	4.788
702.86	4.836
703.17	4.850
703.49	4.871
703.81	4.851
704.13	4.834
704.45	4.788
704.76	4.809
705.08	4.896
705.40	4.967
705.72	4.934
706.03	4.886
706.35	4.990
706.67	4.988
706.99	4.926
707.30	4.865
707.62	4.828
707.94	4.862
708.26	4.850
708.57	4.802
708.89	4.764
709.21	4.695
709.53	4.710
709.84	4.576
710.16	4.602
710.48	4.595
710.79	4.528
711.11	4.674
711.43	4.668
711.74	4.675
712.06	4.603
712.38	4.640
712.69	4.646
713.01	4.600
713.33	4.568
713.64	4.572
713.96	4.541
714.28	4.661
714.59	4.638
714.91	4.643
715.23	4.587
715.54	4.687
715.86	4.648
716.17	4.777
716.49	4.887
716.81	4.891
717.12	4.857
717.44	4.994
717.76	4.941
718.07	4.835
718.39	4.859
718.70	4.803
719.02	4.816
719.33	4.717
719.65	4.584
719.97	4.518
720.28	4.641
720.60	4.692
720.91	4.696
721.23	4.758
721.54	4.876
721.86	4.899
722.17	4.993
722.49	4.877
722.81	5.093
723.12	5.058
723.44	5.023
723.75	5.027
724.07	5.073
724.38	5.046
724.70	4.856
725.01	4.654
725.33	4.716
725.64	4.836
725.96	4.981
726.27	4.972
726.59	5.052
726.90	5.014
727.22	4.889
727.53	4.865
727.84	4.763
728.16	4.843
728.47	5.018
728.79	5.052
729.10	4.907
729.42	4.811
729.73	4.588
730.05	4.532
730.36	4.480
730.67	4.468
730.99	4.394
731.30	4.433
731.62	4.488
731.93	4.353
732.24	4.210
732.56	4.131
732.87	4.087
733.19	4.231
733.50	4.132
733.81	4.185
734.13	4.146
734.44	4.238
734.76	4.256
735.07	4.165
735.38	4.097
735.70	3.979
736.01	3.990
736.32	4.002
736.64	4.032
736.95	4.232
737.26	4.380
737.58	4.486
737.89	4.484
738.20	4.542
738.52	4.551
738.83	4.726
739.14	4.856
739.45	5.058
739.77	5.103
740.08	5.091
740.39	4.877
740.71	4.563
741.02	4.503
741.33	4.508
741.64	4.447
741.96	4.384
742.27	4.366
742.58	4.499
742.90	4.317
743.21	4.064
743.52	3.978
743.83	4.078
744.14	4.326
744.46	4.408
744.77	4.324
745.08	4.425
745.39	4.529
745.71	4.389
746.02	4.212
746.33	4.283
746.64	4.415
746.95	4.295
747.27	4.357
747.58	4.310
747.89	4.191
748.20	4.126
748.51	3.918
748.82	3.836
749.14	3.941
749.45	4.018
749.76	4.102
750.07	4.208
750.38	4.122
750.69	4.061
751.01	4.161
751.32	4.171
751.63	4.160
751.94	4.076
752.25	3.992
752.56	3.988
752.87	3.855
753.18	3.856
753.49	3.606
753.81	3.694
754.12	3.597
754.43	3.409
754.74	3.279
755.05	3.165
755.36	3.061
755.67	3.186
755.98	3.094
756.29	3.185
756.60	2.950
756.91	3.164
757.22	3.253
757.53	3.229
757.84	3.250
758.15	3.542
758.46	3.712
758.77	3.970
759.09	4.165
759.40	4.311
759.71	4.356
760.02	4.449
760.33	4.576
760.64	4.477
760.95	4.500
761.26	4.658
761.57	4.558
761.88	4.575
762.18	4.539
762.49	4.572
762.80	4.443
763.11	4.333
763.42	4.411
763.73	4.272
764.04	4.477
764.35	4.393
764.66	4.198
764.97	4.280
765.28	4.314
765.59	4.324
765.90	4.093
766.21	4.422
766.52	4.603
766.83	4.271
767.14	4.292
767.44	4.072
767.75	4.160
768.06	4.246
768.37	4.002
768.68	3.704
768.99	3.662
769.30	3.890
769.61	3.506
769.91	3.550
770.22	3.762
770.53	3.819
770.84	3.960
771.15	4.322
771.46	4.406
771.77	4.758
772.07	4.943
772.38	4.810
772.69	4.429
773.00	4.610
773.31	4.457
773.61	4.324
773.92	4.133
774.23	4.044
774.54	3.953
774.85	3.745
775.15	3.503
775.46	3.525
775.77	3.700
776.08	3.743
776.39	3.665
776.69	3.629
777.00	3.297
777.31	3.275
777.62	3.247
777.92	2.906
778.23	3.169
778.54	2.932
778.85	2.744
779.15	2.555
779.46	2.580
779.77	2.398
780.07	2.219
780.38	2.737
780.69	3.047
781.00	2.974
781.30	3.010
781.61	2.676
781.92	2.801
782.22	2.869
782.53	3.170
782.84	3.160
783.14	3.435
783.45	3.900
783.76	4.081
784.06	3.606
784.37	4.140
784.68	4.071
784.98	4.310
785.29	4.360
785.60	4.556
785.90	4.616
786.21	4.874
786.51	4.644
786.82	4.474
787.13	4.239
787.43	4.308
787.74	3.701
788.04	3.967
788.35	3.921
788.66	3.936
788.96	3.722
789.27	3.325
789.57	3.436
789.88	3.586
790.19	3.842
790.49	3.758
790.80	4.000
791.10	4.115
791.41	4.040
791.71	3.963
792.02	3.791
792.32	3.920
792.63	4.106
792.93	3.783
793.24	4.191
793.54	3.828
793.85	4.031
794.15	4.087
794.46	4.518
794.76	4.776
795.07	4.944
795.37	5.419
795.68	5.282
795.98	5.140
796.29	5.438
796.59	5.034
796.90	5.099
797.20	5.435
797.51	5.335
797.81	4.860
798.12	4.473
798.42	4.410
798.72	4.091
799.03	4.384
799.33	4.829
799.64	4.470
799.94	4.609
800.25	4.500
800.55	4.153
800.85	4.317
801.16	4.350
801.46	4.325
801.77	4.522
802.07	4.504
802.37	4.228
802.68	3.927
802.98	4.148
803.28	3.715
803.59	4.216
803.89	4.429
804.20	4.415
804.50	4.685
804.80	4.975
805.11	4.751
805.41	5.190
805.71	4.989
806.02	5.142
806.32	5.077
806.62	5.303
806.93	4.797
807.23	4.560
807.53	4.524
807.83	4.514
808.14	3.825
808.44	3.805
808.74	3.178
809.05	3.627
809.35	3.303
809.65	3.290
809.95	3.687
810.26	3.625
810.56	3.454
810.86	3.666
811.16	3.823
811.47	4.848
811.77	4.758
812.07	4.732
812.37	4.669
812.68	5.248
812.98	5.035
813.28	4.160
813.58	4.333
813.88	4.611
814.19	4.521
814.49	4.539
814.79	3.757
815.09	4.183
815.39	4.681
815.70	5.104
816.00	5.114
816.30	5.275
816.60	5.649
816.90	5.799
817.20	5.602
817.50	5.821
817.81	5.548
818.11	5.707
818.41	5.503
818.71	5.574
819.01	5.441
819.31	5.372
819.61	5.481
819.92	5.472
820.22	5.370
820.52	5.349
820.82	5.278
821.12	5.179
821.42	5.196
821.72	5.160
822.02	4.980
822.32	4.935
822.62	4.910
822.92	4.860
823.22	4.758
823.52	4.743
823.83	4.770
824.13	4.645
824.43	4.687
824.73	4.725
825.03	4.800
825.33	5.037
825.63	5.037
825.93	5.014
826.23	4.917
826.53	5.113
826.83	5.201
827.13	5.133
827.43	5.203
827.73	5.321
828.03	5.233
828.33	5.092
828.63	4.856
828.93	4.749
829.23	4.646
829.53	4.610
829.83	4.229
830.13	4.094
830.42	4.071
830.72	3.967
831.02	4.145
831.32	4.126
831.62	4.162
831.92	4.208
832.22	4.632
832.52	4.730
832.82	4.510
833.12	4.517
833.42	4.244
833.72	4.196
834.01	4.246
834.31	3.812
834.61	3.557
834.91	3.745
835.21	3.764
835.51	3.697
835.81	3.329
836.11	3.901
836.40	3.960
836.70	4.484
837.00	4.691
837.30	4.797
837.60	5.477
837.90	5.546
838.19	5.054
838.49	5.422
838.79	4.559
839.09	5.502
839.39	5.154
839.68	5.387
839.98	4.500
840.28	4.166
840.58	3.808
840.88	2.833
841.17	3.409
841.47	4.018
841.77	3.932
842.07	4.891
842.36	3.713
842.66	3.548
842.96	4.041
843.26	4.952
843.55	5.413
843.85	5.914
844.15	6.783
844.45	6.195
844.74	5.121
845.04	4.837
845.34	3.027
845.63	4.252
845.93	3.761
846.23	2.769
846.53	2.501
846.82	2.684
847.12	3.579
847.42	3.678
847.71	2.716
848.01	1.613
848.31	1.926
848.60	3.458
848.90	2.941
849.19	4.119
849.49	5.393
849.79	6.982
850.08	6.860
850.38	6.991
850.68	8.502
850.97	8.812
851.27	10.403
851.56	8.186
851.86	9.091
852.16	10.754
852.45	9.046
852.75	9.738
853.04	8.718
853.34	7.042
853.64	4.752
853.93	3.866
854.23	2.727
854.52	3.271
854.82	6.381
855.11	5.170
855.41	2.921
855.70	3.856
856.00	1.965
856.30	1.214
856.59	1.771
856.89	1.457
857.18	0.773
857.48	3.485
857.77	2.693
858.07	1.251
858.36	1.321
858.66	2.056
858.95	1.659
859.25	0.900
859.54	0.892
859.84	0.489
860.13	-0.323
860.42	-0.041
860.72	-1.970
861.01	-2.410
861.31	-4.802
861.60	-4.063
861.90	-3.889
862.19	-1.343
862.49	-0.837
862.78	-1.078
863.07	1.535
863.37	4.429
863.66	4.334
863.96	4.835
864.25	4.959
864.54	6.969
864.84	5.834
865.13	6.503
865.43	5.725
865.72	-0.747
866.01	3.172
866.31	2.018
866.60	13.145
866.89	15.851
>>>>>End Spectral Data<<<<<
