OOIBase32 Version 2.0.0.6 Data File
++++++++++++++++++++++++++++++++++++
Date: 01-20-2012, 23:10:57
User: Valued Ocean Optics Customer
Spectrometer Serial Number: USB2E2917
Spectrometer Channel: Master
Integration Time (msec): 3
Spectra Averaged: 10
Boxcar Smoothing: 5
Correct for Electrical Dark: Enabled
Time Normalized: Disabled
Dual-beam Reference: Disabled
Reference Channel: Master
Temperature: Not acquired
Spectrometer Type: S2000
ADC Type: USB2000
Number of Pixels in File: 2048
Graph Title: 
>>>>>Begin Spectral Data<<<<<
180.30	0.000
180.67	0.000
181.03	-33.127
181.40	-172.088
181.77	100.535
182.14	13.261
182.51	-3.770
182.88	95.448
183.25	-117.935
183.62	-90.914
183.99	2640.424
184.36	-90.902
184.73	11.791
185.10	6.774
185.46	856.212
185.83	112.043
186.20	-23.254
186.57	38.523
186.94	157.844
187.31	-58.697
187.68	-227.976
188.05	9.575
188.42	-24.819
188.78	-161.564
189.15	-168.367
189.52	-42.771
189.89	-30.668
190.26	-11.535
190.63	-32.370
191.00	-12.208
191.37	8.270
191.73	24.806
192.10	39.096
192.47	30.686
192.84	43.930
193.21	57.054
193.58	58.416
193.94	64.961
194.31	62.024
194.68	79.199
195.05	27.761
195.42	-1.920
195.79	-46.961
196.15	-172.595
196.52	-30.263
196.89	1390888.672
197.26	642.215
197.63	-3640.729
198.00	-1928.687
198.36	976.585
198.73	-1085.187
199.10	-3039.713
199.47	-342.817
199.84	-896.034
200.20	-282.645
200.57	-253.179
200.94	-35.125
201.31	-37.935
201.68	-27.538
202.04	-4.794
202.41	27.826
202.78	39.213
203.15	19.451
203.51	19.688
203.88	18.278
204.25	10.343
204.62	19.286
204.98	1.522
205.35	14.911
205.72	20.601
206.09	20.803
206.46	14.518
206.82	-3.865
207.19	-1.458
207.56	10.676
207.92	16.805
208.29	17.957
208.66	17.273
209.03	33.311
209.39	38.921
209.76	36.553
210.13	78.449
210.50	83.377
210.86	99.386
211.23	97.541
211.60	98.650
211.96	74.551
212.33	71.965
212.70	72.501
213.07	72.173
213.43	80.218
213.80	68.794
214.17	45.978
214.53	69.709
214.90	61.007
215.27	38.781
215.63	16.899
216.00	41.842
216.37	51.976
216.74	15.515
217.10	14.313
217.47	21.043
217.84	39.431
218.20	19.889
218.57	6.924
218.94	4.499
219.30	18.407
219.67	18.499
220.04	27.934
220.40	27.239
220.77	32.737
221.13	25.465
221.50	20.003
221.87	16.655
222.23	24.179
222.60	20.524
222.97	17.412
223.33	13.572
223.70	18.185
224.07	8.916
224.43	5.528
224.80	7.059
225.16	7.043
225.53	5.717
225.90	3.760
226.26	3.648
226.63	5.543
226.99	4.334
227.36	4.272
227.73	3.958
228.09	3.802
228.46	2.892
228.82	2.532
229.19	2.446
229.56	4.444
229.92	3.951
230.29	3.026
230.65	2.812
231.02	4.797
231.38	6.006
231.75	6.955
232.12	7.419
232.48	9.352
232.85	9.661
233.21	10.971
233.58	9.372
233.94	10.954
234.31	10.735
234.68	10.898
235.04	10.814
235.41	7.626
235.77	8.257
236.14	10.374
236.50	9.207
236.87	8.759
237.23	7.615
237.60	6.501
237.96	5.819
238.33	5.816
238.69	5.215
239.06	4.526
239.42	5.365
239.79	3.951
240.15	4.027
240.52	4.264
240.88	3.766
241.25	4.593
241.61	5.003
241.98	5.505
242.34	5.518
242.71	5.482
243.07	5.395
243.44	5.605
243.80	5.738
244.17	5.435
244.53	5.446
244.90	6.170
245.26	5.703
245.63	5.583
245.99	5.760
246.36	5.719
246.72	5.977
247.09	5.930
247.45	5.611
247.81	5.868
248.18	5.960
248.54	6.087
248.91	5.606
249.27	5.895
249.64	6.121
250.00	5.653
250.36	6.005
250.73	5.618
251.09	6.005
251.46	6.552
251.82	6.574
252.19	6.765
252.55	6.945
252.91	6.603
253.28	6.783
253.64	7.135
254.01	7.021
254.37	6.602
254.73	6.109
255.10	5.911
255.46	5.530
255.83	5.449
256.19	4.950
256.55	4.633
256.92	4.635
257.28	4.777
257.65	4.600
258.01	4.650
258.37	4.651
258.74	4.815
259.10	4.876
259.46	4.936
259.83	4.819
260.19	4.796
260.55	4.865
260.92	4.924
261.28	4.722
261.64	4.497
262.01	4.380
262.37	4.368
262.73	4.140
263.10	4.082
263.46	4.128
263.82	4.537
264.19	5.017
264.55	5.027
264.91	5.376
265.28	5.604
265.64	5.994
266.00	5.695
266.37	5.730
266.73	6.262
267.09	6.267
267.46	6.264
267.82	6.067
268.18	5.892
268.54	5.978
268.91	5.509
269.27	5.057
269.63	4.946
270.00	5.273
270.36	5.321
270.72	4.855
271.08	4.683
271.45	4.531
271.81	4.566
272.17	4.438
272.53	4.129
272.90	4.245
273.26	4.287
273.62	4.193
273.98	4.182
274.35	4.283
274.71	4.691
275.07	4.513
275.43	4.303
275.80	3.956
276.16	4.158
276.52	4.454
276.88	4.429
277.25	4.470
277.61	4.483
277.97	4.466
278.33	4.080
278.69	3.807
279.06	4.045
279.42	4.446
279.78	4.396
280.14	4.035
280.50	4.066
280.87	4.186
281.23	4.024
281.59	3.888
281.95	3.854
282.31	4.136
282.68	4.322
283.04	4.454
283.40	4.455
283.76	4.605
284.12	4.843
284.48	4.684
284.85	4.637
285.21	4.910
285.57	5.088
285.93	5.219
286.29	4.994
286.65	5.050
287.02	5.053
287.38	5.084
287.74	5.240
288.10	5.207
288.46	5.372
288.82	5.421
289.18	5.449
289.54	5.487
289.91	5.522
290.27	5.573
290.63	5.294
290.99	5.058
291.35	4.796
291.71	4.575
292.07	4.663
292.43	4.550
292.79	4.464
293.16	4.197
293.52	4.050
293.88	3.771
294.24	3.981
294.60	4.106
294.96	4.104
295.32	4.132
295.68	4.226
296.04	4.264
296.40	4.351
296.76	4.515
297.12	4.663
297.49	4.676
297.85	4.825
298.21	4.878
298.57	4.896
298.93	4.843
299.29	5.051
299.65	4.880
300.01	4.757
300.37	4.684
300.73	4.494
301.09	4.442
301.45	4.527
301.81	4.455
302.17	4.471
302.53	4.616
302.89	4.749
303.25	4.556
303.61	4.667
303.97	4.667
304.33	4.793
304.69	5.017
305.05	5.133
305.41	5.055
305.77	5.167
306.13	5.015
306.49	5.034
306.85	5.118
307.21	5.299
307.57	5.370
307.93	5.277
308.29	5.388
308.65	5.396
309.01	5.438
309.37	5.569
309.73	5.560
310.09	5.681
310.45	5.735
310.81	5.675
311.17	5.658
311.53	5.652
311.89	5.658
312.25	5.691
312.61	5.614
312.96	5.647
313.32	5.538
313.68	5.585
314.04	5.584
314.40	5.494
314.76	5.569
315.12	5.678
315.48	5.573
315.84	5.594
316.20	5.426
316.56	5.361
316.92	5.234
317.27	5.333
317.63	5.245
317.99	5.281
318.35	5.233
318.71	5.318
319.07	5.283
319.43	5.426
319.79	5.615
320.15	5.823
320.50	5.936
320.86	6.066
321.22	6.101
321.58	6.281
321.94	6.394
322.30	6.508
322.66	6.527
323.01	6.544
323.37	6.590
323.73	6.525
324.09	6.543
324.45	6.600
324.81	6.678
325.17	6.791
325.52	6.840
325.88	6.776
326.24	6.832
326.60	6.944
326.96	7.067
327.31	7.206
327.67	7.453
328.03	7.509
328.39	7.636
328.75	7.775
329.11	7.861
329.46	7.861
329.82	7.927
330.18	7.919
330.54	7.960
330.90	8.060
331.25	8.070
331.61	8.043
331.97	8.109
332.33	8.151
332.68	8.107
333.04	8.109
333.40	8.118
333.76	8.177
334.11	8.208
334.47	8.220
334.83	8.133
335.19	8.169
335.54	8.125
335.90	8.018
336.26	8.029
336.62	7.970
336.97	7.944
337.33	8.098
337.69	8.193
338.05	8.330
338.40	8.355
338.76	8.510
339.12	8.548
339.48	8.634
339.83	8.603
340.19	8.634
340.55	8.758
340.90	8.821
341.26	8.774
341.62	8.734
341.97	8.690
342.33	8.698
342.69	8.606
343.04	8.622
343.40	8.626
343.76	8.760
344.12	8.697
344.47	8.727
344.83	8.726
345.19	8.757
345.54	8.714
345.90	8.711
346.26	8.822
346.61	8.828
346.97	8.849
347.32	8.884
347.68	8.793
348.04	8.836
348.39	8.826
348.75	8.786
349.11	8.839
349.46	8.853
349.82	8.887
350.18	8.837
350.53	8.883
350.89	8.895
351.24	8.843
351.60	8.876
351.96	8.868
352.31	8.849
352.67	8.871
353.02	8.726
353.38	8.780
353.74	8.827
354.09	8.860
354.45	8.909
354.80	8.940
355.16	8.920
355.52	8.855
355.87	8.829
356.23	8.848
356.58	8.940
356.94	9.045
357.29	9.027
357.65	9.026
358.00	8.994
358.36	8.907
358.72	8.844
359.07	8.886
359.43	9.012
359.78	9.100
360.14	9.120
360.49	9.050
360.85	9.053
361.20	9.154
361.56	9.027
361.91	9.057
362.27	9.078
362.62	9.080
362.98	9.092
363.33	9.113
363.69	9.070
364.04	9.018
364.40	9.076
364.75	9.149
365.11	9.090
365.46	9.151
365.82	9.177
366.17	9.283
366.53	9.383
366.88	9.427
367.24	9.409
367.59	9.455
367.95	9.564
368.30	9.561
368.66	9.504
369.01	9.516
369.37	9.553
369.72	9.615
370.08	9.565
370.43	9.512
370.78	9.555
371.14	9.573
371.49	9.564
371.85	9.555
372.20	9.559
372.56	9.576
372.91	9.612
373.26	9.662
373.62	9.606
373.97	9.642
374.33	9.662
374.68	9.650
375.03	9.635
375.39	9.729
375.74	9.764
376.10	9.814
376.45	9.806
376.80	9.873
377.16	9.889
377.51	9.960
377.87	9.966
378.22	9.993
378.57	10.019
378.93	10.102
379.28	10.076
379.63	10.074
379.99	10.114
380.34	10.207
380.70	10.192
381.05	10.279
381.40	10.339
381.76	10.391
382.11	10.481
382.46	10.561
382.82	10.643
383.17	10.742
383.52	10.821
383.88	10.891
384.23	10.949
384.58	11.000
384.94	11.010
385.29	11.018
385.64	11.015
385.99	11.081
386.35	11.124
386.70	11.142
387.05	11.155
387.41	11.225
387.76	11.239
388.11	11.279
388.47	11.340
388.82	11.414
389.17	11.445
389.52	11.501
389.88	11.489
390.23	11.463
390.58	11.466
390.93	11.459
391.29	11.430
391.64	11.455
391.99	11.479
392.34	11.480
392.70	11.444
393.05	11.431
393.40	11.461
393.75	11.499
394.11	11.549
394.46	11.609
394.81	11.677
395.16	11.692
395.52	11.730
395.87	11.695
396.22	11.696
396.57	11.732
396.92	11.756
397.28	11.768
397.63	11.776
397.98	11.809
398.33	11.798
398.68	11.806
399.04	11.821
399.39	11.801
399.74	11.794
400.09	11.832
400.44	11.821
400.80	11.848
401.15	11.873
401.50	11.880
401.85	11.913
402.20	11.871
402.55	11.861
402.90	11.850
403.26	11.899
403.61	11.956
403.96	11.977
404.31	12.010
404.66	12.058
405.01	12.025
405.36	12.038
405.72	12.022
406.07	12.033
406.42	12.063
406.77	12.108
407.12	12.067
407.47	12.051
407.82	12.023
408.17	12.016
408.53	11.933
408.88	11.950
409.23	11.922
409.58	11.914
409.93	11.951
410.28	11.918
410.63	11.908
410.98	11.906
411.33	11.910
411.68	11.893
412.03	11.851
412.38	11.888
412.73	11.874
413.09	11.807
413.44	11.720
413.79	11.681
414.14	11.613
414.49	11.539
414.84	11.490
415.19	11.416
415.54	11.343
415.89	11.324
416.24	11.248
416.59	11.212
416.94	11.169
417.29	11.130
417.64	11.087
417.99	11.082
418.34	11.087
418.69	11.048
419.04	11.036
419.39	11.008
419.74	10.968
420.09	10.957
420.44	10.929
420.79	10.921
421.14	10.905
421.49	10.892
421.84	10.861
422.19	10.796
422.54	10.777
422.89	10.754
423.24	10.764
423.59	10.747
423.94	10.742
424.29	10.723
424.64	10.723
424.99	10.708
425.34	10.679
425.68	10.679
426.03	10.705
426.38	10.709
426.73	10.680
427.08	10.667
427.43	10.640
427.78	10.633
428.13	10.623
428.48	10.610
428.83	10.631
429.18	10.651
429.53	10.634
429.87	10.658
430.22	10.645
430.57	10.670
430.92	10.669
431.27	10.692
431.62	10.664
431.97	10.659
432.32	10.674
432.67	10.678
433.01	10.674
433.36	10.696
433.71	10.661
434.06	10.674
434.41	10.652
434.76	10.632
435.11	10.624
435.45	10.630
435.80	10.622
436.15	10.584
436.50	10.551
436.85	10.546
437.20	10.529
437.54	10.531
437.89	10.508
438.24	10.510
438.59	10.531
438.94	10.503
439.29	10.489
439.63	10.478
439.98	10.469
440.33	10.464
440.68	10.428
441.03	10.377
441.37	10.332
441.72	10.293
442.07	10.263
442.42	10.192
442.76	10.174
443.11	10.134
443.46	10.107
443.81	10.082
444.16	10.064
444.50	10.053
444.85	10.036
445.20	10.039
445.55	10.009
445.89	9.977
446.24	9.950
446.59	9.919
446.94	9.911
447.28	9.887
447.63	9.857
447.98	9.808
448.32	9.784
448.67	9.761
449.02	9.719
449.37	9.724
449.71	9.718
450.06	9.720
450.41	9.701
450.75	9.684
451.10	9.666
451.45	9.662
451.79	9.686
452.14	9.671
452.49	9.671
452.84	9.661
453.18	9.647
453.53	9.655
453.88	9.675
454.22	9.665
454.57	9.661
454.92	9.691
455.26	9.742
455.61	9.747
455.95	9.759
456.30	9.777
456.65	9.794
456.99	9.826
457.34	9.830
457.69	9.824
458.03	9.867
458.38	9.876
458.73	9.904
459.07	9.904
459.42	9.901
459.76	9.931
460.11	9.955
460.46	9.983
460.80	10.009
461.15	10.038
461.49	10.099
461.84	10.149
462.19	10.207
462.53	10.236
462.88	10.271
463.22	10.349
463.57	10.360
463.91	10.393
464.26	10.436
464.61	10.465
464.95	10.487
465.30	10.514
465.64	10.522
465.99	10.571
466.33	10.594
466.68	10.609
467.02	10.617
467.37	10.672
467.71	10.667
468.06	10.687
468.41	10.707
468.75	10.754
469.10	10.795
469.44	10.835
469.79	10.823
470.13	10.841
470.48	10.900
470.82	10.898
471.17	10.911
471.51	10.970
471.86	10.977
472.20	10.991
472.55	11.000
472.89	10.955
473.23	10.929
473.58	10.954
473.92	10.925
474.27	10.856
474.61	10.872
474.96	10.843
475.30	10.829
475.65	10.810
475.99	10.808
476.34	10.805
476.68	10.804
477.02	10.814
477.37	10.765
477.71	10.763
478.06	10.770
478.40	10.766
478.75	10.771
479.09	10.784
479.43	10.817
479.78	10.845
480.12	10.862
480.47	10.889
480.81	10.913
481.15	10.959
481.50	10.993
481.84	11.039
482.19	11.066
482.53	11.109
482.87	11.125
483.22	11.135
483.56	11.131
483.90	11.140
484.25	11.151
484.59	11.156
484.94	11.139
485.28	11.134
485.62	11.110
485.97	11.114
486.31	11.094
486.65	11.118
487.00	11.147
487.34	11.191
487.68	11.214
488.03	11.249
488.37	11.281
488.71	11.336
489.06	11.373
489.40	11.426
489.74	11.479
490.09	11.539
490.43	11.559
490.77	11.599
491.11	11.652
491.46	11.727
491.80	11.820
492.14	11.910
492.49	12.010
492.83	12.121
493.17	12.265
493.51	12.396
493.86	12.533
494.20	12.698
494.54	12.862
494.88	13.013
495.23	13.143
495.57	13.255
495.91	13.416
496.25	13.570
496.60	13.734
496.94	13.874
497.28	14.046
497.62	14.232
497.97	14.447
498.31	14.622
498.65	14.853
498.99	15.107
499.33	15.349
499.68	15.605
500.02	15.841
500.36	16.114
500.70	16.418
501.04	16.678
501.39	16.987
501.73	17.278
502.07	17.614
502.41	17.909
502.75	18.217
503.09	18.581
503.44	18.907
503.78	19.304
504.12	19.677
504.46	20.043
504.80	20.436
505.14	20.809
505.49	21.202
505.83	21.575
506.17	21.954
506.51	22.353
506.85	22.758
507.19	23.143
507.53	23.530
507.87	23.937
508.22	24.343
508.56	24.769
508.90	25.210
509.24	25.661
509.58	26.120
509.92	26.583
510.26	27.024
510.60	27.455
510.94	27.899
511.28	28.345
511.63	28.805
511.97	29.280
512.31	29.797
512.65	30.282
512.99	30.784
513.33	31.340
513.67	31.880
514.01	32.464
514.35	33.052
514.69	33.628
515.03	34.193
515.37	34.715
515.71	35.197
516.05	35.626
516.39	36.077
516.73	36.526
517.07	36.929
517.41	37.356
517.75	37.765
518.09	38.156
518.43	38.558
518.77	38.971
519.11	39.407
519.45	39.819
519.79	40.275
520.13	40.783
520.47	41.230
520.81	41.755
521.15	42.281
521.49	42.783
521.83	43.285
522.17	43.792
522.51	44.259
522.85	44.751
523.19	45.378
523.53	46.033
523.87	46.672
524.21	47.324
524.55	47.921
524.89	48.405
525.23	48.877
525.57	49.309
525.91	49.696
526.25	50.032
526.58	50.378
526.92	50.653
527.26	50.896
527.60	51.066
527.94	51.233
528.28	51.396
528.62	51.601
528.96	51.790
529.30	51.983
529.64	52.157
529.97	52.395
530.31	52.563
530.65	52.770
530.99	53.004
531.33	53.296
531.67	53.577
532.01	53.806
532.35	54.017
532.68	54.214
533.02	54.357
533.36	54.537
533.70	54.673
534.04	54.859
534.38	55.038
534.71	55.209
535.05	55.344
535.39	55.499
535.73	55.689
536.07	55.870
536.41	56.117
536.74	56.377
537.08	56.708
537.42	56.977
537.76	57.246
538.10	57.481
538.43	57.747
538.77	57.994
539.11	58.188
539.45	58.370
539.79	58.522
540.12	58.631
540.46	58.720
540.80	58.734
541.14	58.825
541.47	58.889
541.81	58.930
542.15	58.937
542.49	58.934
542.82	58.951
543.16	58.992
543.50	59.048
543.84	59.103
544.17	59.197
544.51	59.306
544.85	59.364
545.18	59.420
545.52	59.510
545.86	59.585
546.20	59.697
546.53	59.835
546.87	59.875
547.21	59.941
547.54	59.975
547.88	60.051
548.22	60.099
548.55	60.145
548.89	60.221
549.23	60.266
549.56	60.299
549.90	60.315
550.24	60.357
550.57	60.402
550.91	60.492
551.25	60.571
551.58	60.610
551.92	60.659
552.26	60.724
552.59	60.730
552.93	60.837
553.27	60.903
553.60	61.038
553.94	61.012
554.27	61.077
554.61	61.082
554.95	61.133
555.28	61.185
555.62	61.255
555.95	61.313
556.29	61.388
556.63	61.446
556.96	61.546
557.30	61.563
557.63	61.625
557.97	61.658
558.31	61.727
558.64	61.793
558.98	61.845
559.31	61.868
559.65	61.937
559.98	62.030
560.32	62.027
560.65	62.023
560.99	62.045
561.33	62.157
561.66	62.191
562.00	62.227
562.33	62.259
562.67	62.276
563.00	62.311
563.34	62.292
563.67	62.285
564.01	62.310
564.34	62.285
564.68	62.304
565.01	62.234
565.35	62.266
565.68	62.215
566.02	62.237
566.35	62.274
566.69	62.318
567.02	62.353
567.36	62.375
567.69	62.432
568.03	62.502
568.36	62.557
568.69	62.598
569.03	62.631
569.36	62.704
569.70	62.713
570.03	62.743
570.37	62.756
570.70	62.810
571.04	62.810
571.37	62.755
571.70	62.823
572.04	62.782
572.37	62.789
572.71	62.785
573.04	62.819
573.37	62.798
573.71	62.716
574.04	62.713
574.38	62.685
574.71	62.677
575.04	62.737
575.38	62.683
575.71	62.689
576.05	62.709
576.38	62.620
576.71	62.601
577.05	62.660
577.38	62.721
577.71	62.761
578.05	62.790
578.38	62.749
578.71	62.750
579.05	62.711
579.38	62.720
579.71	62.685
580.05	62.776
580.38	62.744
580.71	62.642
581.05	62.674
581.38	62.630
581.71	62.561
582.05	62.605
582.38	62.467
582.71	62.482
583.04	62.462
583.38	62.469
583.71	62.458
584.04	62.448
584.38	62.431
584.71	62.360
585.04	62.272
585.37	62.225
585.71	62.200
586.04	62.279
586.37	62.236
586.70	62.285
587.04	62.230
587.37	62.201
587.70	62.090
588.03	62.086
588.37	62.053
588.70	62.089
589.03	62.123
589.36	62.086
589.69	62.009
590.03	61.978
590.36	61.882
590.69	61.913
591.02	61.843
591.35	61.853
591.69	61.741
592.02	61.680
592.35	61.632
592.68	61.573
593.01	61.577
593.35	61.608
593.68	61.550
594.01	61.501
594.34	61.479
594.67	61.422
595.00	61.414
595.34	61.450
595.67	61.473
596.00	61.439
596.33	61.400
596.66	61.291
596.99	61.202
597.32	61.193
597.65	61.194
597.99	61.100
598.32	61.074
598.65	61.037
598.98	60.958
599.31	60.857
599.64	60.769
599.97	60.695
600.30	60.716
600.63	60.669
600.96	60.565
601.30	60.440
601.63	60.372
601.96	60.331
602.29	60.248
602.62	60.261
602.95	60.207
603.28	60.138
603.61	60.072
603.94	59.940
604.27	59.859
604.60	59.780
604.93	59.700
605.26	59.611
605.59	59.474
605.92	59.409
606.25	59.299
606.58	59.185
606.91	59.111
607.24	59.032
607.57	58.974
607.90	58.939
608.23	58.845
608.56	58.816
608.89	58.756
609.22	58.692
609.55	58.594
609.88	58.473
610.21	58.422
610.54	58.332
610.87	58.236
611.20	58.225
611.53	58.103
611.86	58.100
612.19	58.051
612.52	57.983
612.85	57.903
613.18	57.871
613.51	57.802
613.84	57.705
614.17	57.611
614.49	57.506
614.82	57.390
615.15	57.233
615.48	57.202
615.81	57.089
616.14	57.032
616.47	56.992
616.80	56.886
617.13	56.789
617.46	56.687
617.78	56.614
618.11	56.564
618.44	56.364
618.77	56.293
619.10	56.082
619.43	55.960
619.76	55.836
620.09	55.792
620.41	55.717
620.74	55.591
621.07	55.485
621.40	55.368
621.73	55.295
622.06	55.245
622.38	55.118
622.71	55.053
623.04	54.956
623.37	54.890
623.70	54.815
624.02	54.741
624.35	54.762
624.68	54.694
625.01	54.712
625.34	54.650
625.66	54.641
625.99	54.697
626.32	54.672
626.65	54.558
626.98	54.465
627.30	54.350
627.63	54.246
627.96	54.019
628.29	53.984
628.61	53.802
628.94	53.681
629.27	53.557
629.60	53.359
629.92	53.203
630.25	53.213
630.58	53.062
630.91	53.029
631.23	52.924
631.56	52.958
631.89	52.821
632.21	52.717
632.54	52.566
632.87	52.461
633.19	52.405
633.52	52.403
633.85	52.257
634.18	52.197
634.50	51.986
634.83	51.937
635.16	51.803
635.48	51.802
635.81	51.758
636.14	51.750
636.46	51.683
636.79	51.648
637.11	51.570
637.44	51.526
637.77	51.481
638.09	51.514
638.42	51.448
638.75	51.294
639.07	51.179
639.40	51.122
639.73	51.006
640.05	50.903
640.38	50.780
640.70	50.649
641.03	50.552
641.36	50.482
641.68	50.334
642.01	50.232
642.33	50.286
642.66	50.201
642.98	50.103
643.31	50.137
643.64	50.096
643.96	50.033
644.29	49.972
644.61	49.909
644.94	49.788
645.26	49.714
645.59	49.627
645.91	49.557
646.24	49.463
646.56	49.394
646.89	49.270
647.22	49.245
647.54	49.154
647.87	49.102
648.19	49.017
648.52	48.967
648.84	48.940
649.17	48.819
649.49	48.699
649.82	48.639
650.14	48.581
650.47	48.497
650.79	48.394
651.11	48.346
651.44	48.196
651.76	48.131
652.09	48.045
652.41	47.940
652.74	47.911
653.06	47.919
653.39	47.921
653.71	47.842
654.04	47.723
654.36	47.675
654.68	47.605
655.01	47.677
655.33	47.691
655.66	47.747
655.98	47.667
656.30	47.613
656.63	47.506
656.95	47.413
657.28	47.422
657.60	47.429
657.92	47.362
658.25	47.298
658.57	47.113
658.90	47.016
659.22	46.890
659.54	46.915
659.87	46.904
660.19	46.824
660.51	46.731
660.84	46.503
661.16	46.416
661.48	46.324
661.81	46.180
662.13	46.065
662.45	45.919
662.78	45.801
663.10	45.642
663.42	45.544
663.75	45.526
664.07	45.514
664.39	45.616
664.72	45.499
665.04	45.395
665.36	45.422
665.69	45.518
666.01	45.505
666.33	45.449
666.65	45.485
666.98	45.349
667.30	45.260
667.62	45.150
667.94	44.994
668.27	44.962
668.59	44.947
668.91	44.912
669.23	44.763
669.56	44.718
669.88	44.679
670.20	44.552
670.52	44.615
670.85	44.537
671.17	44.519
671.49	44.468
671.81	44.460
672.13	44.306
672.46	44.236
672.78	44.268
673.10	44.186
673.42	44.164
673.74	44.153
674.07	44.049
674.39	43.983
674.71	43.950
675.03	43.946
675.35	43.899
675.67	43.973
676.00	43.936
676.32	43.916
676.64	43.879
676.96	43.781
677.28	43.660
677.60	43.592
677.92	43.554
678.25	43.432
678.57	43.399
678.89	43.412
679.21	43.295
679.53	43.314
679.85	43.246
680.17	43.124
680.49	43.116
680.81	43.094
681.13	43.066
681.46	43.030
681.78	43.000
682.10	42.870
682.42	42.678
682.74	42.624
683.06	42.451
683.38	42.413
683.70	42.517
684.02	42.405
684.34	42.388
684.66	42.289
684.98	42.243
685.30	42.236
685.62	42.334
685.94	42.315
686.26	42.416
686.58	42.471
686.90	42.310
687.22	42.191
687.54	42.217
687.86	42.190
688.18	42.211
688.50	42.287
688.82	42.279
689.14	42.174
689.46	42.152
689.78	42.003
690.10	41.899
690.42	41.867
690.74	41.799
691.06	41.677
691.38	41.618
691.70	41.514
692.02	41.385
692.34	41.316
692.66	41.255
692.98	41.141
693.30	41.132
693.62	41.128
693.94	41.260
694.26	41.338
694.57	41.474
694.89	41.394
695.21	41.418
695.53	41.326
695.85	41.232
696.17	41.090
696.49	41.129
696.81	41.076
697.13	41.036
697.44	40.920
697.76	40.775
698.08	40.548
698.40	40.514
698.72	40.451
699.04	40.368
699.36	40.278
699.67	40.343
699.99	40.185
700.31	40.138
700.63	39.985
700.95	39.958
701.27	39.965
701.58	39.954
701.90	39.901
702.22	39.817
702.54	39.820
702.86	39.967
703.17	39.944
703.49	39.955
703.81	39.912
704.13	39.960
704.45	39.932
704.76	39.934
705.08	39.977
705.40	39.907
705.72	39.907
706.03	39.771
706.35	39.701
706.67	39.562
706.99	39.574
707.30	39.458
707.62	39.292
707.94	39.138
708.26	39.110
708.57	39.118
708.89	39.045
709.21	38.973
709.53	39.052
709.84	38.930
710.16	38.997
710.48	38.944
710.79	38.972
711.11	39.040
711.43	39.165
711.74	39.099
712.06	38.994
712.38	39.041
712.69	38.981
713.01	38.898
713.33	38.973
713.64	38.839
713.96	38.794
714.28	38.855
714.59	38.804
714.91	38.568
715.23	38.428
715.54	38.492
715.86	38.518
716.17	38.445
716.49	38.537
716.81	38.409
717.12	38.488
717.44	38.469
717.76	38.283
718.07	38.331
718.39	38.376
718.70	38.330
719.02	38.121
719.33	38.004
719.65	38.180
719.97	38.052
720.28	37.955
720.60	37.841
720.91	37.907
721.23	37.855
721.54	37.871
721.86	37.932
722.17	38.054
722.49	38.148
722.81	38.127
723.12	37.829
723.44	37.769
723.75	37.730
724.07	37.557
724.38	37.521
724.70	37.497
725.01	37.308
725.33	37.144
725.64	37.020
725.96	36.993
726.27	36.959
726.59	37.066
726.90	37.089
727.22	36.949
727.53	36.983
727.84	36.953
728.16	37.040
728.47	37.025
728.79	37.192
729.10	37.330
729.42	37.274
729.73	37.130
730.05	37.079
730.36	36.950
730.67	37.125
730.99	37.042
731.30	36.982
731.62	36.783
731.93	36.666
732.24	36.491
732.56	36.326
732.87	36.366
733.19	36.447
733.50	36.496
733.81	36.613
734.13	36.572
734.44	36.689
734.76	36.645
735.07	36.702
735.38	36.621
735.70	36.590
736.01	36.468
736.32	36.293
736.64	36.308
736.95	36.177
737.26	36.126
737.58	35.875
737.89	35.774
738.20	35.760
738.52	35.611
738.83	35.807
739.14	35.850
739.45	35.878
739.77	35.842
740.08	35.763
740.39	35.789
740.71	35.687
741.02	35.905
741.33	35.988
741.64	35.777
741.96	35.832
742.27	35.708
742.58	35.713
742.90	35.672
743.21	35.832
743.52	35.645
743.83	35.685
744.14	35.667
744.46	35.313
744.77	35.192
745.08	35.238
745.39	35.075
745.71	34.873
746.02	34.621
746.33	34.814
746.64	34.795
746.95	34.894
747.27	34.842
747.58	34.875
747.89	35.112
748.20	34.858
748.51	35.064
748.82	35.155
749.14	35.396
749.45	35.453
749.76	35.059
750.07	34.867
750.38	35.012
750.69	34.871
751.01	34.691
751.32	34.668
751.63	34.709
751.94	34.446
752.25	34.414
752.56	34.413
752.87	34.234
753.18	34.417
753.49	34.430
753.81	34.225
754.12	34.067
754.43	34.045
754.74	34.056
755.05	34.155
755.36	34.193
755.67	34.478
755.98	34.584
756.29	34.866
756.60	34.778
756.91	34.727
757.22	34.780
757.53	34.920
757.84	35.034
758.15	35.080
758.46	35.150
758.77	35.090
759.09	34.774
759.40	34.651
759.71	34.511
760.02	34.464
760.33	34.609
760.64	34.514
760.95	34.498
761.26	34.433
761.57	34.273
761.88	34.345
762.18	34.339
762.49	34.365
762.80	34.304
763.11	34.187
763.42	34.304
763.73	34.149
764.04	34.088
764.35	34.004
764.66	33.974
764.97	33.921
765.28	33.649
765.59	33.534
765.90	33.427
766.21	33.299
766.52	33.389
766.83	33.066
767.14	33.134
767.44	33.307
767.75	33.229
768.06	33.014
768.37	33.116
768.68	33.072
768.99	33.111
769.30	33.141
769.61	33.119
769.91	33.052
770.22	33.236
770.53	32.814
770.84	32.601
771.15	32.850
771.46	33.118
771.77	33.194
772.07	33.238
772.38	33.090
772.69	33.095
773.00	32.870
773.31	32.895
773.61	32.769
773.92	33.241
774.23	33.227
774.54	33.275
774.85	33.320
775.15	33.057
775.46	33.033
775.77	32.885
776.08	32.803
776.39	33.152
776.69	32.907
777.00	33.102
777.31	32.782
777.62	32.567
777.92	32.438
778.23	32.358
778.54	32.700
778.85	32.902
779.15	33.357
779.46	33.537
779.77	32.994
780.07	33.419
780.38	33.391
780.69	33.514
781.00	33.866
781.30	33.854
781.61	33.818
781.92	33.378
782.22	33.004
782.53	32.981
782.84	32.755
783.14	33.127
783.45	33.152
783.76	33.050
784.06	32.855
784.37	32.981
784.68	32.757
784.98	32.898
785.29	33.343
785.60	33.294
785.90	33.068
786.21	33.280
786.51	33.030
786.82	32.455
787.13	32.255
787.43	32.301
787.74	32.206
788.04	32.171
788.35	31.886
788.66	31.661
788.96	31.578
789.27	31.663
789.57	31.498
789.88	31.144
790.19	31.663
790.49	31.623
790.80	31.830
791.10	32.021
791.41	32.414
791.71	32.359
792.02	32.103
792.32	32.852
792.63	32.746
792.93	32.619
793.24	33.251
793.54	32.942
793.85	33.004
794.15	32.841
794.46	32.214
794.76	32.027
795.07	32.230
795.37	32.618
795.68	32.061
795.98	31.903
796.29	31.981
796.59	31.874
796.90	31.755
797.20	31.632
797.51	31.559
797.81	32.082
798.12	31.969
798.42	31.710
798.72	31.448
799.03	31.547
799.33	31.953
799.64	31.994
799.94	32.260
800.25	32.308
800.55	32.416
800.85	32.689
801.16	31.826
801.46	31.578
801.77	31.366
802.07	31.798
802.37	31.903
802.68	31.827
802.98	31.828
803.28	31.608
803.59	31.734
803.89	32.088
804.20	31.656
804.50	32.263
804.80	33.005
805.11	33.095
805.41	32.894
805.71	33.050
806.02	32.656
806.32	32.585
806.62	32.832
806.93	32.726
807.23	32.431
807.53	32.789
807.83	33.140
808.14	32.827
808.44	33.574
808.74	33.392
809.05	32.970
809.35	32.987
809.65	32.953
809.95	32.997
810.26	33.017
810.56	33.194
810.86	32.947
811.16	32.654
811.47	32.327
811.77	31.633
812.07	30.915
812.37	31.565
812.68	31.585
812.98	31.122
813.28	31.470
813.58	31.991
813.88	31.750
814.19	31.309
814.49	31.011
814.79	31.140
815.09	30.970
815.39	31.441
815.70	31.200
816.00	31.729
816.30	31.914
816.60	31.225
816.90	31.028
817.20	30.984
817.50	31.339
817.81	31.526
818.11	31.455
818.41	31.875
818.71	32.039
819.01	31.923
819.31	31.741
819.61	31.690
819.92	31.788
820.22	31.770
820.52	31.708
820.82	31.735
821.12	31.614
821.42	31.647
821.72	31.526
822.02	31.482
822.32	31.474
822.62	31.505
822.92	31.501
823.22	31.415
823.52	31.285
823.83	31.317
824.13	31.244
824.43	31.340
824.73	31.387
825.03	31.352
825.33	31.323
825.63	31.313
825.93	31.219
826.23	31.208
826.53	31.277
826.83	31.521
827.13	31.537
827.43	31.628
827.73	31.677
828.03	31.574
828.33	31.725
828.63	31.600
828.93	31.693
829.23	31.741
829.53	31.775
829.83	31.653
830.13	31.355
830.42	31.478
830.72	31.516
831.02	31.322
831.32	31.135
831.62	30.982
831.92	30.983
832.22	30.882
832.52	30.725
832.82	30.991
833.12	30.941
833.42	30.975
833.72	30.814
834.01	30.632
834.31	30.671
834.61	30.698
834.91	30.793
835.21	30.976
835.51	30.822
835.81	31.015
836.11	30.790
836.40	31.133
836.70	31.244
837.00	31.389
837.30	31.135
837.60	30.943
837.90	31.069
838.19	31.515
838.49	30.887
838.79	30.502
839.09	30.202
839.39	30.718
839.68	30.194
839.98	29.803
840.28	29.645
840.58	30.774
840.88	31.444
841.17	30.991
841.47	30.145
841.77	30.078
842.07	30.284
842.36	30.816
842.66	29.919
842.96	29.389
843.26	29.757
843.55	29.916
843.85	28.573
844.15	27.359
844.45	26.343
844.74	24.906
845.04	25.604
845.34	25.545
845.63	24.988
845.93	23.494
846.23	23.034
846.53	23.570
846.82	24.671
847.12	25.459
847.42	25.131
847.71	26.028
848.01	27.761
848.31	28.419
848.60	29.255
848.90	29.281
849.19	31.223
849.49	33.040
849.79	31.477
850.08	29.308
850.38	27.220
850.68	26.943
850.97	28.683
851.27	28.263
851.56	28.617
851.86	28.365
852.16	28.352
852.45	27.378
852.75	25.607
853.04	25.914
853.34	27.909
853.64	28.390
853.93	27.697
854.23	27.825
854.52	28.284
854.82	26.864
855.11	28.125
855.41	26.968
855.70	27.695
856.00	28.445
856.30	28.839
856.59	27.777
856.89	30.751
857.18	31.879
857.48	30.609
857.77	31.535
858.07	32.268
858.36	31.832
858.66	32.037
858.95	32.761
859.25	32.321
859.54	32.900
859.84	33.585
860.13	30.559
860.42	32.434
860.72	32.854
861.01	30.154
861.31	30.251
861.60	29.378
861.90	31.050
862.19	31.183
862.49	32.440
862.78	33.007
863.07	31.326
863.37	32.398
863.66	31.471
863.96	32.066
864.25	33.801
864.54	33.253
864.84	33.021
865.13	33.280
865.43	33.774
865.72	35.404
866.01	27.553
866.31	25.881
866.60	34.713
866.89	45.958
>>>>>End Spectral Data<<<<<
