OOIBase32 Version 2.0.0.6 Data File
++++++++++++++++++++++++++++++++++++
Date: 01-23-2012, 22:07:40
User: Valued Ocean Optics Customer
Spectrometer Serial Number: USB2E2917
Spectrometer Channel: Master
Integration Time (msec): 5
Spectra Averaged: 10
Boxcar Smoothing: 5
Correct for Electrical Dark: Enabled
Time Normalized: Disabled
Dual-beam Reference: Disabled
Reference Channel: Master
Temperature: Not acquired
Spectrometer Type: S2000
ADC Type: USB2000
Number of Pixels in File: 2048
Graph Title: 
>>>>>Begin Spectral Data<<<<<
180.30	0.000
180.67	0.000
181.03	260.276
181.40	177.297
181.77	3563.733
182.14	164.717
182.51	109.519
182.88	-1999.258
183.25	413.146
183.62	75.150
183.99	85.621
184.36	59.304
184.73	83.623
185.10	168.021
185.46	84.475
185.83	13.754
186.20	-46.652
186.57	98.886
186.94	122.915
187.31	129.340
187.68	100.740
188.05	-10.977
188.42	-3.885
188.78	4.448
189.15	14.660
189.52	5.017
189.89	6.637
190.26	-12.186
190.63	1.997
191.00	-10.169
191.37	7.884
191.73	12.499
192.10	17.465
192.47	15.743
192.84	11.544
193.21	12.018
193.58	24.876
193.94	29.697
194.31	30.361
194.68	29.188
195.05	20.067
195.42	3.557
195.79	-1.506
196.15	5.157
196.52	9.888
196.89	-0.085
197.26	5.362
197.63	-19.959
198.00	-23.193
198.36	-20.583
198.73	-19.538
199.10	-13.792
199.47	-3.372
199.84	-6.894
200.20	-2.552
200.57	-32.636
200.94	-18.197
201.31	-25.298
201.68	11.421
202.04	7.759
202.41	17.325
202.78	6.855
203.15	15.917
203.51	-1.854
203.88	5.349
204.25	-6.045
204.62	13.741
204.98	24.756
205.35	29.366
205.72	29.454
206.09	34.105
206.46	39.443
206.82	59.569
207.19	53.085
207.56	50.840
207.92	40.790
208.29	54.879
208.66	48.821
209.03	47.168
209.39	43.180
209.76	26.909
210.13	16.944
210.50	-1.756
210.86	-4.381
211.23	19.251
211.60	8.967
211.96	22.480
212.33	4.718
212.70	14.837
213.07	-2.646
213.43	1.238
213.80	4.548
214.17	1.243
214.53	13.194
214.90	14.647
215.27	2.692
215.63	4.363
216.00	-6.667
216.37	-0.603
216.74	-14.512
217.10	-6.712
217.47	-20.081
217.84	-17.283
218.20	0.441
218.57	-3.784
218.94	-5.118
219.30	-7.554
219.67	-8.093
220.04	-3.824
220.40	-1.122
220.77	-2.766
221.13	-12.128
221.50	-11.885
221.87	-10.064
222.23	-8.343
222.60	-2.888
222.97	-4.555
223.33	-6.004
223.70	-3.630
224.07	1.411
224.43	4.536
224.80	8.599
225.16	10.811
225.53	13.762
225.90	9.344
226.26	4.440
226.63	2.560
226.99	2.994
227.36	5.204
227.73	4.519
228.09	0.470
228.46	-1.219
228.82	-2.642
229.19	-3.736
229.56	-6.247
229.92	-4.810
230.29	-1.487
230.65	-1.475
231.02	-2.129
231.38	-4.923
231.75	-4.239
232.12	-1.081
232.48	0.071
232.85	-0.773
233.21	1.153
233.58	2.269
233.94	5.039
234.31	3.083
234.68	2.143
235.04	1.525
235.41	2.136
235.77	3.653
236.14	3.290
236.50	2.747
236.87	3.965
237.23	2.347
237.60	2.220
237.96	0.741
238.33	2.312
238.69	2.926
239.06	3.294
239.42	3.920
239.79	3.878
240.15	3.564
240.52	3.104
240.88	2.924
241.25	3.655
241.61	3.567
241.98	3.863
242.34	3.198
242.71	3.460
243.07	3.702
243.44	3.584
243.80	3.405
244.17	3.621
244.53	4.085
244.90	3.986
245.26	3.714
245.63	3.725
245.99	3.861
246.36	4.270
246.72	3.835
247.09	3.629
247.45	3.595
247.81	3.227
248.18	3.077
248.54	2.788
248.91	2.609
249.27	2.715
249.64	2.489
250.00	2.370
250.36	2.074
250.73	2.250
251.09	2.456
251.46	2.488
251.82	3.041
252.19	3.558
252.55	3.696
252.91	3.960
253.28	3.639
253.64	4.023
254.01	3.816
254.37	3.517
254.73	3.796
255.10	3.825
255.46	3.517
255.83	3.116
256.19	2.876
256.55	2.784
256.92	2.788
257.28	3.003
257.65	3.200
258.01	3.350
258.37	3.395
258.74	3.445
259.10	3.348
259.46	3.562
259.83	3.784
260.19	3.779
260.55	3.826
260.92	3.813
261.28	3.600
261.64	3.228
262.01	2.984
262.37	2.823
262.73	2.244
263.10	2.293
263.46	2.322
263.82	2.065
264.19	1.910
264.55	1.755
264.91	1.729
265.28	2.289
265.64	2.143
266.00	1.948
266.37	1.818
266.73	2.288
267.09	2.205
267.46	2.159
267.82	2.299
268.18	2.426
268.54	2.408
268.91	2.705
269.27	2.478
269.63	2.621
270.00	2.845
270.36	2.901
270.72	2.747
271.08	2.625
271.45	2.633
271.81	2.795
272.17	2.781
272.53	2.740
272.90	2.495
273.26	2.322
273.62	2.318
273.98	2.194
274.35	2.306
274.71	2.566
275.07	2.863
275.43	2.914
275.80	2.795
276.16	2.949
276.52	2.960
276.88	3.019
277.25	3.209
277.61	3.487
277.97	3.474
278.33	3.148
278.69	2.721
279.06	2.781
279.42	2.448
279.78	2.313
280.14	2.242
280.50	2.431
280.87	2.410
281.23	2.538
281.59	2.507
281.95	2.422
282.31	2.767
282.68	3.317
283.04	3.201
283.40	3.242
283.76	3.240
284.12	3.244
284.48	3.275
284.85	3.374
285.21	3.213
285.57	3.153
285.93	3.379
286.29	3.267
286.65	2.999
287.02	3.051
287.38	3.268
287.74	3.395
288.10	3.414
288.46	3.299
288.82	3.081
289.18	3.133
289.54	3.186
289.91	3.191
290.27	3.166
290.63	3.089
290.99	2.948
291.35	2.926
291.71	3.093
292.07	2.896
292.43	2.978
292.79	3.314
293.16	3.409
293.52	3.521
293.88	3.569
294.24	3.686
294.60	3.571
294.96	3.675
295.32	3.612
295.68	3.245
296.04	3.504
296.40	3.622
296.76	3.580
297.12	3.576
297.49	3.485
297.85	3.500
298.21	3.379
298.57	3.528
298.93	3.495
299.29	3.598
299.65	3.751
300.01	3.802
300.37	3.735
300.73	3.815
301.09	3.808
301.45	3.874
301.81	3.801
302.17	3.958
302.53	4.104
302.89	4.131
303.25	4.051
303.61	4.231
303.97	4.146
304.33	4.088
304.69	3.985
305.05	4.149
305.41	4.099
305.77	4.151
306.13	4.110
306.49	4.173
306.85	4.247
307.21	4.389
307.57	4.382
307.93	4.385
308.29	4.538
308.65	4.512
309.01	4.423
309.37	4.593
309.73	4.514
310.09	4.609
310.45	4.536
310.81	4.551
311.17	4.397
311.53	4.373
311.89	4.371
312.25	4.266
312.61	4.332
312.96	4.419
313.32	4.339
313.68	4.349
314.04	4.335
314.40	4.314
314.76	4.360
315.12	4.550
315.48	4.676
315.84	4.629
316.20	4.768
316.56	4.828
316.92	4.719
317.27	4.629
317.63	4.771
317.99	4.773
318.35	4.807
318.71	4.672
319.07	4.586
319.43	4.630
319.79	4.702
320.15	4.568
320.50	4.451
320.86	4.569
321.22	4.652
321.58	4.748
321.94	4.778
322.30	4.808
322.66	4.981
323.01	5.067
323.37	4.940
323.73	5.011
324.09	5.146
324.45	5.284
324.81	5.295
325.17	5.411
325.52	5.435
325.88	5.449
326.24	5.528
326.60	5.669
326.96	5.788
327.31	5.885
327.67	5.958
328.03	5.959
328.39	5.986
328.75	6.146
329.11	6.173
329.46	6.135
329.82	6.256
330.18	6.321
330.54	6.251
330.90	6.305
331.25	6.261
331.61	6.205
331.97	6.249
332.33	6.343
332.68	6.125
333.04	6.099
333.40	6.088
333.76	6.082
334.11	6.046
334.47	6.006
334.83	5.925
335.19	6.094
335.54	6.263
335.90	6.399
336.26	6.334
336.62	6.430
336.97	6.371
337.33	6.413
337.69	6.358
338.05	6.430
338.40	6.512
338.76	6.495
339.12	6.426
339.48	6.379
339.83	6.278
340.19	6.324
340.55	6.356
340.90	6.443
341.26	6.459
341.62	6.484
341.97	6.452
342.33	6.466
342.69	6.525
343.04	6.553
343.40	6.536
343.76	6.517
344.12	6.512
344.47	6.554
344.83	6.498
345.19	6.524
345.54	6.596
345.90	6.691
346.26	6.644
346.61	6.764
346.97	6.714
347.32	6.701
347.68	6.699
348.04	6.697
348.39	6.710
348.75	6.878
349.11	6.882
349.46	6.815
349.82	6.754
350.18	6.802
350.53	6.664
350.89	6.797
351.24	6.823
351.60	6.908
351.96	6.901
352.31	6.985
352.67	6.869
353.02	6.860
353.38	6.865
353.74	6.832
354.09	6.806
354.45	6.832
354.80	6.730
355.16	6.708
355.52	6.684
355.87	6.661
356.23	6.624
356.58	6.664
356.94	6.641
357.29	6.676
357.65	6.660
358.00	6.725
358.36	6.728
358.72	6.805
359.07	6.861
359.43	6.899
359.78	6.944
360.14	6.928
360.49	6.899
360.85	6.938
361.20	6.922
361.56	6.967
361.91	6.968
362.27	7.029
362.62	6.997
362.98	6.964
363.33	6.955
363.69	6.949
364.04	6.973
364.40	7.017
364.75	7.050
365.11	7.160
365.46	7.264
365.82	7.232
366.17	7.207
366.53	7.267
366.88	7.318
367.24	7.406
367.59	7.445
367.95	7.515
368.30	7.558
368.66	7.586
369.01	7.617
369.37	7.571
369.72	7.662
370.08	7.778
370.43	7.796
370.78	7.840
371.14	7.817
371.49	7.918
371.85	7.935
372.20	7.989
372.56	8.083
372.91	8.034
373.26	8.082
373.62	8.126
373.97	8.130
374.33	8.148
374.68	8.196
375.03	8.298
375.39	8.302
375.74	8.338
376.10	8.369
376.45	8.381
376.80	8.459
377.16	8.506
377.51	8.566
377.87	8.615
378.22	8.765
378.57	8.901
378.93	8.951
379.28	9.122
379.63	9.195
379.99	9.302
380.34	9.373
380.70	9.478
381.05	9.590
381.40	9.705
381.76	9.789
382.11	9.798
382.46	9.824
382.82	9.888
383.17	9.929
383.52	9.983
383.88	10.020
384.23	10.100
384.58	10.176
384.94	10.273
385.29	10.307
385.64	10.405
385.99	10.561
386.35	10.710
386.70	10.827
387.05	10.849
387.41	10.982
387.76	11.118
388.11	11.170
388.47	11.306
388.82	11.347
389.17	11.435
389.52	11.514
389.88	11.583
390.23	11.616
390.58	11.684
390.93	11.795
391.29	11.895
391.64	11.926
391.99	12.031
392.34	12.061
392.70	12.163
393.05	12.215
393.40	12.232
393.75	12.283
394.11	12.329
394.46	12.389
394.81	12.467
395.16	12.439
395.52	12.514
395.87	12.536
396.22	12.576
396.57	12.600
396.92	12.653
397.28	12.736
397.63	12.763
397.98	12.826
398.33	12.900
398.68	12.927
399.04	13.043
399.39	13.112
399.74	13.215
400.09	13.278
400.44	13.343
400.80	13.398
401.15	13.468
401.50	13.537
401.85	13.604
402.20	13.645
402.55	13.731
402.90	13.791
403.26	13.849
403.61	13.895
403.96	13.933
404.31	13.979
404.66	14.056
405.01	14.125
405.36	14.211
405.72	14.251
406.07	14.307
406.42	14.325
406.77	14.314
407.12	14.352
407.47	14.411
407.82	14.467
408.17	14.514
408.53	14.545
408.88	14.601
409.23	14.647
409.58	14.643
409.93	14.670
410.28	14.750
410.63	14.828
410.98	14.878
411.33	14.846
411.68	14.874
412.03	14.956
412.38	15.017
412.73	15.020
413.09	15.008
413.44	15.058
413.79	15.088
414.14	15.071
414.49	15.092
414.84	15.105
415.19	15.185
415.54	15.198
415.89	15.187
416.24	15.180
416.59	15.197
416.94	15.218
417.29	15.257
417.64	15.263
417.99	15.294
418.34	15.322
418.69	15.339
419.04	15.340
419.39	15.387
419.74	15.412
420.09	15.442
420.44	15.463
420.79	15.486
421.14	15.485
421.49	15.512
421.84	15.539
422.19	15.560
422.54	15.613
422.89	15.659
423.24	15.671
423.59	15.705
423.94	15.737
424.29	15.762
424.64	15.793
424.99	15.868
425.34	15.932
425.68	15.974
426.03	16.048
426.38	16.058
426.73	16.123
427.08	16.177
427.43	16.234
427.78	16.266
428.13	16.322
428.48	16.359
428.83	16.384
429.18	16.396
429.53	16.437
429.87	16.424
430.22	16.405
430.57	16.387
430.92	16.415
431.27	16.424
431.62	16.439
431.97	16.458
432.32	16.480
432.67	16.496
433.01	16.531
433.36	16.540
433.71	16.584
434.06	16.648
434.41	16.710
434.76	16.738
435.11	16.744
435.45	16.777
435.80	16.788
436.15	16.802
436.50	16.806
436.85	16.807
437.20	16.813
437.54	16.816
437.89	16.814
438.24	16.812
438.59	16.804
438.94	16.842
439.29	16.851
439.63	16.877
439.98	16.932
440.33	16.967
440.68	16.986
441.03	17.016
441.37	17.016
441.72	17.050
442.07	17.037
442.42	17.040
442.76	17.030
443.11	17.056
443.46	17.035
443.81	17.005
444.16	16.996
444.50	17.008
444.85	17.015
445.20	17.038
445.55	17.048
445.89	17.080
446.24	17.097
446.59	17.116
446.94	17.121
447.28	17.174
447.63	17.216
447.98	17.267
448.32	17.310
448.67	17.320
449.02	17.351
449.37	17.366
449.71	17.390
450.06	17.438
450.41	17.470
450.75	17.488
451.10	17.484
451.45	17.508
451.79	17.500
452.14	17.494
452.49	17.536
452.84	17.557
453.18	17.563
453.53	17.592
453.88	17.614
454.22	17.626
454.57	17.657
454.92	17.710
455.26	17.751
455.61	17.776
455.95	17.793
456.30	17.806
456.65	17.822
456.99	17.863
457.34	17.876
457.69	17.896
458.03	17.919
458.38	17.934
458.73	17.935
459.07	17.944
459.42	17.975
459.76	18.002
460.11	18.031
460.46	18.082
460.80	18.131
461.15	18.183
461.49	18.214
461.84	18.291
462.19	18.342
462.53	18.401
462.88	18.423
463.22	18.432
463.57	18.476
463.91	18.493
464.26	18.517
464.61	18.512
464.95	18.523
465.30	18.563
465.64	18.550
465.99	18.560
466.33	18.579
466.68	18.623
467.02	18.657
467.37	18.685
467.71	18.720
468.06	18.734
468.41	18.767
468.75	18.800
469.10	18.802
469.44	18.831
469.79	18.852
470.13	18.893
470.48	18.875
470.82	18.919
471.17	18.953
471.51	18.966
471.86	18.985
472.20	19.009
472.55	19.050
472.89	19.080
473.23	19.102
473.58	19.131
473.92	19.123
474.27	19.191
474.61	19.190
474.96	19.205
475.30	19.214
475.65	19.229
475.99	19.243
476.34	19.256
476.68	19.296
477.02	19.326
477.37	19.357
477.71	19.425
478.06	19.467
478.40	19.583
478.75	19.751
479.09	19.957
479.43	20.172
479.78	20.428
480.12	20.704
480.47	20.991
480.81	21.297
481.15	21.631
481.50	21.965
481.84	22.359
482.19	22.789
482.53	23.125
482.87	23.273
483.22	23.236
483.56	23.014
483.90	22.666
484.25	22.243
484.59	21.847
484.94	21.550
485.28	21.252
485.62	20.866
485.97	20.425
486.31	20.050
486.65	19.858
487.00	19.851
487.34	19.989
487.68	20.223
488.03	20.503
488.37	20.738
488.71	20.805
489.06	20.822
489.40	20.833
489.74	20.826
490.09	20.835
490.43	20.824
490.77	20.791
491.11	20.786
491.46	20.787
491.80	20.797
492.14	20.788
492.49	20.768
492.83	20.751
493.17	20.770
493.51	20.783
493.86	20.775
494.20	20.822
494.54	20.869
494.88	20.915
495.23	20.961
495.57	20.993
495.91	21.023
496.25	21.065
496.60	21.093
496.94	21.096
497.28	21.135
497.62	21.176
497.97	21.188
498.31	21.242
498.65	21.262
498.99	21.271
499.33	21.312
499.68	21.363
500.02	21.415
500.36	21.454
500.70	21.514
501.04	21.556
501.39	21.572
501.73	21.623
502.07	21.662
502.41	21.715
502.75	21.766
503.09	21.822
503.44	21.868
503.78	21.897
504.12	21.954
504.46	22.001
504.80	22.037
505.14	22.102
505.49	22.121
505.83	22.168
506.17	22.190
506.51	22.218
506.85	22.237
507.19	22.289
507.53	22.329
507.87	22.388
508.22	22.423
508.56	22.473
508.90	22.512
509.24	22.575
509.58	22.616
509.92	22.672
510.26	22.714
510.60	22.757
510.94	22.776
511.28	22.808
511.63	22.843
511.97	22.878
512.31	22.926
512.65	22.983
512.99	23.025
513.33	23.067
513.67	23.140
514.01	23.222
514.35	23.296
514.69	23.393
515.03	23.472
515.37	23.511
515.71	23.576
516.05	23.618
516.39	23.662
516.73	23.715
517.07	23.769
517.41	23.794
517.75	23.824
518.09	23.861
518.43	23.855
518.77	23.890
519.11	23.954
519.45	23.983
519.79	24.026
520.13	24.070
520.47	24.110
520.81	24.172
521.15	24.233
521.49	24.286
521.83	24.341
522.17	24.418
522.51	24.487
522.85	24.560
523.19	24.709
523.53	24.898
523.87	25.096
524.21	25.290
524.55	25.451
524.89	25.591
525.23	25.766
525.57	25.886
525.91	26.019
526.25	26.135
526.58	26.243
526.92	26.299
527.26	26.311
527.60	26.292
527.94	26.248
528.28	26.222
528.62	26.191
528.96	26.131
529.30	26.105
529.64	26.038
529.97	25.979
530.31	25.902
530.65	25.879
530.99	25.873
531.33	25.874
531.67	25.916
532.01	25.933
532.35	25.939
532.68	25.948
533.02	25.953
533.36	25.969
533.70	25.963
534.04	25.991
534.38	25.991
534.71	25.990
535.05	26.017
535.39	26.019
535.73	26.056
536.07	26.144
536.41	26.249
536.74	26.333
537.08	26.427
537.42	26.550
537.76	26.642
538.10	26.743
538.43	26.844
538.77	26.923
539.11	27.012
539.45	27.061
539.79	27.093
540.12	27.088
540.46	27.092
540.80	27.097
541.14	27.074
541.47	27.071
541.81	27.056
542.15	27.045
542.49	27.030
542.82	26.989
543.16	26.996
543.50	26.990
543.84	27.002
544.17	27.018
544.51	27.039
544.85	27.080
545.18	27.094
545.52	27.116
545.86	27.126
546.20	27.141
546.53	27.187
546.87	27.198
547.21	27.240
547.54	27.279
547.88	27.340
548.22	27.401
548.55	27.446
548.89	27.491
549.23	27.539
549.56	27.583
549.90	27.648
550.24	27.723
550.57	27.766
550.91	27.784
551.25	27.818
551.58	27.827
551.92	27.854
552.26	27.882
552.59	27.916
552.93	27.958
553.27	27.986
553.60	28.008
553.94	28.036
554.27	28.092
554.61	28.160
554.95	28.236
555.28	28.331
555.62	28.376
555.95	28.427
556.29	28.492
556.63	28.526
556.96	28.586
557.30	28.673
557.63	28.700
557.97	28.727
558.31	28.744
558.64	28.795
558.98	28.805
559.31	28.870
559.65	28.909
559.98	28.943
560.32	28.990
560.65	29.040
560.99	29.062
561.33	29.122
561.66	29.159
562.00	29.205
562.33	29.248
562.67	29.304
563.00	29.345
563.34	29.432
563.67	29.436
564.01	29.446
564.34	29.461
564.68	29.519
565.01	29.523
565.35	29.546
565.68	29.609
566.02	29.607
566.35	29.660
566.69	29.667
567.02	29.666
567.36	29.748
567.69	29.800
568.03	29.848
568.36	29.849
568.69	29.905
569.03	29.976
569.36	30.002
569.70	30.048
570.03	30.062
570.37	30.101
570.70	30.145
571.04	30.162
571.37	30.200
571.70	30.245
572.04	30.296
572.37	30.352
572.71	30.382
573.04	30.411
573.37	30.459
573.71	30.507
574.04	30.574
574.38	30.622
574.71	30.676
575.04	30.740
575.38	30.762
575.71	30.785
576.05	30.815
576.38	30.872
576.71	30.929
577.05	30.969
577.38	31.062
577.71	31.112
578.05	31.186
578.38	31.232
578.71	31.287
579.05	31.343
579.38	31.454
579.71	31.500
580.05	31.497
580.38	31.556
580.71	31.630
581.05	31.619
581.38	31.659
581.71	31.684
582.05	31.745
582.38	31.796
582.71	31.885
583.04	31.889
583.38	31.952
583.71	32.026
584.04	32.054
584.38	32.089
584.71	32.156
585.04	32.194
585.37	32.249
585.71	32.279
586.04	32.331
586.37	32.325
586.70	32.353
587.04	32.400
587.37	32.456
587.70	32.505
588.03	32.559
588.37	32.567
588.70	32.599
589.03	32.622
589.36	32.677
589.69	32.680
590.03	32.728
590.36	32.779
590.69	32.820
591.02	32.858
591.35	32.892
591.69	32.903
592.02	32.954
592.35	32.945
592.68	32.973
593.01	32.994
593.35	33.042
593.68	33.090
594.01	33.130
594.34	33.154
594.67	33.169
595.00	33.198
595.34	33.233
595.67	33.282
596.00	33.389
596.33	33.417
596.66	33.431
596.99	33.482
597.32	33.535
597.65	33.599
597.99	33.618
598.32	33.682
598.65	33.770
598.98	33.853
599.31	33.894
599.64	33.933
599.97	33.997
600.30	34.052
600.63	34.081
600.96	34.093
601.30	34.111
601.63	34.139
601.96	34.159
602.29	34.160
602.62	34.168
602.95	34.193
603.28	34.178
603.61	34.201
603.94	34.257
604.27	34.283
604.60	34.342
604.93	34.412
605.26	34.492
605.59	34.554
605.92	34.621
606.25	34.695
606.58	34.753
606.91	34.844
607.24	34.935
607.57	34.936
607.90	34.955
608.23	34.996
608.56	35.014
608.89	35.086
609.22	35.111
609.55	35.133
609.88	35.152
610.21	35.230
610.54	35.290
610.87	35.302
611.20	35.401
611.53	35.516
611.86	35.611
612.19	35.669
612.52	35.681
612.85	35.767
613.18	35.825
613.51	35.881
613.84	35.880
614.17	35.940
614.49	36.018
614.82	36.078
615.15	36.121
615.48	36.142
615.81	36.222
616.14	36.268
616.47	36.324
616.80	36.421
617.13	36.493
617.46	36.588
617.78	36.640
618.11	36.646
618.44	36.703
618.77	36.715
619.10	36.761
619.43	36.795
619.76	36.835
620.09	36.882
620.41	36.933
620.74	36.961
621.07	37.014
621.40	37.082
621.73	37.191
622.06	37.259
622.38	37.373
622.71	37.387
623.04	37.382
623.37	37.410
623.70	37.419
624.02	37.424
624.35	37.452
624.68	37.421
625.01	37.447
625.34	37.415
625.66	37.444
625.99	37.474
626.32	37.513
626.65	37.602
626.98	37.663
627.30	37.737
627.63	37.796
627.96	37.887
628.29	37.984
628.61	37.981
628.94	38.042
629.27	38.084
629.60	38.109
629.92	38.157
630.25	38.184
630.58	38.215
630.91	38.217
631.23	38.219
631.56	38.207
631.89	38.242
632.21	38.315
632.54	38.336
632.87	38.392
633.19	38.462
633.52	38.505
633.85	38.540
634.18	38.574
634.50	38.639
634.83	38.703
635.16	38.816
635.48	38.841
635.81	38.881
636.14	39.018
636.46	39.007
636.79	39.048
637.11	39.083
637.44	39.195
637.77	39.247
638.09	39.258
638.42	39.321
638.75	39.324
639.07	39.408
639.40	39.456
639.73	39.506
640.05	39.611
640.38	39.626
640.70	39.697
641.03	39.722
641.36	39.751
641.68	39.799
642.01	39.811
642.33	39.843
642.66	39.843
642.98	39.902
643.31	39.850
643.64	39.877
643.96	39.922
644.29	39.986
644.61	39.951
644.94	40.024
645.26	40.045
645.59	40.049
645.91	40.144
646.24	40.213
646.56	40.200
646.89	40.268
647.22	40.322
647.54	40.343
647.87	40.326
648.19	40.369
648.52	40.427
648.84	40.526
649.17	40.642
649.49	40.649
649.82	40.664
650.14	40.737
650.47	40.769
650.79	40.725
651.11	40.728
651.44	40.794
651.76	40.828
652.09	40.822
652.41	40.848
652.74	40.841
653.06	40.800
653.39	40.835
653.71	40.845
654.04	40.874
654.36	40.980
654.68	41.002
655.01	40.998
655.33	41.031
655.66	41.085
655.98	41.038
656.30	41.074
656.63	41.127
656.95	41.127
657.28	41.090
657.60	41.061
657.92	40.964
658.25	40.933
658.57	40.929
658.90	40.952
659.22	40.892
659.54	41.009
659.87	40.945
660.19	40.924
660.51	40.991
660.84	41.065
661.16	41.164
661.48	41.307
661.81	41.451
662.13	41.495
662.45	41.500
662.78	41.585
663.10	41.519
663.42	41.666
663.75	41.700
664.07	41.683
664.39	41.714
664.72	41.655
665.04	41.598
665.36	41.505
665.69	41.551
666.01	41.548
666.33	41.569
666.65	41.565
666.98	41.520
667.30	41.508
667.62	41.522
667.94	41.526
668.27	41.582
668.59	41.611
668.91	41.677
669.23	41.670
669.56	41.792
669.88	41.815
670.20	41.843
670.52	41.804
670.85	41.895
671.17	41.872
671.49	41.938
671.81	41.977
672.13	42.003
672.46	42.125
672.78	42.179
673.10	42.102
673.42	42.121
673.74	42.228
674.07	42.278
674.39	42.356
674.71	42.371
675.03	42.366
675.35	42.369
675.67	42.351
676.00	42.265
676.32	42.174
676.64	42.227
676.96	42.207
677.28	42.160
677.60	42.175
677.92	42.067
678.25	42.112
678.57	42.145
678.89	42.117
679.21	42.150
679.53	42.196
679.85	42.260
680.17	42.272
680.49	42.250
680.81	42.258
681.13	42.297
681.46	42.340
681.78	42.443
682.10	42.443
682.42	42.531
682.74	42.542
683.06	42.531
683.38	42.594
683.70	42.598
684.02	42.644
684.34	42.676
684.66	42.698
684.98	42.720
685.30	42.674
685.62	42.646
685.94	42.607
686.26	42.599
686.58	42.599
686.90	42.579
687.22	42.614
687.54	42.700
687.86	42.706
688.18	42.710
688.50	42.623
688.82	42.643
689.14	42.628
689.46	42.688
689.78	42.750
690.10	42.756
690.42	42.791
690.74	42.760
691.06	42.705
691.38	42.678
691.70	42.707
692.02	42.873
692.34	42.837
692.66	42.916
692.98	42.896
693.30	42.912
693.62	42.943
693.94	42.876
694.26	42.904
694.57	42.896
694.89	42.918
695.21	42.902
695.53	42.827
695.85	42.773
696.17	42.737
696.49	42.775
696.81	42.753
697.13	42.672
697.44	42.695
697.76	42.664
698.08	42.663
698.40	42.615
698.72	42.596
699.04	42.575
699.36	42.603
699.67	42.569
699.99	42.421
700.31	42.333
700.63	42.396
700.95	42.357
701.27	42.261
701.58	42.233
701.90	42.247
702.22	42.225
702.54	42.290
702.86	42.326
703.17	42.363
703.49	42.383
703.81	42.477
704.13	42.465
704.45	42.478
704.76	42.562
705.08	42.537
705.40	42.612
705.72	42.618
706.03	42.533
706.35	42.536
706.67	42.415
706.99	42.413
707.30	42.314
707.62	42.345
707.94	42.419
708.26	42.317
708.57	42.255
708.89	42.228
709.21	42.187
709.53	42.189
709.84	42.096
710.16	42.179
710.48	42.299
710.79	42.295
711.11	42.300
711.43	42.145
711.74	42.181
712.06	42.268
712.38	42.228
712.69	42.198
713.01	42.213
713.33	42.237
713.64	42.287
713.96	42.292
714.28	42.419
714.59	42.422
714.91	42.508
715.23	42.654
715.54	42.690
715.86	42.743
716.17	42.931
716.49	42.888
716.81	42.989
717.12	42.891
717.44	42.737
717.76	42.728
718.07	42.787
718.39	42.855
718.70	42.799
719.02	42.684
719.33	42.652
719.65	42.486
719.97	42.699
720.28	42.557
720.60	42.607
720.91	42.667
721.23	42.668
721.54	42.697
721.86	42.731
722.17	42.661
722.49	42.673
722.81	42.679
723.12	42.741
723.44	42.532
723.75	42.584
724.07	42.591
724.38	42.528
724.70	42.606
725.01	42.407
725.33	42.352
725.64	42.338
725.96	42.326
726.27	42.228
726.59	42.199
726.90	42.290
727.22	42.148
727.53	42.218
727.84	42.238
728.16	41.979
728.47	41.927
728.79	41.903
729.10	42.033
729.42	42.030
729.73	41.987
730.05	41.903
730.36	41.803
730.67	41.893
730.99	41.668
731.30	41.649
731.62	41.614
731.93	41.591
732.24	41.429
732.56	41.182
732.87	41.149
733.19	41.270
733.50	41.284
733.81	41.242
734.13	41.035
734.44	41.146
734.76	41.113
735.07	41.127
735.38	41.127
735.70	41.059
736.01	41.064
736.32	41.065
736.64	40.879
736.95	40.744
737.26	40.635
737.58	40.744
737.89	40.486
738.20	40.270
738.52	40.271
738.83	40.255
739.14	40.247
739.45	40.135
739.77	40.169
740.08	40.127
740.39	40.100
740.71	40.091
741.02	40.083
741.33	40.137
741.64	40.263
741.96	40.053
742.27	40.032
742.58	39.739
742.90	39.807
743.21	39.450
743.52	39.383
743.83	39.366
744.14	39.428
744.46	39.210
744.77	39.060
745.08	38.974
745.39	38.992
745.71	38.804
746.02	39.100
746.33	38.985
746.64	38.962
746.95	38.956
747.27	38.887
747.58	38.685
747.89	38.755
748.20	38.783
748.51	38.628
748.82	38.627
749.14	38.533
749.45	38.469
749.76	38.298
750.07	38.267
750.38	38.114
750.69	38.242
751.01	38.341
751.32	38.249
751.63	38.313
751.94	38.351
752.25	38.343
752.56	38.352
752.87	38.255
753.18	38.283
753.49	38.261
753.81	38.352
754.12	38.037
754.43	37.978
754.74	38.113
755.05	38.046
755.36	38.066
755.67	38.171
755.98	38.307
756.29	38.574
756.60	38.776
756.91	38.985
757.22	39.414
757.53	39.569
757.84	39.662
758.15	39.915
758.46	40.184
758.77	40.369
759.09	40.614
759.40	40.854
759.71	41.019
760.02	40.984
760.33	41.083
760.64	41.010
760.95	41.122
761.26	40.974
761.57	40.882
761.88	40.729
762.18	40.664
762.49	40.456
762.80	40.191
763.11	39.911
763.42	39.831
763.73	39.683
764.04	39.389
764.35	39.074
764.66	39.105
764.97	38.852
765.28	38.742
765.59	38.540
765.90	38.191
766.21	38.185
766.52	37.918
766.83	37.699
767.14	37.580
767.44	37.270
767.75	37.410
768.06	37.266
768.37	37.075
768.68	36.980
768.99	36.779
769.30	36.860
769.61	36.465
769.91	36.454
770.22	36.336
770.53	36.076
770.84	36.306
771.15	36.229
771.46	36.043
771.77	35.764
772.07	35.692
772.38	35.544
772.69	35.350
773.00	35.364
773.31	35.467
773.61	35.406
773.92	35.380
774.23	35.049
774.54	34.849
774.85	34.642
775.15	34.765
775.46	34.535
775.77	34.710
776.08	34.971
776.39	34.915
776.69	34.903
777.00	35.046
777.31	34.872
777.62	35.002
777.92	34.996
778.23	35.302
778.54	35.196
778.85	34.973
779.15	34.989
779.46	34.748
779.77	34.949
780.07	34.720
780.38	34.559
780.69	34.597
781.00	34.310
781.30	34.082
781.61	33.735
781.92	34.120
782.22	34.189
782.53	33.905
782.84	33.760
783.14	33.585
783.45	33.778
783.76	33.927
784.06	33.908
784.37	34.287
784.68	34.375
784.98	34.793
785.29	34.604
785.60	34.685
785.90	35.021
786.21	35.100
786.51	35.130
786.82	34.699
787.13	34.626
787.43	34.788
787.74	34.626
788.04	34.826
788.35	34.325
788.66	34.317
788.96	34.493
789.27	34.587
789.57	34.673
789.88	34.577
790.19	34.802
790.49	34.900
790.80	34.929
791.10	34.926
791.41	34.667
791.71	34.924
792.02	35.014
792.32	34.993
792.63	34.678
792.93	34.781
793.24	34.584
793.54	34.585
793.85	34.491
794.15	34.343
794.46	34.312
794.76	34.419
795.07	34.256
795.37	33.994
795.68	33.695
795.98	33.622
796.29	33.547
796.59	33.946
796.90	33.849
797.20	33.834
797.51	33.710
797.81	33.326
798.12	33.231
798.42	33.224
798.72	33.332
799.03	33.111
799.33	33.255
799.64	33.315
799.94	33.007
800.25	33.097
800.55	32.904
800.85	32.730
801.16	32.794
801.46	32.707
801.77	32.496
802.07	32.248
802.37	32.417
802.68	32.318
802.98	32.017
803.28	32.295
803.59	32.055
803.89	32.130
804.20	32.273
804.50	32.815
804.80	32.599
805.11	33.215
805.41	33.277
805.71	33.368
806.02	33.019
806.32	33.634
806.62	33.443
806.93	33.697
807.23	33.496
807.53	33.600
807.83	33.401
808.14	33.429
808.44	33.236
808.74	33.569
809.05	33.574
809.35	34.045
809.65	33.313
809.95	33.448
810.26	33.476
810.56	33.973
810.86	34.025
811.16	33.814
811.47	34.175
811.77	34.218
812.07	34.225
812.37	33.995
812.68	33.952
812.98	34.266
813.28	34.115
813.58	34.034
813.88	33.546
814.19	33.503
814.49	33.619
814.79	33.984
815.09	33.858
815.39	33.964
815.70	34.239
816.00	33.943
816.30	33.899
816.60	33.944
816.90	34.512
817.20	35.049
817.50	35.522
817.81	35.640
818.11	35.672
818.41	35.761
818.71	35.577
819.01	35.627
819.31	35.714
819.61	35.641
819.92	35.544
820.22	35.353
820.52	35.259
820.82	35.128
821.12	35.021
821.42	34.893
821.72	34.787
822.02	34.690
822.32	34.595
822.62	34.434
822.92	34.259
823.22	34.200
823.52	34.108
823.83	33.965
824.13	33.930
824.43	33.922
824.73	33.764
825.03	33.776
825.33	33.784
825.63	33.804
825.93	33.777
826.23	33.950
826.53	33.782
826.83	33.759
827.13	33.674
827.43	33.388
827.73	33.222
828.03	33.095
828.33	32.691
828.63	32.417
828.93	32.151
829.23	32.198
829.53	31.764
829.83	32.017
830.13	31.974
830.42	32.022
830.72	32.416
831.02	32.443
831.32	32.747
831.62	33.129
831.92	33.197
832.22	33.262
832.52	33.225
832.82	33.645
833.12	33.520
833.42	33.317
833.72	33.442
834.01	33.276
834.31	33.256
834.61	33.216
834.91	33.094
835.21	33.072
835.51	33.016
835.81	33.083
836.11	32.877
836.40	32.722
836.70	33.469
837.00	33.307
837.30	33.219
837.60	33.258
837.90	33.024
838.19	32.836
838.49	32.637
838.79	32.204
839.09	31.674
839.39	30.854
839.68	31.046
839.98	30.361
840.28	29.824
840.58	29.541
840.88	28.992
841.17	28.710
841.47	28.114
841.77	28.050
842.07	28.013
842.36	28.142
842.66	28.433
842.96	28.802
843.26	28.319
843.55	28.372
843.85	27.629
844.15	27.486
844.45	27.991
844.74	29.044
845.04	29.391
845.34	29.387
845.63	27.985
845.93	28.183
846.23	26.651
846.53	26.085
846.82	25.197
847.12	25.636
847.42	24.655
847.71	23.609
848.01	22.503
848.31	23.186
848.60	21.915
848.90	22.017
849.19	21.130
849.49	20.812
849.79	20.641
850.08	21.113
850.38	20.539
850.68	22.273
850.97	22.905
851.27	22.912
851.56	21.310
851.86	21.530
852.16	22.043
852.45	23.627
852.75	24.044
853.04	25.054
853.34	25.964
853.64	25.394
853.93	24.444
854.23	25.057
854.52	25.827
854.82	26.384
855.11	26.553
855.41	26.113
855.70	25.157
856.00	25.507
856.30	25.776
856.59	24.387
856.89	25.304
857.18	24.907
857.48	23.102
857.77	22.178
858.07	21.111
858.36	21.191
858.66	20.926
858.95	21.948
859.25	20.715
859.54	19.489
859.84	20.131
860.13	20.753
860.42	21.497
860.72	23.878
861.01	24.356
861.31	25.880
861.60	26.657
861.90	26.752
862.19	26.378
862.49	26.764
862.78	28.074
863.07	28.166
863.37	25.842
863.66	26.004
863.96	24.893
864.25	23.958
864.54	23.683
864.84	22.745
865.13	22.401
865.43	20.986
865.72	19.597
866.01	28.294
866.31	20.586
866.60	10.870
866.89	17.216
>>>>>End Spectral Data<<<<<
