OOIBase32 Version 2.0.0.6 Data File
++++++++++++++++++++++++++++++++++++
Date: 01-23-2012, 22:07:47
User: Valued Ocean Optics Customer
Spectrometer Serial Number: USB2E2917
Spectrometer Channel: Master
Integration Time (msec): 5
Spectra Averaged: 10
Boxcar Smoothing: 5
Correct for Electrical Dark: Enabled
Time Normalized: Disabled
Dual-beam Reference: Disabled
Reference Channel: Master
Temperature: Not acquired
Spectrometer Type: S2000
ADC Type: USB2000
Number of Pixels in File: 2048
Graph Title: 
>>>>>Begin Spectral Data<<<<<
180.30	0.000
180.67	0.000
181.03	189.703
181.40	-73.300
181.77	2567.000
182.14	182.770
182.51	193.488
182.88	-6783.210
183.25	106.126
183.62	-70.857
183.99	99.164
184.36	-251.841
184.73	86.012
185.10	-47.758
185.46	106.278
185.83	260.672
186.20	83.250
186.57	570.357
186.94	-66.822
187.31	130.415
187.68	-142.004
188.05	-19.273
188.42	-21.804
188.78	-14.397
189.15	-20.832
189.52	-22.674
189.89	-16.943
190.26	-19.420
190.63	0.981
191.00	-7.571
191.37	2.061
191.73	2.683
192.10	19.195
192.47	35.121
192.84	33.196
193.21	35.984
193.58	40.592
193.94	39.265
194.31	27.330
194.68	22.871
195.05	12.097
195.42	-6.984
195.79	-12.726
196.15	-11.352
196.52	-14.374
196.89	-25.669
197.26	-22.688
197.63	-28.166
198.00	-29.705
198.36	-20.204
198.73	-22.588
199.10	-12.300
199.47	4.961
199.84	7.660
200.20	16.094
200.57	10.962
200.94	15.939
201.31	12.583
201.68	26.057
202.04	16.003
202.41	26.493
202.78	28.812
203.15	33.160
203.51	7.375
203.88	2.656
204.25	-17.396
204.62	-6.143
204.98	-3.609
205.35	-1.807
205.72	-19.339
206.09	-6.088
206.46	-11.259
206.82	-8.304
207.19	-25.023
207.56	-5.544
207.92	-8.411
208.29	3.087
208.66	-5.491
209.03	0.211
209.39	3.887
209.76	9.263
210.13	7.764
210.50	-0.518
210.86	-3.944
211.23	20.218
211.60	17.223
211.96	24.816
212.33	22.067
212.70	31.596
213.07	24.478
213.43	24.251
213.80	22.805
214.17	13.186
214.53	11.318
214.90	11.961
215.27	2.055
215.63	2.170
216.00	-4.326
216.37	8.297
216.74	-6.697
217.10	-10.717
217.47	-16.780
217.84	-15.137
218.20	1.259
218.57	9.453
218.94	3.778
219.30	2.800
219.67	3.465
220.04	2.771
220.40	-6.065
220.77	-2.433
221.13	0.241
221.50	-0.336
221.87	3.086
222.23	2.076
222.60	3.433
222.97	1.962
223.33	-0.835
223.70	-0.202
224.07	2.279
224.43	4.043
224.80	7.152
225.16	8.308
225.53	6.751
225.90	2.226
226.26	-0.413
226.63	-2.449
226.99	-0.700
227.36	1.470
227.73	-0.248
228.09	-1.076
228.46	-2.565
228.82	-2.076
229.19	-2.568
229.56	-4.420
229.92	-3.421
230.29	-1.524
230.65	-0.263
231.02	-0.282
231.38	-1.763
231.75	0.034
232.12	0.905
232.48	2.894
232.85	1.570
233.21	4.787
233.58	8.452
233.94	11.800
234.31	10.576
234.68	8.843
235.04	7.844
235.41	7.028
235.77	6.718
236.14	5.321
236.50	2.197
236.87	2.340
237.23	0.183
237.60	-0.047
237.96	-0.720
238.33	1.460
238.69	1.693
239.06	1.646
239.42	2.091
239.79	1.778
240.15	2.084
240.52	2.348
240.88	2.440
241.25	2.878
241.61	3.223
241.98	3.113
242.34	2.238
242.71	2.742
243.07	3.386
243.44	3.554
243.80	3.955
244.17	4.234
244.53	4.605
244.90	4.272
245.26	4.121
245.63	3.928
245.99	3.695
246.36	4.312
246.72	3.797
247.09	3.426
247.45	3.300
247.81	2.885
248.18	2.550
248.54	2.155
248.91	2.025
249.27	2.016
249.64	1.415
250.00	1.561
250.36	0.647
250.73	1.212
251.09	1.242
251.46	1.360
251.82	1.829
252.19	2.089
252.55	1.808
252.91	2.204
253.28	1.620
253.64	2.195
254.01	2.006
254.37	2.155
254.73	2.454
255.10	2.728
255.46	2.542
255.83	2.124
256.19	2.044
256.55	2.258
256.92	2.194
257.28	2.521
257.65	2.882
258.01	3.128
258.37	3.123
258.74	3.036
259.10	3.124
259.46	3.267
259.83	3.458
260.19	3.402
260.55	3.406
260.92	3.420
261.28	3.295
261.64	2.873
262.01	2.590
262.37	2.461
262.73	2.149
263.10	1.798
263.46	1.894
263.82	1.804
264.19	1.760
264.55	2.013
264.91	2.408
265.28	2.769
265.64	2.595
266.00	2.679
266.37	2.596
266.73	2.928
267.09	2.955
267.46	2.983
267.82	3.071
268.18	3.289
268.54	3.055
268.91	2.923
269.27	2.636
269.63	2.723
270.00	2.669
270.36	2.858
270.72	2.755
271.08	2.659
271.45	2.489
271.81	2.702
272.17	2.511
272.53	2.532
272.90	2.063
273.26	2.094
273.62	2.058
273.98	1.943
274.35	1.758
274.71	1.789
275.07	1.836
275.43	1.955
275.80	1.862
276.16	2.234
276.52	2.161
276.88	2.466
277.25	2.296
277.61	2.465
277.97	2.508
278.33	2.372
278.69	2.127
279.06	2.237
279.42	1.938
279.78	1.578
280.14	1.412
280.50	1.580
280.87	1.663
281.23	1.882
281.59	1.674
281.95	1.812
282.31	1.949
282.68	2.253
283.04	2.414
283.40	2.643
283.76	2.614
284.12	2.664
284.48	2.700
284.85	2.702
285.21	2.648
285.57	2.861
285.93	2.859
286.29	2.937
286.65	2.859
287.02	2.799
287.38	2.792
287.74	2.914
288.10	2.832
288.46	2.750
288.82	2.613
289.18	2.438
289.54	2.245
289.91	2.339
290.27	2.476
290.63	2.444
290.99	2.224
291.35	2.262
291.71	2.454
292.07	2.355
292.43	2.514
292.79	2.870
293.16	3.043
293.52	3.009
293.88	2.805
294.24	2.755
294.60	2.708
294.96	2.838
295.32	2.772
295.68	2.473
296.04	2.648
296.40	2.550
296.76	2.412
297.12	2.508
297.49	2.571
297.85	2.683
298.21	2.584
298.57	2.614
298.93	2.624
299.29	2.606
299.65	2.716
300.01	2.719
300.37	2.636
300.73	2.849
301.09	2.898
301.45	3.097
301.81	3.081
302.17	3.101
302.53	3.101
302.89	3.059
303.25	2.890
303.61	3.083
303.97	3.092
304.33	3.244
304.69	3.154
305.05	3.191
305.41	2.991
305.77	3.163
306.13	3.154
306.49	3.318
306.85	3.246
307.21	3.341
307.57	3.280
307.93	3.214
308.29	3.248
308.65	3.183
309.01	3.031
309.37	3.126
309.73	3.001
310.09	3.050
310.45	2.897
310.81	2.974
311.17	2.892
311.53	2.837
311.89	2.797
312.25	2.628
312.61	2.610
312.96	2.693
313.32	2.791
313.68	2.803
314.04	2.777
314.40	2.719
314.76	2.699
315.12	2.857
315.48	2.949
315.84	2.860
316.20	3.046
316.56	3.083
316.92	2.906
317.27	2.615
317.63	2.566
317.99	2.586
318.35	2.647
318.71	2.624
319.07	2.594
319.43	2.487
319.79	2.519
320.15	2.446
320.50	2.297
320.86	2.494
321.22	2.630
321.58	2.625
321.94	2.646
322.30	2.750
322.66	2.840
323.01	2.899
323.37	2.967
323.73	3.069
324.09	3.084
324.45	3.247
324.81	3.124
325.17	3.127
325.52	3.197
325.88	3.155
326.24	3.122
326.60	3.204
326.96	3.236
327.31	3.265
327.67	3.281
328.03	3.281
328.39	3.221
328.75	3.365
329.11	3.462
329.46	3.428
329.82	3.392
330.18	3.468
330.54	3.399
330.90	3.336
331.25	3.348
331.61	3.337
331.97	3.385
332.33	3.527
332.68	3.426
333.04	3.351
333.40	3.455
333.76	3.516
334.11	3.461
334.47	3.450
334.83	3.433
335.19	3.378
335.54	3.483
335.90	3.533
336.26	3.442
336.62	3.563
336.97	3.553
337.33	3.491
337.69	3.520
338.05	3.559
338.40	3.612
338.76	3.686
339.12	3.726
339.48	3.711
339.83	3.615
340.19	3.603
340.55	3.546
340.90	3.530
341.26	3.459
341.62	3.445
341.97	3.497
342.33	3.516
342.69	3.477
343.04	3.474
343.40	3.467
343.76	3.557
344.12	3.609
344.47	3.619
344.83	3.591
345.19	3.637
345.54	3.629
345.90	3.566
346.26	3.413
346.61	3.561
346.97	3.582
347.32	3.600
347.68	3.463
348.04	3.455
348.39	3.511
348.75	3.708
349.11	3.748
349.46	3.731
349.82	3.703
350.18	3.804
350.53	3.616
350.89	3.656
351.24	3.571
351.60	3.657
351.96	3.656
352.31	3.637
352.67	3.513
353.02	3.465
353.38	3.476
353.74	3.498
354.09	3.480
354.45	3.593
354.80	3.497
355.16	3.515
355.52	3.511
355.87	3.499
356.23	3.474
356.58	3.533
356.94	3.591
357.29	3.595
357.65	3.539
358.00	3.552
358.36	3.475
358.72	3.559
359.07	3.605
359.43	3.616
359.78	3.609
360.14	3.582
360.49	3.549
360.85	3.493
361.20	3.566
361.56	3.609
361.91	3.591
362.27	3.640
362.62	3.625
362.98	3.589
363.33	3.590
363.69	3.565
364.04	3.578
364.40	3.600
364.75	3.644
365.11	3.649
365.46	3.668
365.82	3.671
366.17	3.690
366.53	3.707
366.88	3.711
367.24	3.731
367.59	3.826
367.95	3.871
368.30	3.917
368.66	3.925
369.01	3.893
369.37	3.894
369.72	3.927
370.08	3.959
370.43	3.961
370.78	3.971
371.14	3.950
371.49	3.939
371.85	3.922
372.20	3.901
372.56	3.923
372.91	3.932
373.26	3.946
373.62	3.951
373.97	3.980
374.33	3.993
374.68	4.007
375.03	4.078
375.39	4.012
375.74	4.065
376.10	4.019
376.45	4.067
376.80	4.058
377.16	4.059
377.51	4.097
377.87	4.050
378.22	4.086
378.57	4.143
378.93	4.142
379.28	4.207
379.63	4.206
379.99	4.289
380.34	4.252
380.70	4.273
381.05	4.308
381.40	4.319
381.76	4.356
382.11	4.387
382.46	4.326
382.82	4.331
383.17	4.369
383.52	4.395
383.88	4.368
384.23	4.372
384.58	4.370
384.94	4.410
385.29	4.415
385.64	4.421
385.99	4.427
386.35	4.521
386.70	4.539
387.05	4.541
387.41	4.582
387.76	4.608
388.11	4.616
388.47	4.690
388.82	4.696
389.17	4.693
389.52	4.699
389.88	4.711
390.23	4.699
390.58	4.721
390.93	4.744
391.29	4.740
391.64	4.787
391.99	4.825
392.34	4.842
392.70	4.888
393.05	4.934
393.40	4.971
393.75	4.977
394.11	4.998
394.46	5.038
394.81	5.011
395.16	5.010
395.52	5.004
395.87	5.023
396.22	5.035
396.57	5.031
396.92	5.049
397.28	5.096
397.63	5.118
397.98	5.166
398.33	5.161
398.68	5.230
399.04	5.285
399.39	5.321
399.74	5.352
400.09	5.353
400.44	5.361
400.80	5.395
401.15	5.423
401.50	5.458
401.85	5.505
402.20	5.532
402.55	5.580
402.90	5.576
403.26	5.631
403.61	5.675
403.96	5.744
404.31	5.801
404.66	5.850
405.01	5.873
405.36	5.917
405.72	5.929
406.07	5.997
406.42	6.064
406.77	6.131
407.12	6.186
407.47	6.249
407.82	6.275
408.17	6.334
408.53	6.380
408.88	6.472
409.23	6.531
409.58	6.596
409.93	6.645
410.28	6.695
410.63	6.782
410.98	6.843
411.33	6.895
411.68	6.971
412.03	7.058
412.38	7.133
412.73	7.176
413.09	7.238
413.44	7.303
413.79	7.373
414.14	7.425
414.49	7.475
414.84	7.537
415.19	7.600
415.54	7.670
415.89	7.724
416.24	7.770
416.59	7.838
416.94	7.910
417.29	7.957
417.64	8.005
417.99	8.070
418.34	8.139
418.69	8.202
419.04	8.269
419.39	8.358
419.74	8.406
420.09	8.493
420.44	8.545
420.79	8.606
421.14	8.658
421.49	8.733
421.84	8.786
422.19	8.827
422.54	8.880
422.89	8.938
423.24	8.967
423.59	9.045
423.94	9.080
424.29	9.147
424.64	9.203
424.99	9.308
425.34	9.399
425.68	9.470
426.03	9.601
426.38	9.703
426.73	9.824
427.08	9.933
427.43	10.052
427.78	10.157
428.13	10.261
428.48	10.377
428.83	10.459
429.18	10.530
429.53	10.663
429.87	10.750
430.22	10.803
430.57	10.879
430.92	10.950
431.27	11.005
431.62	11.079
431.97	11.146
432.32	11.231
432.67	11.302
433.01	11.386
433.36	11.457
433.71	11.530
434.06	11.661
434.41	11.763
434.76	11.910
435.11	12.004
435.45	12.115
435.80	12.209
436.15	12.307
436.50	12.407
436.85	12.491
437.20	12.548
437.54	12.627
437.89	12.702
438.24	12.747
438.59	12.774
438.94	12.854
439.29	12.920
439.63	13.019
439.98	13.086
440.33	13.158
440.68	13.225
441.03	13.328
441.37	13.395
441.72	13.468
442.07	13.552
442.42	13.626
442.76	13.698
443.11	13.770
443.46	13.800
443.81	13.852
444.16	13.903
444.50	13.949
444.85	13.996
445.20	14.060
445.55	14.119
445.89	14.174
446.24	14.233
446.59	14.299
446.94	14.368
447.28	14.450
447.63	14.514
447.98	14.605
448.32	14.698
448.67	14.789
449.02	14.872
449.37	14.963
449.71	15.032
450.06	15.110
450.41	15.179
450.75	15.231
451.10	15.289
451.45	15.378
451.79	15.423
452.14	15.478
452.49	15.526
452.84	15.602
453.18	15.662
453.53	15.770
453.88	15.849
454.22	15.915
454.57	16.000
454.92	16.105
455.26	16.162
455.61	16.242
455.95	16.312
456.30	16.363
456.65	16.381
456.99	16.427
457.34	16.460
457.69	16.524
458.03	16.557
458.38	16.598
458.73	16.631
459.07	16.700
459.42	16.747
459.76	16.793
460.11	16.858
460.46	16.959
460.80	17.030
461.15	17.115
461.49	17.166
461.84	17.273
462.19	17.373
462.53	17.485
462.88	17.538
463.22	17.627
463.57	17.720
463.91	17.800
464.26	17.856
464.61	17.937
464.95	17.994
465.30	18.057
465.64	18.117
465.99	18.175
466.33	18.228
466.68	18.302
467.02	18.352
467.37	18.408
467.71	18.472
468.06	18.556
468.41	18.597
468.75	18.660
469.10	18.732
469.44	18.792
469.79	18.838
470.13	18.923
470.48	18.968
470.82	19.044
471.17	19.093
471.51	19.132
471.86	19.147
472.20	19.206
472.55	19.277
472.89	19.314
473.23	19.357
473.58	19.426
473.92	19.417
474.27	19.478
474.61	19.511
474.96	19.538
475.30	19.580
475.65	19.646
475.99	19.691
476.34	19.714
476.68	19.777
477.02	19.812
477.37	19.863
477.71	19.950
478.06	20.040
478.40	20.162
478.75	20.367
479.09	20.595
479.43	20.817
479.78	21.094
480.12	21.384
480.47	21.684
480.81	22.023
481.15	22.368
481.50	22.717
481.84	23.144
482.19	23.599
482.53	23.963
482.87	24.145
483.22	24.149
483.56	23.928
483.90	23.610
484.25	23.206
484.59	22.814
484.94	22.514
485.28	22.238
485.62	21.852
485.97	21.436
486.31	21.090
486.65	20.914
487.00	20.890
487.34	21.074
487.68	21.330
488.03	21.652
488.37	21.919
488.71	22.052
489.06	22.112
489.40	22.159
489.74	22.177
490.09	22.183
490.43	22.181
490.77	22.213
491.11	22.225
491.46	22.256
491.80	22.304
492.14	22.323
492.49	22.331
492.83	22.348
493.17	22.386
493.51	22.439
493.86	22.519
494.20	22.608
494.54	22.690
494.88	22.765
495.23	22.838
495.57	22.891
495.91	22.971
496.25	23.032
496.60	23.093
496.94	23.158
497.28	23.217
497.62	23.262
497.97	23.311
498.31	23.377
498.65	23.463
498.99	23.544
499.33	23.619
499.68	23.704
500.02	23.800
500.36	23.883
500.70	23.937
501.04	24.028
501.39	24.101
501.73	24.216
502.07	24.290
502.41	24.365
502.75	24.416
503.09	24.496
503.44	24.552
503.78	24.620
504.12	24.694
504.46	24.790
504.80	24.853
505.14	24.943
505.49	24.987
505.83	25.068
506.17	25.134
506.51	25.218
506.85	25.272
507.19	25.346
507.53	25.429
507.87	25.503
508.22	25.558
508.56	25.632
508.90	25.705
509.24	25.777
509.58	25.835
509.92	25.912
510.26	25.989
510.60	26.095
510.94	26.176
511.28	26.235
511.63	26.326
511.97	26.425
512.31	26.521
512.65	26.611
512.99	26.711
513.33	26.815
513.67	26.946
514.01	27.080
514.35	27.174
514.69	27.290
515.03	27.422
515.37	27.493
515.71	27.577
516.05	27.653
516.39	27.734
516.73	27.799
517.07	27.876
517.41	27.911
517.75	27.922
518.09	27.987
518.43	28.022
518.77	28.059
519.11	28.129
519.45	28.191
519.79	28.253
520.13	28.332
520.47	28.431
520.81	28.527
521.15	28.647
521.49	28.765
521.83	28.851
522.17	28.967
522.51	29.051
522.85	29.177
523.19	29.346
523.53	29.533
523.87	29.751
524.21	29.971
524.55	30.167
524.89	30.338
525.23	30.487
525.57	30.645
525.91	30.793
526.25	30.950
526.58	31.070
526.92	31.150
527.26	31.198
527.60	31.195
527.94	31.166
528.28	31.135
528.62	31.093
528.96	31.070
529.30	31.028
529.64	30.976
529.97	30.894
530.31	30.816
530.65	30.767
530.99	30.753
531.33	30.773
531.67	30.806
532.01	30.835
532.35	30.849
532.68	30.850
533.02	30.841
533.36	30.820
533.70	30.828
534.04	30.838
534.38	30.841
534.71	30.856
535.05	30.827
535.39	30.803
535.73	30.822
536.07	30.861
536.41	30.942
536.74	31.021
537.08	31.103
537.42	31.193
537.76	31.269
538.10	31.326
538.43	31.399
538.77	31.472
539.11	31.537
539.45	31.586
539.79	31.624
540.12	31.628
540.46	31.590
540.80	31.576
541.14	31.545
541.47	31.508
541.81	31.491
542.15	31.430
542.49	31.391
542.82	31.356
543.16	31.298
543.50	31.246
543.84	31.211
544.17	31.221
544.51	31.236
544.85	31.230
545.18	31.223
545.52	31.210
545.86	31.210
546.20	31.202
546.53	31.192
546.87	31.206
547.21	31.208
547.54	31.218
547.88	31.263
548.22	31.275
548.55	31.310
548.89	31.370
549.23	31.429
549.56	31.430
549.90	31.421
550.24	31.422
550.57	31.387
550.91	31.399
551.25	31.391
551.58	31.384
551.92	31.394
552.26	31.353
552.59	31.325
552.93	31.294
553.27	31.319
553.60	31.349
553.94	31.398
554.27	31.421
554.61	31.451
554.95	31.465
555.28	31.477
555.62	31.493
555.95	31.521
556.29	31.546
556.63	31.548
556.96	31.525
557.30	31.492
557.63	31.447
557.97	31.448
558.31	31.413
558.64	31.454
558.98	31.445
559.31	31.383
559.65	31.376
559.98	31.358
560.32	31.350
560.65	31.327
560.99	31.320
561.33	31.333
561.66	31.332
562.00	31.331
562.33	31.284
562.67	31.246
563.00	31.252
563.34	31.236
563.67	31.216
564.01	31.188
564.34	31.163
564.68	31.161
565.01	31.118
565.35	31.087
565.68	31.055
566.02	31.032
566.35	31.063
566.69	31.044
567.02	31.023
567.36	31.003
567.69	30.975
568.03	30.976
568.36	30.937
568.69	30.932
569.03	30.907
569.36	30.917
569.70	30.897
570.03	30.828
570.37	30.805
570.70	30.805
571.04	30.773
571.37	30.767
571.70	30.764
572.04	30.763
572.37	30.754
572.71	30.750
573.04	30.721
573.37	30.710
573.71	30.715
574.04	30.707
574.38	30.679
574.71	30.691
575.04	30.684
575.38	30.665
575.71	30.638
576.05	30.632
576.38	30.638
576.71	30.625
577.05	30.605
577.38	30.607
577.71	30.635
578.05	30.619
578.38	30.584
578.71	30.556
579.05	30.546
579.38	30.575
579.71	30.529
580.05	30.463
580.38	30.446
580.71	30.432
581.05	30.388
581.38	30.317
581.71	30.315
582.05	30.318
582.38	30.326
582.71	30.304
583.04	30.254
583.38	30.261
583.71	30.271
584.04	30.246
584.38	30.253
584.71	30.261
585.04	30.276
585.37	30.261
585.71	30.230
586.04	30.207
586.37	30.174
586.70	30.161
587.04	30.101
587.37	30.073
587.70	30.012
588.03	29.958
588.37	29.892
588.70	29.817
589.03	29.731
589.36	29.685
589.69	29.609
590.03	29.577
590.36	29.521
590.69	29.507
591.02	29.471
591.35	29.440
591.69	29.398
592.02	29.331
592.35	29.264
592.68	29.244
593.01	29.184
593.35	29.176
593.68	29.119
594.01	29.076
594.34	29.031
594.67	28.963
595.00	28.933
595.34	28.867
595.67	28.851
596.00	28.836
596.33	28.786
596.66	28.760
596.99	28.680
597.32	28.671
597.65	28.650
597.99	28.585
598.32	28.545
598.65	28.526
598.98	28.523
599.31	28.492
599.64	28.461
599.97	28.444
600.30	28.383
600.63	28.350
600.96	28.266
601.30	28.227
601.63	28.188
601.96	28.154
602.29	28.103
602.62	28.050
602.95	28.020
603.28	27.973
603.61	27.928
603.94	27.917
604.27	27.879
604.60	27.863
604.93	27.806
605.26	27.768
605.59	27.736
605.92	27.683
606.25	27.614
606.58	27.552
606.91	27.513
607.24	27.488
607.57	27.411
607.90	27.383
608.23	27.315
608.56	27.288
608.89	27.258
609.22	27.205
609.55	27.185
609.88	27.141
610.21	27.102
610.54	27.063
610.87	27.020
611.20	27.023
611.53	27.014
611.86	27.018
612.19	26.985
612.52	26.955
612.85	26.977
613.18	26.960
613.51	26.926
613.84	26.865
614.17	26.835
614.49	26.764
614.82	26.708
615.15	26.641
615.48	26.574
615.81	26.520
616.14	26.470
616.47	26.399
616.80	26.311
617.13	26.299
617.46	26.264
617.78	26.176
618.11	26.124
618.44	26.081
618.77	26.004
619.10	25.963
619.43	25.900
619.76	25.873
620.09	25.806
620.41	25.776
620.74	25.729
621.07	25.656
621.40	25.659
621.73	25.659
622.06	25.627
622.38	25.608
622.71	25.558
623.04	25.522
623.37	25.484
623.70	25.456
624.02	25.412
624.35	25.398
624.68	25.368
625.01	25.355
625.34	25.282
625.66	25.225
625.99	25.194
626.32	25.157
626.65	25.150
626.98	25.100
627.30	25.089
627.63	25.067
627.96	24.995
628.29	24.973
628.61	24.889
628.94	24.864
629.27	24.824
629.60	24.818
629.92	24.782
630.25	24.729
630.58	24.665
630.91	24.568
631.23	24.503
631.56	24.473
631.89	24.445
632.21	24.414
632.54	24.328
632.87	24.296
633.19	24.185
633.52	24.146
633.85	24.113
634.18	24.080
634.50	24.039
634.83	23.999
635.16	23.969
635.48	23.925
635.81	23.877
636.14	23.888
636.46	23.874
636.79	23.858
637.11	23.765
637.44	23.714
637.77	23.632
638.09	23.602
638.42	23.507
638.75	23.420
639.07	23.326
639.40	23.255
639.73	23.193
640.05	23.123
640.38	23.062
640.70	23.061
641.03	23.007
641.36	23.015
641.68	22.967
642.01	22.995
642.33	22.990
642.66	23.002
642.98	22.982
643.31	22.910
643.64	22.857
643.96	22.813
644.29	22.771
644.61	22.753
644.94	22.671
645.26	22.622
645.59	22.559
645.91	22.565
646.24	22.539
646.56	22.520
646.89	22.508
647.22	22.535
647.54	22.518
647.87	22.506
648.19	22.434
648.52	22.443
648.84	22.459
649.17	22.426
649.49	22.355
649.82	22.300
650.14	22.251
650.47	22.217
650.79	22.113
651.11	22.071
651.44	22.018
651.76	22.025
652.09	21.992
652.41	21.914
652.74	21.889
653.06	21.833
653.39	21.815
653.71	21.791
654.04	21.772
654.36	21.761
654.68	21.712
655.01	21.664
655.33	21.590
655.66	21.553
655.98	21.508
656.30	21.457
656.63	21.420
656.95	21.365
657.28	21.315
657.60	21.229
657.92	21.170
658.25	21.095
658.57	21.028
658.90	21.030
659.22	20.956
659.54	20.941
659.87	20.865
660.19	20.851
660.51	20.846
660.84	20.807
661.16	20.803
661.48	20.756
661.81	20.787
662.13	20.774
662.45	20.659
662.78	20.640
663.10	20.608
663.42	20.662
663.75	20.596
664.07	20.554
664.39	20.533
664.72	20.461
665.04	20.432
665.36	20.407
665.69	20.413
666.01	20.438
666.33	20.469
666.65	20.393
666.98	20.310
667.30	20.302
667.62	20.194
667.94	20.193
668.27	20.189
668.59	20.163
668.91	20.089
669.23	20.048
669.56	19.993
669.88	19.902
670.20	19.861
670.52	19.827
670.85	19.831
671.17	19.891
671.49	19.792
671.81	19.816
672.13	19.730
672.46	19.754
672.78	19.631
673.10	19.588
673.42	19.622
673.74	19.640
674.07	19.646
674.39	19.550
674.71	19.482
675.03	19.509
675.35	19.457
675.67	19.485
676.00	19.494
676.32	19.539
676.64	19.550
676.96	19.498
677.28	19.469
677.60	19.436
677.92	19.393
678.25	19.350
678.57	19.328
678.89	19.266
679.21	19.249
679.53	19.229
679.85	19.182
680.17	19.139
680.49	19.102
680.81	19.124
681.13	19.137
681.46	19.179
681.78	19.244
682.10	19.246
682.42	19.258
682.74	19.247
683.06	19.171
683.38	19.213
683.70	19.242
684.02	19.164
684.34	19.134
684.66	19.104
684.98	19.057
685.30	19.079
685.62	18.973
685.94	18.987
686.26	18.965
686.58	18.961
686.90	18.948
687.22	18.866
687.54	18.929
687.86	18.851
688.18	18.813
688.50	18.761
688.82	18.630
689.14	18.618
689.46	18.523
689.78	18.453
690.10	18.414
690.42	18.354
690.74	18.344
691.06	18.296
691.38	18.276
691.70	18.177
692.02	18.164
692.34	18.161
692.66	18.129
692.98	18.107
693.30	18.180
693.62	18.100
693.94	18.042
694.26	18.056
694.57	18.048
694.89	18.078
695.21	18.146
695.53	18.114
695.85	18.118
696.17	18.133
696.49	18.142
696.81	18.065
697.13	18.102
697.44	18.189
697.76	18.125
698.08	18.050
698.40	17.988
698.72	17.932
699.04	17.924
699.36	17.841
699.67	17.775
699.99	17.662
700.31	17.558
700.63	17.484
700.95	17.300
701.27	17.158
701.58	17.126
701.90	17.026
702.22	16.932
702.54	16.833
702.86	16.730
703.17	16.674
703.49	16.685
703.81	16.730
704.13	16.683
704.45	16.688
704.76	16.695
705.08	16.667
705.40	16.628
705.72	16.567
706.03	16.626
706.35	16.629
706.67	16.522
706.99	16.475
707.30	16.459
707.62	16.451
707.94	16.380
708.26	16.406
708.57	16.415
708.89	16.479
709.21	16.479
709.53	16.498
709.84	16.448
710.16	16.545
710.48	16.672
710.79	16.617
711.11	16.646
711.43	16.625
711.74	16.609
712.06	16.641
712.38	16.597
712.69	16.630
713.01	16.594
713.33	16.685
713.64	16.722
713.96	16.695
714.28	16.876
714.59	16.829
714.91	16.880
715.23	16.986
715.54	16.995
715.86	17.025
716.17	17.106
716.49	17.035
716.81	17.053
717.12	16.973
717.44	16.913
717.76	16.700
718.07	16.691
718.39	16.684
718.70	16.545
719.02	16.404
719.33	16.410
719.65	16.241
719.97	16.265
720.28	16.240
720.60	16.244
720.91	16.253
721.23	16.192
721.54	16.271
721.86	16.252
722.17	16.330
722.49	16.436
722.81	16.364
723.12	16.393
723.44	16.396
723.75	16.376
724.07	16.483
724.38	16.412
724.70	16.494
725.01	16.587
725.33	16.614
725.64	16.594
725.96	16.626
726.27	16.598
726.59	16.535
726.90	16.517
727.22	16.479
727.53	16.379
727.84	16.389
728.16	16.275
728.47	16.077
728.79	16.108
729.10	16.007
729.42	15.883
729.73	15.881
730.05	15.993
730.36	15.918
730.67	15.873
730.99	15.895
731.30	15.711
731.62	15.716
731.93	15.660
732.24	15.495
732.56	15.440
732.87	15.274
733.19	15.130
733.50	15.031
733.81	14.950
734.13	14.830
734.44	14.729
734.76	14.910
735.07	14.744
735.38	14.779
735.70	14.751
736.01	14.746
736.32	14.848
736.64	14.966
736.95	14.740
737.26	14.720
737.58	14.665
737.89	14.628
738.20	14.461
738.52	14.519
738.83	14.366
739.14	14.322
739.45	14.357
739.77	14.430
740.08	14.324
740.39	14.244
740.71	14.232
741.02	14.326
741.33	14.370
741.64	14.245
741.96	14.129
742.27	13.987
742.58	13.920
742.90	13.819
743.21	13.607
743.52	13.476
743.83	13.830
744.14	13.707
744.46	13.493
744.77	13.300
745.08	13.337
745.39	13.422
745.71	13.609
746.02	13.502
746.33	13.440
746.64	13.505
746.95	13.491
747.27	13.362
747.58	13.470
747.89	13.540
748.20	13.446
748.51	13.456
748.82	13.508
749.14	13.299
749.45	13.427
749.76	13.344
750.07	13.241
750.38	13.295
750.69	13.420
751.01	13.343
751.32	13.539
751.63	13.410
751.94	13.420
752.25	13.431
752.56	13.522
752.87	13.543
753.18	13.625
753.49	13.607
753.81	13.632
754.12	13.432
754.43	13.570
754.74	13.511
755.05	13.755
755.36	14.034
755.67	14.181
755.98	14.404
756.29	14.587
756.60	14.756
756.91	15.130
757.22	15.528
757.53	15.948
757.84	16.129
758.15	16.431
758.46	16.788
758.77	17.022
759.09	17.255
759.40	17.525
759.71	17.706
760.02	17.802
760.33	17.901
760.64	17.908
760.95	17.717
761.26	17.668
761.57	17.614
761.88	17.508
762.18	17.408
762.49	17.350
762.80	17.217
763.11	17.006
763.42	16.908
763.73	16.631
764.04	16.280
764.35	16.180
764.66	15.936
764.97	15.594
765.28	15.487
765.59	15.103
765.90	14.849
766.21	14.660
766.52	14.573
766.83	14.382
767.14	14.272
767.44	14.207
767.75	14.093
768.06	14.078
768.37	14.025
768.68	14.001
768.99	13.928
769.30	13.634
769.61	13.197
769.91	12.925
770.22	12.802
770.53	12.582
770.84	12.639
771.15	12.690
771.46	12.707
771.77	12.516
772.07	12.303
772.38	12.136
772.69	11.925
773.00	11.943
773.31	12.358
773.61	12.200
773.92	12.090
774.23	11.986
774.54	11.825
774.85	11.418
775.15	11.685
775.46	11.496
775.77	11.628
776.08	11.450
776.39	11.462
776.69	11.031
777.00	11.211
777.31	11.414
777.62	11.789
777.92	11.664
778.23	11.976
778.54	11.843
778.85	11.854
779.15	11.779
779.46	12.243
779.77	12.416
780.07	12.529
780.38	12.270
780.69	12.317
781.00	11.712
781.30	11.827
781.61	11.589
781.92	11.604
782.22	11.753
782.53	11.787
782.84	11.763
783.14	11.955
783.45	11.850
783.76	12.284
784.06	12.210
784.37	12.790
784.68	12.954
784.98	13.629
785.29	13.862
785.60	14.100
785.90	14.361
786.21	14.468
786.51	14.401
786.82	14.632
787.13	14.766
787.43	14.908
787.74	14.753
788.04	14.577
788.35	14.252
788.66	14.136
788.96	13.683
789.27	13.783
789.57	13.618
789.88	13.615
790.19	13.521
790.49	13.313
790.80	13.363
791.10	13.411
791.41	13.787
791.71	13.849
792.02	14.269
792.32	14.663
792.63	14.662
792.93	14.831
793.24	14.345
793.54	14.190
793.85	14.268
794.15	14.041
794.46	13.963
794.76	13.536
795.07	13.472
795.37	13.251
795.68	12.949
795.98	12.987
796.29	13.085
796.59	13.690
796.90	13.510
797.20	13.730
797.51	14.216
797.81	14.190
798.12	14.555
798.42	14.871
798.72	14.936
799.03	15.108
799.33	14.797
799.64	14.644
799.94	14.274
800.25	14.892
800.55	14.624
800.85	14.269
801.16	14.228
801.46	14.103
801.77	13.604
802.07	13.375
802.37	13.144
802.68	13.661
802.98	13.446
803.28	13.590
803.59	13.054
803.89	13.025
804.20	13.171
804.50	13.394
804.80	13.152
805.11	13.740
805.41	13.660
805.71	14.226
806.02	13.657
806.32	13.740
806.62	13.689
806.93	13.967
807.23	13.967
807.53	14.038
807.83	14.337
808.14	14.832
808.44	14.603
808.74	14.890
809.05	14.794
809.35	15.352
809.65	15.868
809.95	16.067
810.26	16.030
810.56	16.201
810.86	16.291
811.16	15.985
811.47	15.842
811.77	16.242
812.07	16.702
812.37	16.311
812.68	16.467
812.98	16.654
813.28	16.823
813.58	16.840
813.88	16.852
814.19	17.100
814.49	17.204
814.79	17.641
815.09	17.372
815.39	17.157
815.70	17.517
816.00	17.076
816.30	17.018
816.60	17.085
816.90	17.515
817.20	17.847
817.50	18.012
817.81	18.267
818.11	18.475
818.41	18.871
818.71	18.906
819.01	19.092
819.31	19.322
819.61	19.353
819.92	19.319
820.22	19.333
820.52	19.347
820.82	19.343
821.12	19.372
821.42	19.288
821.72	19.181
822.02	19.142
822.32	18.988
822.62	18.856
822.92	18.743
823.22	18.748
823.52	18.693
823.83	18.597
824.13	18.573
824.43	18.443
824.73	18.387
825.03	18.395
825.33	18.399
825.63	18.592
825.93	18.689
826.23	18.883
826.53	18.845
826.83	18.842
827.13	18.741
827.43	18.603
827.73	18.570
828.03	18.530
828.33	18.236
828.63	18.232
828.93	18.031
829.23	18.027
829.53	17.656
829.83	17.949
830.13	17.815
830.42	18.030
830.72	18.268
831.02	18.375
831.32	18.357
831.62	18.774
831.92	18.552
832.22	18.615
832.52	18.493
832.82	18.731
833.12	18.290
833.42	18.427
833.72	18.428
834.01	18.075
834.31	17.824
834.61	17.798
834.91	17.618
835.21	17.697
835.51	17.857
835.81	17.729
836.11	17.567
836.40	17.773
836.70	17.632
837.00	17.647
837.30	17.629
837.60	17.763
837.90	17.892
838.19	17.766
838.49	17.030
838.79	16.423
839.09	16.335
839.39	15.585
839.68	15.308
839.98	15.468
840.28	14.984
840.58	14.682
840.88	14.314
841.17	13.278
841.47	12.888
841.77	13.936
842.07	13.245
842.36	12.940
842.66	12.712
842.96	12.554
843.26	10.873
843.55	9.881
843.85	10.093
844.15	9.801
844.45	10.643
844.74	10.632
845.04	10.300
845.34	10.020
845.63	9.238
845.93	10.145
846.23	9.380
846.53	9.330
846.82	9.671
847.12	9.188
847.42	7.674
847.71	7.103
848.01	6.111
848.31	6.482
848.60	5.816
848.90	4.469
849.19	3.556
849.49	3.902
849.79	4.729
850.08	5.953
850.38	7.567
850.68	10.586
850.97	11.866
851.27	12.207
851.56	11.044
851.86	11.081
852.16	12.874
852.45	14.733
852.75	14.248
853.04	13.549
853.34	13.135
853.64	11.229
853.93	10.376
854.23	9.949
854.52	11.244
854.82	13.228
855.11	14.173
855.41	14.651
855.70	13.098
856.00	14.602
856.30	14.864
856.59	14.566
856.89	15.488
857.18	15.587
857.48	15.149
857.77	12.944
858.07	11.619
858.36	11.527
858.66	10.348
858.95	11.051
859.25	11.070
859.54	11.086
859.84	10.696
860.13	11.402
860.42	11.419
860.72	12.711
861.01	14.795
861.31	15.443
861.60	14.705
861.90	13.571
862.19	12.911
862.49	12.297
862.78	14.079
863.07	14.699
863.37	13.428
863.66	12.537
863.96	10.621
864.25	9.818
864.54	9.752
864.84	10.077
865.13	11.792
865.43	12.230
865.72	10.480
866.01	21.676
866.31	3.947
866.60	8.944
866.89	15.185
>>>>>End Spectral Data<<<<<
