OOIBase32 Version 2.0.0.6 Data File
++++++++++++++++++++++++++++++++++++
Date: 01-18-2012, 22:25:09
User: Valued Ocean Optics Customer
Spectrometer Serial Number: USB2E2917
Spectrometer Channel: Master
Integration Time (msec): 5
Spectra Averaged: 10
Boxcar Smoothing: 5
Correct for Electrical Dark: Enabled
Time Normalized: Disabled
Dual-beam Reference: Disabled
Reference Channel: Master
Temperature: Not acquired
Spectrometer Type: S2000
ADC Type: USB2000
Number of Pixels in File: 2048
Graph Title: 
>>>>>Begin Spectral Data<<<<<
180.30	0.000
180.67	0.000
181.03	-74.139
181.40	72.056
181.77	52.260
182.14	-81.496
182.51	1443.234
182.88	106.632
183.25	26.812
183.62	-10.402
183.99	88.447
184.36	4512.637
184.73	47.845
185.10	52.204
185.46	627.216
185.83	-41.249
186.20	-44.913
186.57	-33.083
186.94	23.909
187.31	-278.821
187.68	112.141
188.05	43.256
188.42	84.296
188.78	236.843
189.15	610.489
189.52	-422.335
189.89	-180.247
190.26	-250.225
190.63	-153.028
191.00	-74.118
191.37	-39.311
191.73	-38.510
192.10	-53.136
192.47	-42.392
192.84	-18.604
193.21	1.602
193.58	-18.766
193.94	-27.834
194.31	-8.855
194.68	7.018
195.05	-13.036
195.42	-28.439
195.79	-18.137
196.15	-12.784
196.52	-7.115
196.89	-18.127
197.26	-31.260
197.63	7.932
198.00	-3.661
198.36	-14.108
198.73	-23.546
199.10	-28.307
199.47	-63.262
199.84	-207.015
200.20	-222.336
200.57	-103.091
200.94	-110.275
201.31	-72.227
201.68	-226.738
202.04	-82.656
202.41	-57.837
202.78	-47.860
203.15	-42.825
203.51	-23.491
203.88	-9.460
204.25	-8.783
204.62	-5.925
204.98	-3.630
205.35	4.795
205.72	14.181
206.09	13.011
206.46	2.596
206.82	6.227
207.19	8.865
207.56	11.547
207.92	11.395
208.29	0.349
208.66	-9.057
209.03	-16.164
209.39	-5.907
209.76	-21.390
210.13	-34.333
210.50	-17.260
210.86	-48.326
211.23	-55.629
211.60	-39.085
211.96	-66.008
212.33	-27.624
212.70	-14.409
213.07	3.465
213.43	-6.067
213.80	-3.070
214.17	-5.487
214.53	2.269
214.90	5.566
215.27	6.637
215.63	-10.104
216.00	-9.899
216.37	-14.851
216.74	-21.029
217.10	-47.122
217.47	-49.085
217.84	-61.941
218.20	-54.066
218.57	-94.462
218.94	-86.879
219.30	-91.165
219.67	-57.929
220.04	-58.619
220.40	-45.545
220.77	-48.570
221.13	-30.337
221.50	-30.541
221.87	-20.017
222.23	-18.370
222.60	-1.231
222.97	-1.043
223.33	-1.918
223.70	2.972
224.07	6.690
224.43	3.545
224.80	5.712
225.16	5.198
225.53	4.624
225.90	5.288
226.26	5.283
226.63	3.028
226.99	4.568
227.36	4.820
227.73	2.436
228.09	1.991
228.46	2.332
228.82	1.276
229.19	1.792
229.56	1.647
229.92	1.206
230.29	1.353
230.65	2.128
231.02	0.122
231.38	0.181
231.75	0.566
232.12	1.575
232.48	1.648
232.85	1.802
233.21	2.128
233.58	4.545
233.94	5.286
234.31	4.740
234.68	4.363
235.04	6.239
235.41	6.886
235.77	7.100
236.14	4.758
236.50	6.589
236.87	6.107
237.23	5.200
237.60	3.347
237.96	3.032
238.33	2.718
238.69	2.086
239.06	0.913
239.42	1.090
239.79	1.787
240.15	2.944
240.52	2.582
240.88	2.901
241.25	3.064
241.61	3.388
241.98	2.986
242.34	3.036
242.71	2.688
243.07	3.014
243.44	3.271
243.80	3.365
244.17	3.265
244.53	3.161
244.90	2.950
245.26	2.930
245.63	2.650
245.99	2.722
246.36	3.020
246.72	3.736
247.09	3.735
247.45	3.799
247.81	3.686
248.18	3.618
248.54	3.423
248.91	3.537
249.27	3.472
249.64	3.539
250.00	3.617
250.36	3.066
250.73	2.145
251.09	2.002
251.46	1.786
251.82	2.092
252.19	1.770
252.55	2.017
252.91	1.824
253.28	2.113
253.64	2.511
254.01	2.569
254.37	3.146
254.73	3.438
255.10	3.495
255.46	3.234
255.83	2.654
256.19	2.485
256.55	2.237
256.92	2.440
257.28	2.278
257.65	2.174
258.01	2.354
258.37	2.374
258.74	2.268
259.10	2.377
259.46	2.186
259.83	2.235
260.19	2.446
260.55	2.518
260.92	2.560
261.28	2.681
261.64	2.788
262.01	2.502
262.37	2.356
262.73	2.542
263.10	2.334
263.46	2.573
263.82	2.987
264.19	3.359
264.55	3.525
264.91	3.706
265.28	3.730
265.64	4.006
266.00	3.998
266.37	3.823
266.73	3.609
267.09	3.732
267.46	3.905
267.82	3.835
268.18	3.508
268.54	3.054
268.91	2.662
269.27	2.622
269.63	2.277
270.00	2.003
270.36	2.170
270.72	2.382
271.08	2.399
271.45	2.388
271.81	2.091
272.17	2.210
272.53	2.617
272.90	2.917
273.26	2.899
273.62	3.264
273.98	3.684
274.35	3.640
274.71	3.661
275.07	3.534
275.43	3.619
275.80	3.715
276.16	3.448
276.52	3.449
276.88	2.917
277.25	2.877
277.61	2.416
277.97	2.401
278.33	2.156
278.69	2.327
279.06	2.520
279.42	2.255
279.78	2.186
280.14	2.418
280.50	2.569
280.87	2.981
281.23	2.889
281.59	2.971
281.95	3.095
282.31	3.086
282.68	2.939
283.04	2.925
283.40	3.017
283.76	3.135
284.12	3.213
284.48	3.004
284.85	2.698
285.21	2.674
285.57	2.669
285.93	2.444
286.29	2.479
286.65	2.625
287.02	2.486
287.38	2.521
287.74	2.455
288.10	2.321
288.46	2.417
288.82	2.721
289.18	2.788
289.54	3.091
289.91	3.213
290.27	3.347
290.63	3.177
290.99	3.351
291.35	3.448
291.71	3.469
292.07	3.564
292.43	3.917
292.79	4.018
293.16	4.203
293.52	4.032
293.88	4.188
294.24	4.453
294.60	4.805
294.96	5.097
295.32	5.359
295.68	5.634
296.04	5.866
296.40	5.729
296.76	5.801
297.12	6.067
297.49	6.438
297.85	6.577
298.21	6.623
298.57	6.568
298.93	6.606
299.29	6.644
299.65	6.937
300.01	7.068
300.37	7.358
300.73	7.516
301.09	7.685
301.45	7.802
301.81	8.065
302.17	8.295
302.53	8.654
302.89	8.878
303.25	9.157
303.61	9.277
303.97	9.492
304.33	9.648
304.69	9.854
305.05	9.935
305.41	9.981
305.77	10.168
306.13	10.376
306.49	10.345
306.85	10.548
307.21	10.649
307.57	10.776
307.93	10.834
308.29	10.871
308.65	10.972
309.01	11.003
309.37	11.096
309.73	11.017
310.09	10.920
310.45	11.116
310.81	11.142
311.17	11.132
311.53	11.175
311.89	11.223
312.25	11.190
312.61	11.182
312.96	11.195
313.32	11.260
313.68	11.397
314.04	11.642
314.40	11.586
314.76	11.637
315.12	11.705
315.48	11.741
315.84	11.687
316.20	11.860
316.56	11.973
316.92	12.117
317.27	12.134
317.63	12.081
317.99	11.959
318.35	12.053
318.71	11.914
319.07	11.738
319.43	11.612
319.79	11.604
320.15	11.401
320.50	11.333
320.86	11.212
321.22	11.162
321.58	11.084
321.94	11.097
322.30	10.801
322.66	10.776
323.01	10.807
323.37	10.847
323.73	10.870
324.09	11.070
324.45	11.026
324.81	10.978
325.17	11.007
325.52	10.920
325.88	10.836
326.24	10.948
326.60	11.053
326.96	10.995
327.31	10.832
327.67	10.634
328.03	10.541
328.39	10.576
328.75	10.720
329.11	10.625
329.46	10.672
329.82	10.809
330.18	10.799
330.54	10.562
330.90	10.620
331.25	10.713
331.61	10.905
331.97	10.823
332.33	10.848
332.68	10.666
333.04	10.602
333.40	10.615
333.76	10.558
334.11	10.516
334.47	10.514
334.83	10.534
335.19	10.449
335.54	10.298
335.90	10.299
336.26	10.234
336.62	10.256
336.97	10.225
337.33	10.169
337.69	10.145
338.05	10.022
338.40	10.109
338.76	9.970
339.12	9.962
339.48	9.979
339.83	9.978
340.19	9.851
340.55	9.798
340.90	9.818
341.26	9.851
341.62	9.688
341.97	9.798
342.33	9.737
342.69	9.772
343.04	9.817
343.40	9.835
343.76	9.788
344.12	9.833
344.47	9.831
344.83	9.782
345.19	9.715
345.54	9.789
345.90	9.688
346.26	9.659
346.61	9.636
346.97	9.577
347.32	9.566
347.68	9.533
348.04	9.618
348.39	9.633
348.75	9.725
349.11	9.804
349.46	9.728
349.82	9.814
350.18	9.736
350.53	9.697
350.89	9.588
351.24	9.477
351.60	9.427
351.96	9.392
352.31	9.367
352.67	9.277
353.02	9.181
353.38	9.237
353.74	9.265
354.09	9.300
354.45	9.261
354.80	9.366
355.16	9.352
355.52	9.362
355.87	9.284
356.23	9.264
356.58	9.226
356.94	9.183
357.29	9.165
357.65	9.068
358.00	9.036
358.36	9.030
358.72	8.934
359.07	8.954
359.43	8.932
359.78	8.920
360.14	8.894
360.49	8.914
360.85	8.883
361.20	8.893
361.56	8.845
361.91	8.829
362.27	8.843
362.62	8.857
362.98	8.835
363.33	8.886
363.69	8.844
364.04	8.819
364.40	8.766
364.75	8.790
365.11	8.710
365.46	8.751
365.82	8.762
366.17	8.822
366.53	8.782
366.88	8.741
367.24	8.677
367.59	8.677
367.95	8.694
368.30	8.738
368.66	8.712
369.01	8.721
369.37	8.729
369.72	8.784
370.08	8.671
370.43	8.735
370.78	8.738
371.14	8.714
371.49	8.703
371.85	8.655
372.20	8.636
372.56	8.583
372.91	8.540
373.26	8.548
373.62	8.438
373.97	8.443
374.33	8.356
374.68	8.325
375.03	8.303
375.39	8.278
375.74	8.251
376.10	8.248
376.45	8.290
376.80	8.246
377.16	8.209
377.51	8.219
377.87	8.199
378.22	8.209
378.57	8.249
378.93	8.257
379.28	8.245
379.63	8.268
379.99	8.243
380.34	8.237
380.70	8.250
381.05	8.219
381.40	8.162
381.76	8.155
382.11	8.132
382.46	8.126
382.82	8.117
383.17	8.105
383.52	8.052
383.88	8.004
384.23	7.953
384.58	7.946
384.94	7.911
385.29	7.937
385.64	7.922
385.99	7.863
386.35	7.808
386.70	7.769
387.05	7.706
387.41	7.698
387.76	7.676
388.11	7.669
388.47	7.612
388.82	7.627
389.17	7.573
389.52	7.529
389.88	7.572
390.23	7.572
390.58	7.493
390.93	7.545
391.29	7.506
391.64	7.508
391.99	7.491
392.34	7.496
392.70	7.390
393.05	7.343
393.40	7.342
393.75	7.235
394.11	7.207
394.46	7.248
394.81	7.164
395.16	7.143
395.52	7.073
395.87	7.024
396.22	6.963
396.57	6.950
396.92	6.887
397.28	6.821
397.63	6.804
397.98	6.722
398.33	6.618
398.68	6.560
399.04	6.532
399.39	6.474
399.74	6.462
400.09	6.459
400.44	6.464
400.80	6.520
401.15	6.473
401.50	6.478
401.85	6.497
402.20	6.548
402.55	6.555
402.90	6.527
403.26	6.525
403.61	6.463
403.96	6.410
404.31	6.380
404.66	6.343
405.01	6.388
405.36	6.356
405.72	6.295
406.07	6.240
406.42	6.233
406.77	6.226
407.12	6.210
407.47	6.195
407.82	6.216
408.17	6.171
408.53	6.135
408.88	6.089
409.23	6.064
409.58	6.070
409.93	6.068
410.28	6.034
410.63	5.969
410.98	5.944
411.33	5.972
411.68	5.955
412.03	5.997
412.38	5.982
412.73	5.975
413.09	6.006
413.44	6.007
413.79	5.986
414.14	5.962
414.49	5.981
414.84	5.989
415.19	5.974
415.54	5.982
415.89	5.963
416.24	5.990
416.59	5.969
416.94	5.960
417.29	5.949
417.64	5.963
417.99	5.985
418.34	5.996
418.69	6.002
419.04	6.000
419.39	5.996
419.74	5.987
420.09	5.958
420.44	5.982
420.79	5.961
421.14	5.976
421.49	5.976
421.84	5.969
422.19	5.975
422.54	5.979
422.89	5.975
423.24	5.969
423.59	5.974
423.94	5.986
424.29	5.947
424.64	5.951
424.99	5.933
425.34	5.942
425.68	5.925
426.03	5.913
426.38	5.909
426.73	5.916
427.08	5.914
427.43	5.932
427.78	5.943
428.13	5.976
428.48	5.991
428.83	6.012
429.18	6.014
429.53	6.049
429.87	6.068
430.22	6.073
430.57	6.081
430.92	6.100
431.27	6.089
431.62	6.080
431.97	6.102
432.32	6.108
432.67	6.102
433.01	6.080
433.36	6.066
433.71	6.053
434.06	6.034
434.41	6.044
434.76	6.024
435.11	6.028
435.45	6.050
435.80	6.045
436.15	6.073
436.50	6.083
436.85	6.111
437.20	6.123
437.54	6.126
437.89	6.135
438.24	6.137
438.59	6.149
438.94	6.154
439.29	6.158
439.63	6.155
439.98	6.145
440.33	6.148
440.68	6.138
441.03	6.130
441.37	6.143
441.72	6.155
442.07	6.164
442.42	6.186
442.76	6.201
443.11	6.209
443.46	6.228
443.81	6.236
444.16	6.244
444.50	6.252
444.85	6.264
445.20	6.268
445.55	6.247
445.89	6.245
446.24	6.224
446.59	6.209
446.94	6.201
447.28	6.168
447.63	6.145
447.98	6.113
448.32	6.104
448.67	6.100
449.02	6.086
449.37	6.103
449.71	6.100
450.06	6.103
450.41	6.093
450.75	6.102
451.10	6.130
451.45	6.141
451.79	6.145
452.14	6.139
452.49	6.128
452.84	6.126
453.18	6.135
453.53	6.123
453.88	6.137
454.22	6.150
454.57	6.132
454.92	6.129
455.26	6.145
455.61	6.159
455.95	6.173
456.30	6.194
456.65	6.219
456.99	6.218
457.34	6.231
457.69	6.241
458.03	6.228
458.38	6.234
458.73	6.249
459.07	6.245
459.42	6.250
459.76	6.235
460.11	6.222
460.46	6.201
460.80	6.186
461.15	6.165
461.49	6.142
461.84	6.145
462.19	6.151
462.53	6.145
462.88	6.134
463.22	6.111
463.57	6.126
463.91	6.129
464.26	6.141
464.61	6.160
464.95	6.166
465.30	6.170
465.64	6.178
465.99	6.176
466.33	6.162
466.68	6.147
467.02	6.140
467.37	6.129
467.71	6.092
468.06	6.076
468.41	6.046
468.75	6.035
469.10	6.011
469.44	6.003
469.79	5.980
470.13	5.958
470.48	5.957
470.82	5.968
471.17	5.939
471.51	5.936
471.86	5.906
472.20	5.891
472.55	5.890
472.89	5.883
473.23	5.857
473.58	5.841
473.92	5.835
474.27	5.836
474.61	5.821
474.96	5.808
475.30	5.796
475.65	5.802
475.99	5.801
476.34	5.762
476.68	5.748
477.02	5.754
477.37	5.743
477.71	5.746
478.06	5.743
478.40	5.770
478.75	5.845
479.09	5.939
479.43	6.027
479.78	6.116
480.12	6.215
480.47	6.327
480.81	6.442
481.15	6.555
481.50	6.649
481.84	6.773
482.19	6.898
482.53	6.999
482.87	7.067
483.22	7.078
483.56	7.034
483.90	6.949
484.25	6.822
484.59	6.667
484.94	6.563
485.28	6.482
485.62	6.359
485.97	6.208
486.31	6.078
486.65	5.961
487.00	5.897
487.34	5.880
487.68	5.911
488.03	5.964
488.37	6.028
488.71	6.033
489.06	6.005
489.40	5.978
489.74	5.979
490.09	5.955
490.43	5.931
490.77	5.904
491.11	5.880
491.46	5.828
491.80	5.772
492.14	5.715
492.49	5.666
492.83	5.623
493.17	5.587
493.51	5.510
493.86	5.459
494.20	5.417
494.54	5.380
494.88	5.367
495.23	5.364
495.57	5.365
495.91	5.377
496.25	5.370
496.60	5.367
496.94	5.333
497.28	5.338
497.62	5.317
497.97	5.315
498.31	5.300
498.65	5.291
498.99	5.287
499.33	5.292
499.68	5.288
500.02	5.295
500.36	5.273
500.70	5.285
501.04	5.268
501.39	5.273
501.73	5.260
502.07	5.262
502.41	5.250
502.75	5.245
503.09	5.230
503.44	5.219
503.78	5.202
504.12	5.194
504.46	5.180
504.80	5.191
505.14	5.187
505.49	5.197
505.83	5.200
506.17	5.198
506.51	5.207
506.85	5.208
507.19	5.208
507.53	5.205
507.87	5.209
508.22	5.220
508.56	5.202
508.90	5.198
509.24	5.199
509.58	5.196
509.92	5.179
510.26	5.175
510.60	5.164
510.94	5.137
511.28	5.136
511.63	5.122
511.97	5.109
512.31	5.111
512.65	5.104
512.99	5.084
513.33	5.065
513.67	5.080
514.01	5.080
514.35	5.090
514.69	5.105
515.03	5.112
515.37	5.117
515.71	5.126
516.05	5.133
516.39	5.142
516.73	5.149
517.07	5.161
517.41	5.147
517.75	5.124
518.09	5.112
518.43	5.096
518.77	5.059
519.11	5.033
519.45	4.988
519.79	4.947
520.13	4.903
520.47	4.865
520.81	4.839
521.15	4.831
521.49	4.827
521.83	4.816
522.17	4.806
522.51	4.840
522.85	4.879
523.19	4.944
523.53	5.010
523.87	5.090
524.21	5.168
524.55	5.230
524.89	5.284
525.23	5.331
525.57	5.386
525.91	5.442
526.25	5.479
526.58	5.512
526.92	5.530
527.26	5.547
527.60	5.546
527.94	5.532
528.28	5.518
528.62	5.492
528.96	5.464
529.30	5.433
529.64	5.386
529.97	5.351
530.31	5.296
530.65	5.251
530.99	5.201
531.33	5.156
531.67	5.114
532.01	5.080
532.35	5.066
532.68	5.044
533.02	5.010
533.36	4.988
533.70	4.938
534.04	4.911
534.38	4.871
534.71	4.831
535.05	4.798
535.39	4.772
535.73	4.734
536.07	4.709
536.41	4.696
536.74	4.693
537.08	4.710
537.42	4.752
537.76	4.788
538.10	4.835
538.43	4.872
538.77	4.906
539.11	4.943
539.45	4.976
539.79	4.991
540.12	5.013
540.46	5.016
540.80	5.011
541.14	4.992
541.47	4.967
541.81	4.933
542.15	4.908
542.49	4.873
542.82	4.829
543.16	4.782
543.50	4.743
543.84	4.688
544.17	4.668
544.51	4.627
544.85	4.604
545.18	4.575
545.52	4.543
545.86	4.518
546.20	4.493
546.53	4.453
546.87	4.422
547.21	4.387
547.54	4.357
547.88	4.317
548.22	4.295
548.55	4.274
548.89	4.266
549.23	4.276
549.56	4.250
549.90	4.235
550.24	4.271
550.57	4.268
550.91	4.271
551.25	4.268
551.58	4.273
551.92	4.269
552.26	4.268
552.59	4.248
552.93	4.222
553.27	4.205
553.60	4.195
553.94	4.178
554.27	4.175
554.61	4.159
554.95	4.153
555.28	4.130
555.62	4.126
555.95	4.118
556.29	4.136
556.63	4.133
556.96	4.128
557.30	4.135
557.63	4.103
557.97	4.099
558.31	4.104
558.64	4.117
558.98	4.115
559.31	4.132
559.65	4.135
559.98	4.135
560.32	4.160
560.65	4.172
560.99	4.181
561.33	4.203
561.66	4.206
562.00	4.214
562.33	4.216
562.67	4.227
563.00	4.227
563.34	4.233
563.67	4.229
564.01	4.211
564.34	4.229
564.68	4.225
565.01	4.213
565.35	4.210
565.68	4.222
566.02	4.216
566.35	4.236
566.69	4.231
567.02	4.217
567.36	4.207
567.69	4.213
568.03	4.205
568.36	4.187
568.69	4.183
569.03	4.203
569.36	4.194
569.70	4.199
570.03	4.189
570.37	4.192
570.70	4.177
571.04	4.192
571.37	4.187
571.70	4.168
572.04	4.174
572.37	4.177
572.71	4.161
573.04	4.162
573.37	4.151
573.71	4.130
574.04	4.115
574.38	4.106
574.71	4.077
575.04	4.057
575.38	4.046
575.71	4.040
576.05	3.995
576.38	3.981
576.71	3.928
577.05	3.901
577.38	3.897
577.71	3.869
578.05	3.851
578.38	3.832
578.71	3.811
579.05	3.819
579.38	3.777
579.71	3.793
580.05	3.778
580.38	3.787
580.71	3.801
581.05	3.786
581.38	3.771
581.71	3.786
582.05	3.786
582.38	3.810
582.71	3.799
583.04	3.823
583.38	3.830
583.71	3.840
584.04	3.859
584.38	3.865
584.71	3.908
585.04	3.954
585.37	3.974
585.71	4.000
586.04	4.044
586.37	4.081
586.70	4.108
587.04	4.146
587.37	4.167
587.70	4.204
588.03	4.240
588.37	4.223
588.70	4.233
589.03	4.258
589.36	4.263
589.69	4.233
590.03	4.237
590.36	4.241
590.69	4.221
591.02	4.233
591.35	4.227
591.69	4.209
592.02	4.211
592.35	4.225
592.68	4.236
593.01	4.276
593.35	4.303
593.68	4.304
594.01	4.311
594.34	4.346
594.67	4.347
595.00	4.333
595.34	4.339
595.67	4.356
596.00	4.330
596.33	4.295
596.66	4.264
596.99	4.237
597.32	4.215
597.65	4.217
597.99	4.174
598.32	4.174
598.65	4.168
598.98	4.149
599.31	4.139
599.64	4.165
599.97	4.180
600.30	4.206
600.63	4.220
600.96	4.246
601.30	4.243
601.63	4.280
601.96	4.276
602.29	4.313
602.62	4.348
602.95	4.357
603.28	4.353
603.61	4.365
603.94	4.366
604.27	4.358
604.60	4.357
604.93	4.336
605.26	4.317
605.59	4.323
605.92	4.306
606.25	4.276
606.58	4.250
606.91	4.247
607.24	4.245
607.57	4.238
607.90	4.245
608.23	4.266
608.56	4.301
608.89	4.299
609.22	4.281
609.55	4.253
609.88	4.220
610.21	4.201
610.54	4.200
610.87	4.156
611.20	4.119
611.53	4.082
611.86	4.036
612.19	4.010
612.52	4.004
612.85	4.020
613.18	4.014
613.51	4.054
613.84	4.059
614.17	4.063
614.49	4.088
614.82	4.123
615.15	4.152
615.48	4.144
615.81	4.135
616.14	4.136
616.47	4.139
616.80	4.118
617.13	4.104
617.46	4.130
617.78	4.085
618.11	4.090
618.44	4.057
618.77	4.078
619.10	4.088
619.43	4.074
619.76	4.065
620.09	4.030
620.41	4.048
620.74	4.047
621.07	4.014
621.40	4.046
621.73	4.058
622.06	4.065
622.38	4.061
622.71	4.108
623.04	4.141
623.37	4.148
623.70	4.183
624.02	4.214
624.35	4.237
624.68	4.257
625.01	4.265
625.34	4.284
625.66	4.306
625.99	4.309
626.32	4.300
626.65	4.296
626.98	4.313
627.30	4.321
627.63	4.303
627.96	4.288
628.29	4.288
628.61	4.291
628.94	4.271
629.27	4.275
629.60	4.230
629.92	4.178
630.25	4.143
630.58	4.163
630.91	4.129
631.23	4.132
631.56	4.124
631.89	4.163
632.21	4.136
632.54	4.128
632.87	4.094
633.19	4.139
633.52	4.160
633.85	4.155
634.18	4.094
634.50	4.071
634.83	4.051
635.16	4.081
635.48	3.997
635.81	3.996
636.14	3.927
636.46	3.928
636.79	3.865
637.11	3.815
637.44	3.818
637.77	3.786
638.09	3.767
638.42	3.750
638.75	3.675
639.07	3.692
639.40	3.680
639.73	3.684
640.05	3.671
640.38	3.681
640.70	3.716
641.03	3.690
641.36	3.673
641.68	3.699
642.01	3.711
642.33	3.762
642.66	3.750
642.98	3.706
643.31	3.733
643.64	3.760
643.96	3.759
644.29	3.761
644.61	3.809
644.94	3.880
645.26	3.913
645.59	3.920
645.91	3.889
646.24	3.930
646.56	3.997
646.89	4.025
647.22	3.970
647.54	3.982
647.87	3.961
648.19	3.925
648.52	3.863
648.84	3.827
649.17	3.816
649.49	3.838
649.82	3.813
650.14	3.766
650.47	3.737
650.79	3.769
651.11	3.751
651.44	3.748
651.76	3.767
652.09	3.786
652.41	3.785
652.74	3.817
653.06	3.806
653.39	3.828
653.71	3.857
654.04	3.842
654.36	3.783
654.68	3.817
655.01	3.778
655.33	3.768
655.66	3.783
655.98	3.782
656.30	3.785
656.63	3.803
656.95	3.757
657.28	3.767
657.60	3.723
657.92	3.716
658.25	3.664
658.57	3.684
658.90	3.630
659.22	3.579
659.54	3.534
659.87	3.464
660.19	3.377
660.51	3.381
660.84	3.300
661.16	3.320
661.48	3.324
661.81	3.269
662.13	3.204
662.45	3.192
662.78	3.195
663.10	3.191
663.42	3.156
663.75	3.126
664.07	3.099
664.39	3.091
664.72	3.087
665.04	3.085
665.36	3.124
665.69	3.127
666.01	3.167
666.33	3.149
666.65	3.101
666.98	3.085
667.30	3.093
667.62	3.115
667.94	3.092
668.27	3.060
668.59	3.021
668.91	3.031
669.23	2.987
669.56	2.927
669.88	2.914
670.20	2.886
670.52	2.796
670.85	2.782
671.17	2.695
671.49	2.739
671.81	2.772
672.13	2.780
672.46	2.757
672.78	2.734
673.10	2.755
673.42	2.747
673.74	2.736
674.07	2.852
674.39	2.838
674.71	2.891
675.03	2.843
675.35	2.822
675.67	2.794
676.00	2.814
676.32	2.879
676.64	2.887
676.96	2.848
677.28	2.954
677.60	2.928
677.92	2.947
678.25	2.953
678.57	2.987
678.89	2.990
679.21	3.032
679.53	2.974
679.85	2.952
680.17	2.903
680.49	2.964
680.81	2.889
681.13	2.892
681.46	2.859
681.78	2.825
682.10	2.787
682.42	2.798
682.74	2.802
683.06	2.832
683.38	2.838
683.70	2.877
684.02	2.918
684.34	2.950
684.66	3.019
684.98	3.100
685.30	3.134
685.62	3.171
685.94	3.202
686.26	3.165
686.58	3.156
686.90	3.225
687.22	3.252
687.54	3.249
687.86	3.227
688.18	3.167
688.50	3.024
688.82	3.021
689.14	3.013
689.46	2.955
689.78	2.952
690.10	2.887
690.42	2.785
690.74	2.738
691.06	2.627
691.38	2.616
691.70	2.566
692.02	2.636
692.34	2.540
692.66	2.538
692.98	2.442
693.30	2.430
693.62	2.467
693.94	2.553
694.26	2.555
694.57	2.616
694.89	2.610
695.21	2.676
695.53	2.741
695.85	2.857
696.17	2.836
696.49	2.918
696.81	2.943
697.13	2.973
697.44	2.946
697.76	2.943
698.08	2.898
698.40	2.911
698.72	2.851
699.04	2.797
699.36	2.651
699.67	2.564
699.99	2.462
700.31	2.338
700.63	2.095
700.95	1.952
701.27	1.766
701.58	1.673
701.90	1.455
702.22	1.313
702.54	1.126
702.86	1.092
703.17	1.008
703.49	0.881
703.81	0.855
704.13	0.949
704.45	0.906
704.76	0.950
705.08	0.802
705.40	0.796
705.72	0.772
706.03	0.843
706.35	0.710
706.67	0.693
706.99	0.716
707.30	0.622
707.62	0.611
707.94	0.649
708.26	0.711
708.57	0.794
708.89	0.827
709.21	0.909
709.53	0.815
709.84	0.900
710.16	0.923
710.48	0.936
710.79	1.025
711.11	1.082
711.43	1.021
711.74	0.943
712.06	0.911
712.38	0.982
712.69	1.022
713.01	1.180
713.33	1.350
713.64	1.481
713.96	1.558
714.28	1.688
714.59	1.731
714.91	1.869
715.23	1.999
715.54	2.123
715.86	2.223
716.17	2.233
716.49	2.167
716.81	1.979
717.12	1.944
717.44	1.936
717.76	1.870
718.07	1.921
718.39	1.877
718.70	1.774
719.02	1.672
719.33	1.477
719.65	1.359
719.97	1.309
720.28	1.323
720.60	1.310
720.91	1.211
721.23	1.169
721.54	0.964
721.86	0.902
722.17	0.874
722.49	0.963
722.81	1.076
723.12	1.213
723.44	1.255
723.75	1.305
724.07	1.305
724.38	1.499
724.70	1.426
725.01	1.614
725.33	1.589
725.64	1.634
725.96	1.644
726.27	1.769
726.59	1.706
726.90	1.784
727.22	1.777
727.53	1.693
727.84	1.567
728.16	1.625
728.47	1.495
728.79	1.456
729.10	1.284
729.42	1.223
729.73	1.131
730.05	1.099
730.36	0.891
730.67	0.760
730.99	0.618
731.30	0.559
731.62	0.317
731.93	0.216
732.24	0.162
732.56	0.162
732.87	-0.002
733.19	-0.304
733.50	-0.512
733.81	-0.667
734.13	-0.787
734.44	-0.786
734.76	-1.055
735.07	-1.143
735.38	-1.277
735.70	-1.537
736.01	-1.632
736.32	-1.807
736.64	-1.895
736.95	-1.950
737.26	-1.947
737.58	-2.141
737.89	-2.291
738.20	-2.275
738.52	-2.363
738.83	-2.510
739.14	-2.603
739.45	-2.749
739.77	-2.846
740.08	-2.969
740.39	-3.125
740.71	-3.237
741.02	-3.305
741.33	-3.565
741.64	-3.933
741.96	-4.062
742.27	-4.236
742.58	-4.330
742.90	-4.627
743.21	-4.805
743.52	-4.895
743.83	-5.277
744.14	-5.631
744.46	-5.599
744.77	-5.607
745.08	-5.404
745.39	-5.506
745.71	-5.630
746.02	-5.767
746.33	-5.452
746.64	-5.397
746.95	-5.455
747.27	-5.291
747.58	-5.028
747.89	-5.105
748.20	-5.035
748.51	-4.996
748.82	-4.975
749.14	-4.893
749.45	-4.798
749.76	-4.984
750.07	-4.974
750.38	-4.895
750.69	-4.830
751.01	-4.790
751.32	-4.826
751.63	-4.902
751.94	-4.910
752.25	-4.962
752.56	-4.880
752.87	-4.871
753.18	-4.909
753.49	-5.108
753.81	-5.035
754.12	-4.926
754.43	-4.929
754.74	-4.626
755.05	-4.178
755.36	-3.881
755.67	-3.263
755.98	-2.926
756.29	-2.265
756.60	-1.527
756.91	-0.594
757.22	-0.099
757.53	0.608
757.84	1.457
758.15	1.946
758.46	2.417
758.77	2.781
759.09	3.074
759.40	3.426
759.71	3.674
760.02	3.925
760.33	3.995
760.64	4.132
760.95	4.101
761.26	4.044
761.57	3.982
761.88	3.866
762.18	3.825
762.49	3.603
762.80	3.471
763.11	3.253
763.42	2.801
763.73	2.445
764.04	2.057
764.35	1.706
764.66	1.130
764.97	0.655
765.28	0.026
765.59	-0.723
765.90	-1.348
766.21	-1.938
766.52	-2.852
766.83	-3.415
767.14	-4.096
767.44	-4.665
767.75	-5.362
768.06	-5.898
768.37	-6.500
768.68	-6.862
768.99	-7.123
769.30	-7.290
769.61	-7.782
769.91	-7.853
770.22	-8.144
770.53	-8.272
770.84	-8.612
771.15	-8.723
771.46	-8.964
771.77	-9.010
772.07	-9.207
772.38	-9.525
772.69	-9.202
773.00	-8.975
773.31	-8.931
773.61	-8.808
773.92	-8.446
774.23	-8.333
774.54	-8.256
774.85	-8.195
775.15	-8.198
775.46	-8.355
775.77	-7.795
776.08	-8.278
776.39	-8.466
776.69	-8.474
777.00	-8.447
777.31	-8.778
777.62	-8.911
777.92	-9.168
778.23	-9.192
778.54	-9.143
778.85	-8.769
779.15	-8.882
779.46	-8.878
779.77	-8.938
780.07	-8.854
780.38	-8.684
780.69	-8.899
781.00	-8.856
781.30	-8.835
781.61	-8.803
781.92	-8.305
782.22	-8.581
782.53	-8.673
782.84	-8.492
783.14	-8.195
783.45	-8.314
783.76	-8.322
784.06	-7.628
784.37	-7.188
784.68	-6.600
784.98	-5.899
785.29	-6.113
785.60	-5.568
785.90	-5.096
786.21	-4.775
786.51	-4.540
786.82	-4.218
787.13	-3.954
787.43	-4.059
787.74	-3.652
788.04	-3.921
788.35	-4.067
788.66	-4.064
788.96	-4.160
789.27	-4.435
789.57	-4.667
789.88	-5.024
790.19	-5.092
790.49	-5.419
790.80	-5.415
791.10	-5.815
791.41	-5.553
791.71	-5.792
792.02	-5.791
792.32	-5.956
792.63	-5.972
792.93	-5.773
793.24	-5.354
793.54	-5.421
793.85	-4.740
794.15	-4.661
794.46	-4.219
794.76	-4.192
795.07	-3.961
795.37	-3.434
795.68	-2.919
795.98	-3.130
796.29	-3.071
796.59	-3.003
796.90	-2.773
797.20	-3.205
797.51	-2.982
797.81	-3.162
798.12	-3.348
798.42	-3.613
798.72	-4.044
799.03	-4.038
799.33	-3.760
799.64	-3.871
799.94	-4.004
800.25	-3.908
800.55	-3.700
800.85	-4.026
801.16	-4.183
801.46	-4.012
801.77	-3.946
802.07	-3.691
802.37	-3.942
802.68	-3.997
802.98	-4.127
803.28	-4.626
803.59	-4.821
803.89	-5.239
804.20	-4.883
804.50	-4.861
804.80	-4.983
805.11	-4.724
805.41	-4.808
805.71	-4.747
806.02	-4.306
806.32	-4.302
806.62	-3.370
806.93	-3.189
807.23	-3.163
807.53	-3.549
807.83	-2.993
808.14	-2.639
808.44	-2.555
808.74	-2.709
809.05	-2.654
809.35	-2.784
809.65	-1.889
809.95	-1.976
810.26	-1.439
810.56	-1.307
810.86	-1.123
811.16	-1.348
811.47	-1.684
811.77	-1.847
812.07	-1.089
812.37	-0.216
812.68	0.372
812.98	0.381
813.28	0.085
813.58	0.072
813.88	0.411
814.19	1.182
814.49	1.461
814.79	1.741
815.09	2.394
815.39	2.550
815.70	2.340
816.00	2.245
816.30	2.550
816.60	2.405
816.90	2.712
817.20	3.249
817.50	3.525
817.81	3.774
818.11	4.445
818.41	4.712
818.71	5.042
819.01	5.321
819.31	5.739
819.61	5.915
819.92	6.228
820.22	6.349
820.52	6.478
820.82	6.445
821.12	6.546
821.42	6.617
821.72	6.686
822.02	6.718
822.32	6.744
822.62	6.726
822.92	6.682
823.22	6.715
823.52	6.626
823.83	6.561
824.13	6.536
824.43	6.452
824.73	6.361
825.03	6.275
825.33	6.230
825.63	6.177
825.93	6.028
826.23	5.871
826.53	5.748
826.83	5.702
827.13	5.649
827.43	5.752
827.73	5.830
828.03	5.657
828.33	5.634
828.63	5.261
828.93	5.024
829.23	4.804
829.53	4.672
829.83	4.376
830.13	4.408
830.42	4.111
830.72	3.976
831.02	3.614
831.32	3.969
831.62	4.011
831.92	4.472
832.22	4.457
832.52	4.428
832.82	4.697
833.12	4.849
833.42	4.851
833.72	5.042
834.01	5.138
834.31	5.342
834.61	4.970
834.91	4.603
835.21	4.217
835.51	3.788
835.81	3.429
836.11	2.865
836.40	1.962
836.70	1.526
837.00	0.749
837.30	0.073
837.60	-0.331
837.90	-0.558
838.19	-0.512
838.49	-0.771
838.79	-0.935
839.09	-0.409
839.39	-0.543
839.68	0.004
839.98	-0.390
840.28	-0.202
840.58	-0.950
840.88	-1.126
841.17	-1.386
841.47	-1.773
841.77	-2.434
842.07	-1.248
842.36	-3.503
842.66	-4.484
842.96	-5.830
843.26	-6.815
843.55	-8.802
843.85	-9.607
844.15	-10.506
844.45	-11.734
844.74	-13.301
845.04	-15.582
845.34	-17.507
845.63	-14.959
845.93	-13.775
846.23	-13.203
846.53	-12.019
846.82	-11.355
847.12	-9.336
847.42	-9.155
847.71	-8.670
848.01	-5.475
848.31	-2.467
848.60	-2.022
848.90	-3.950
849.19	-5.067
849.49	-3.874
849.79	-4.865
850.08	-4.445
850.38	-5.142
850.68	-6.057
850.97	-5.906
851.27	-7.490
851.56	-7.637
851.86	-7.636
852.16	-5.679
852.45	-6.347
852.75	-6.710
853.04	-7.235
853.34	-6.912
853.64	-6.423
853.93	-7.664
854.23	-8.317
854.52	-8.712
854.82	-9.168
855.11	-9.658
855.41	-10.157
855.70	-8.836
856.00	-11.413
856.30	-10.378
856.59	-9.802
856.89	-9.356
857.18	-8.074
857.48	-6.514
857.77	-7.026
858.07	-7.774
858.36	-7.910
858.66	-5.895
858.95	-6.499
859.25	-4.069
859.54	-4.264
859.84	-5.594
860.13	-7.051
860.42	-5.494
860.72	-6.515
861.01	-6.128
861.31	-5.584
861.60	-5.751
861.90	-6.884
862.19	-5.032
862.49	-5.896
862.78	-4.344
863.07	-5.158
863.37	-3.823
863.66	-3.429
863.96	-3.010
864.25	-3.131
864.54	-2.617
864.84	-1.059
865.13	-1.080
865.43	-0.732
865.72	-10.634
866.01	-3.002
866.31	5.694
866.60	2.622
866.89	6.701
>>>>>End Spectral Data<<<<<
