OOIBase32 Version 2.0.0.6 Data File
++++++++++++++++++++++++++++++++++++
Date: 01-18-2012, 22:22:56
User: Valued Ocean Optics Customer
Spectrometer Serial Number: USB2E2917
Spectrometer Channel: Master
Integration Time (msec): 5
Spectra Averaged: 10
Boxcar Smoothing: 5
Correct for Electrical Dark: Enabled
Time Normalized: Disabled
Dual-beam Reference: Disabled
Reference Channel: Master
Temperature: Not acquired
Spectrometer Type: S2000
ADC Type: USB2000
Number of Pixels in File: 2048
Graph Title: 
>>>>>Begin Spectral Data<<<<<
180.30	0.000
180.67	0.000
181.03	-50.247
181.40	11.761
181.77	122.566
182.14	107.525
182.51	-522.644
182.88	48.396
183.25	73.524
183.62	-110.821
183.99	309.784
184.36	994.280
184.73	51.862
185.10	-118.386
185.46	-114.615
185.83	8.519
186.20	-40.504
186.57	-526.875
186.94	46.884
187.31	-96.019
187.68	203.375
188.05	-2.939
188.42	20.019
188.78	75.902
189.15	205.000
189.52	-102.716
189.89	-63.440
190.26	-94.140
190.63	-61.016
191.00	-33.527
191.37	-25.854
191.73	-6.156
192.10	14.339
192.47	27.162
192.84	29.167
193.21	33.403
193.58	14.583
193.94	-0.532
194.31	3.970
194.68	4.201
195.05	1.349
195.42	4.334
195.79	-3.314
196.15	-14.932
196.52	-21.884
196.89	-51.713
197.26	-72.048
197.63	-28.260
198.00	-52.628
198.36	-70.770
198.73	-58.924
199.10	-65.798
199.47	-172.343
199.84	-305.036
200.20	-354.177
200.57	-197.049
200.94	-190.073
201.31	-112.263
201.68	-218.734
202.04	-55.027
202.41	-31.989
202.78	-25.951
203.15	-34.595
203.51	-20.462
203.88	-8.467
204.25	4.046
204.62	9.250
204.98	19.733
205.35	21.913
205.72	17.451
206.09	22.662
206.46	19.775
206.82	18.816
207.19	8.416
207.56	9.044
207.92	17.890
208.29	8.154
208.66	-3.614
209.03	-10.750
209.39	0.977
209.76	-9.562
210.13	-28.016
210.50	-36.361
210.86	-53.928
211.23	-45.580
211.60	-26.636
211.96	-92.404
212.33	-67.084
212.70	-55.123
213.07	-26.014
213.43	-33.400
213.80	-17.545
214.17	-11.592
214.53	6.840
214.90	-2.182
215.27	-7.567
215.63	-20.335
216.00	-9.760
216.37	-16.090
216.74	-22.251
217.10	-40.473
217.47	-34.860
217.84	-50.663
218.20	-33.866
218.57	-70.783
218.94	-55.012
219.30	-41.221
219.67	-25.002
220.04	-31.883
220.40	-12.061
220.77	-24.821
221.13	-8.075
221.50	-12.433
221.87	-8.867
222.23	-20.224
222.60	-9.720
222.97	-6.942
223.33	-8.247
223.70	-4.112
224.07	1.422
224.43	-0.543
224.80	3.814
225.16	2.900
225.53	1.368
225.90	1.621
226.26	2.765
226.63	2.641
226.99	4.158
227.36	4.833
227.73	3.967
228.09	3.768
228.46	3.387
228.82	2.467
229.19	1.616
229.56	2.400
229.92	1.229
230.29	-0.095
230.65	-0.494
231.02	-3.285
231.38	-3.607
231.75	-4.118
232.12	-3.000
232.48	-3.678
232.85	-3.360
233.21	-1.656
233.58	-0.047
233.94	2.071
234.31	3.393
234.68	2.912
235.04	4.753
235.41	4.924
235.77	3.461
236.14	1.277
236.50	4.549
236.87	4.894
237.23	4.198
237.60	3.806
237.96	3.983
238.33	2.940
238.69	3.214
239.06	1.724
239.42	1.271
239.79	2.640
240.15	2.992
240.52	2.179
240.88	2.326
241.25	2.393
241.61	2.339
241.98	2.095
242.34	2.643
242.71	2.694
243.07	3.306
243.44	3.495
243.80	3.599
244.17	3.673
244.53	3.709
244.90	3.244
245.26	3.214
245.63	2.954
245.99	2.774
246.36	2.931
246.72	3.078
247.09	3.204
247.45	3.514
247.81	3.370
248.18	3.095
248.54	2.647
248.91	2.997
249.27	2.899
249.64	2.787
250.00	3.193
250.36	3.027
250.73	2.465
251.09	2.285
251.46	1.560
251.82	1.730
252.19	1.884
252.55	2.247
252.91	2.226
253.28	1.949
253.64	2.227
254.01	1.916
254.37	1.741
254.73	2.320
255.10	2.679
255.46	2.970
255.83	3.004
256.19	3.043
256.55	2.844
256.92	3.084
257.28	3.284
257.65	3.471
258.01	3.706
258.37	3.814
258.74	3.609
259.10	3.506
259.46	3.329
259.83	3.188
260.19	3.447
260.55	3.718
260.92	3.640
261.28	3.551
261.64	3.184
262.01	2.992
262.37	2.891
262.73	3.232
263.10	3.305
263.46	3.789
263.82	3.578
264.19	3.310
264.55	2.943
264.91	3.032
265.28	3.403
265.64	3.927
266.00	3.720
266.37	3.698
266.73	3.692
267.09	3.612
267.46	3.631
267.82	3.749
268.18	3.647
268.54	3.652
268.91	3.526
269.27	3.275
269.63	2.706
270.00	2.694
270.36	2.737
270.72	2.577
271.08	2.765
271.45	2.513
271.81	2.545
272.17	2.600
272.53	2.740
272.90	2.827
273.26	2.888
273.62	3.255
273.98	3.364
274.35	3.488
274.71	3.780
275.07	3.687
275.43	3.877
275.80	3.780
276.16	3.602
276.52	3.650
276.88	3.613
277.25	3.661
277.61	3.430
277.97	3.474
278.33	2.851
278.69	2.672
279.06	2.522
279.42	2.477
279.78	2.335
280.14	2.461
280.50	2.534
280.87	2.644
281.23	2.444
281.59	2.438
281.95	2.652
282.31	2.960
282.68	2.920
283.04	3.103
283.40	3.180
283.76	3.483
284.12	3.477
284.48	3.295
284.85	3.015
285.21	3.308
285.57	3.550
285.93	3.175
286.29	3.161
286.65	3.310
287.02	3.254
287.38	3.247
287.74	3.080
288.10	3.184
288.46	3.136
288.82	3.264
289.18	3.036
289.54	3.209
289.91	3.278
290.27	3.298
290.63	3.125
290.99	3.093
291.35	3.122
291.71	3.002
292.07	3.033
292.43	3.482
292.79	3.546
293.16	3.424
293.52	3.163
293.88	3.222
294.24	3.122
294.60	3.141
294.96	3.273
295.32	3.188
295.68	3.126
296.04	2.973
296.40	2.642
296.76	2.724
297.12	2.947
297.49	3.056
297.85	3.157
298.21	3.122
298.57	3.092
298.93	3.116
299.29	3.057
299.65	3.540
300.01	3.697
300.37	3.875
300.73	3.885
301.09	3.750
301.45	3.729
301.81	3.767
302.17	3.974
302.53	4.107
302.89	4.095
303.25	4.153
303.61	4.060
303.97	3.931
304.33	3.804
304.69	3.845
305.05	3.858
305.41	3.836
305.77	3.766
306.13	3.737
306.49	3.616
306.85	3.476
307.21	3.521
307.57	3.522
307.93	3.662
308.29	3.810
308.65	3.757
309.01	3.902
309.37	3.760
309.73	3.669
310.09	3.610
310.45	3.561
310.81	3.572
311.17	3.504
311.53	3.583
311.89	3.532
312.25	3.428
312.61	3.397
312.96	3.264
313.32	3.355
313.68	3.355
314.04	3.288
314.40	3.454
314.76	3.416
315.12	3.486
315.48	3.404
315.84	3.291
316.20	3.405
316.56	3.381
316.92	3.394
317.27	3.317
317.63	3.274
317.99	3.378
318.35	3.401
318.71	3.334
319.07	3.238
319.43	3.076
319.79	3.186
320.15	3.074
320.50	3.139
320.86	3.001
321.22	2.973
321.58	3.093
321.94	3.065
322.30	2.951
322.66	3.011
323.01	3.010
323.37	3.117
323.73	3.190
324.09	3.259
324.45	3.229
324.81	3.296
325.17	3.450
325.52	3.370
325.88	3.329
326.24	3.415
326.60	3.489
326.96	3.442
327.31	3.313
327.67	3.208
328.03	3.159
328.39	3.153
328.75	3.259
329.11	3.167
329.46	3.172
329.82	3.177
330.18	3.131
330.54	3.073
330.90	3.098
331.25	3.204
331.61	3.242
331.97	3.279
332.33	3.297
332.68	3.203
333.04	3.191
333.40	3.314
333.76	3.410
334.11	3.461
334.47	3.494
334.83	3.574
335.19	3.503
335.54	3.426
335.90	3.340
336.26	3.305
336.62	3.278
336.97	3.299
337.33	3.170
337.69	3.170
338.05	3.019
338.40	3.035
338.76	3.047
339.12	3.109
339.48	3.117
339.83	3.180
340.19	3.149
340.55	3.171
340.90	3.090
341.26	3.114
341.62	2.975
341.97	3.050
342.33	2.964
342.69	2.880
343.04	2.781
343.40	2.849
343.76	2.741
344.12	2.756
344.47	2.808
344.83	2.889
345.19	2.907
345.54	2.984
345.90	2.966
346.26	2.984
346.61	2.986
346.97	3.051
347.32	2.941
347.68	3.041
348.04	3.056
348.39	3.088
348.75	3.104
349.11	3.195
349.46	3.218
349.82	3.161
350.18	3.175
350.53	3.238
350.89	3.137
351.24	3.180
351.60	3.138
351.96	3.173
352.31	3.170
352.67	3.047
353.02	2.870
353.38	2.857
353.74	2.973
354.09	3.028
354.45	2.992
354.80	3.128
355.16	3.199
355.52	3.193
355.87	3.149
356.23	3.138
356.58	3.174
356.94	3.268
357.29	3.238
357.65	3.240
358.00	3.193
358.36	3.249
358.72	3.223
359.07	3.204
359.43	3.226
359.78	3.269
360.14	3.231
360.49	3.298
360.85	3.286
361.20	3.401
361.56	3.342
361.91	3.370
362.27	3.325
362.62	3.264
362.98	3.232
363.33	3.241
363.69	3.215
364.04	3.174
364.40	3.105
364.75	3.104
365.11	2.998
365.46	2.985
365.82	2.967
366.17	2.992
366.53	3.027
366.88	3.031
367.24	3.010
367.59	2.986
367.95	3.062
368.30	3.136
368.66	3.116
369.01	3.171
369.37	3.225
369.72	3.266
370.08	3.200
370.43	3.212
370.78	3.193
371.14	3.161
371.49	3.109
371.85	3.053
372.20	3.048
372.56	3.052
372.91	2.986
373.26	3.035
373.62	2.953
373.97	3.019
374.33	2.994
374.68	2.986
375.03	3.036
375.39	3.155
375.74	3.205
376.10	3.212
376.45	3.217
376.80	3.263
377.16	3.244
377.51	3.357
377.87	3.369
378.22	3.411
378.57	3.462
378.93	3.493
379.28	3.453
379.63	3.452
379.99	3.438
380.34	3.576
380.70	3.564
381.05	3.584
381.40	3.500
381.76	3.519
382.11	3.520
382.46	3.551
382.82	3.563
383.17	3.564
383.52	3.555
383.88	3.572
384.23	3.455
384.58	3.503
384.94	3.441
385.29	3.471
385.64	3.476
385.99	3.436
386.35	3.392
386.70	3.385
387.05	3.395
387.41	3.408
387.76	3.393
388.11	3.469
388.47	3.423
388.82	3.473
389.17	3.462
389.52	3.418
389.88	3.447
390.23	3.494
390.58	3.446
390.93	3.460
391.29	3.464
391.64	3.467
391.99	3.442
392.34	3.455
392.70	3.392
393.05	3.406
393.40	3.414
393.75	3.415
394.11	3.373
394.46	3.418
394.81	3.414
395.16	3.414
395.52	3.438
395.87	3.358
396.22	3.321
396.57	3.367
396.92	3.313
397.28	3.307
397.63	3.275
397.98	3.269
398.33	3.221
398.68	3.219
399.04	3.187
399.39	3.131
399.74	3.176
400.09	3.182
400.44	3.170
400.80	3.220
401.15	3.202
401.50	3.220
401.85	3.231
402.20	3.282
402.55	3.262
402.90	3.289
403.26	3.316
403.61	3.294
403.96	3.304
404.31	3.290
404.66	3.294
405.01	3.354
405.36	3.351
405.72	3.358
406.07	3.341
406.42	3.378
406.77	3.373
407.12	3.371
407.47	3.348
407.82	3.371
408.17	3.357
408.53	3.328
408.88	3.299
409.23	3.284
409.58	3.276
409.93	3.259
410.28	3.203
410.63	3.189
410.98	3.153
411.33	3.215
411.68	3.188
412.03	3.255
412.38	3.262
412.73	3.251
413.09	3.309
413.44	3.308
413.79	3.301
414.14	3.332
414.49	3.336
414.84	3.371
415.19	3.376
415.54	3.399
415.89	3.399
416.24	3.428
416.59	3.437
416.94	3.462
417.29	3.488
417.64	3.531
417.99	3.543
418.34	3.557
418.69	3.589
419.04	3.602
419.39	3.620
419.74	3.617
420.09	3.616
420.44	3.639
420.79	3.616
421.14	3.613
421.49	3.611
421.84	3.610
422.19	3.624
422.54	3.605
422.89	3.578
423.24	3.564
423.59	3.564
423.94	3.553
424.29	3.519
424.64	3.501
424.99	3.497
425.34	3.484
425.68	3.467
426.03	3.447
426.38	3.447
426.73	3.459
427.08	3.475
427.43	3.471
427.78	3.481
428.13	3.497
428.48	3.524
428.83	3.535
429.18	3.541
429.53	3.546
429.87	3.556
430.22	3.560
430.57	3.560
430.92	3.557
431.27	3.546
431.62	3.540
431.97	3.550
432.32	3.566
432.67	3.561
433.01	3.539
433.36	3.547
433.71	3.543
434.06	3.532
434.41	3.538
434.76	3.533
435.11	3.540
435.45	3.570
435.80	3.586
436.15	3.587
436.50	3.602
436.85	3.630
437.20	3.648
437.54	3.655
437.89	3.654
438.24	3.658
438.59	3.645
438.94	3.646
439.29	3.642
439.63	3.634
439.98	3.620
440.33	3.610
440.68	3.586
441.03	3.574
441.37	3.577
441.72	3.586
442.07	3.595
442.42	3.615
442.76	3.634
443.11	3.640
443.46	3.653
443.81	3.661
444.16	3.664
444.50	3.680
444.85	3.680
445.20	3.672
445.55	3.663
445.89	3.653
446.24	3.632
446.59	3.597
446.94	3.569
447.28	3.534
447.63	3.507
447.98	3.474
448.32	3.452
448.67	3.448
449.02	3.427
449.37	3.413
449.71	3.406
450.06	3.442
450.41	3.458
450.75	3.463
451.10	3.487
451.45	3.513
451.79	3.529
452.14	3.520
452.49	3.514
452.84	3.530
453.18	3.547
453.53	3.562
453.88	3.561
454.22	3.581
454.57	3.587
454.92	3.584
455.26	3.579
455.61	3.587
455.95	3.604
456.30	3.619
456.65	3.633
456.99	3.641
457.34	3.638
457.69	3.656
458.03	3.646
458.38	3.658
458.73	3.664
459.07	3.661
459.42	3.663
459.76	3.658
460.11	3.634
460.46	3.634
460.80	3.612
461.15	3.587
461.49	3.529
461.84	3.522
462.19	3.510
462.53	3.506
462.88	3.502
463.22	3.498
463.57	3.510
463.91	3.541
464.26	3.533
464.61	3.565
464.95	3.592
465.30	3.631
465.64	3.639
465.99	3.646
466.33	3.657
466.68	3.668
467.02	3.692
467.37	3.694
467.71	3.680
468.06	3.680
468.41	3.673
468.75	3.663
469.10	3.665
469.44	3.684
469.79	3.678
470.13	3.666
470.48	3.658
470.82	3.653
471.17	3.651
471.51	3.636
471.86	3.620
472.20	3.612
472.55	3.614
472.89	3.587
473.23	3.563
473.58	3.544
473.92	3.554
474.27	3.562
474.61	3.538
474.96	3.519
475.30	3.519
475.65	3.525
475.99	3.524
476.34	3.522
476.68	3.536
477.02	3.538
477.37	3.537
477.71	3.528
478.06	3.544
478.40	3.603
478.75	3.685
479.09	3.777
479.43	3.865
479.78	3.959
480.12	4.051
480.47	4.148
480.81	4.243
481.15	4.340
481.50	4.438
481.84	4.539
482.19	4.645
482.53	4.739
482.87	4.805
483.22	4.830
483.56	4.810
483.90	4.765
484.25	4.689
484.59	4.599
484.94	4.538
485.28	4.480
485.62	4.394
485.97	4.287
486.31	4.192
486.65	4.117
487.00	4.079
487.34	4.078
487.68	4.098
488.03	4.135
488.37	4.190
488.71	4.194
489.06	4.191
489.40	4.186
489.74	4.192
490.09	4.177
490.43	4.164
490.77	4.151
491.11	4.129
491.46	4.103
491.80	4.083
492.14	4.053
492.49	4.041
492.83	4.019
493.17	4.011
493.51	3.976
493.86	3.969
494.20	3.971
494.54	3.980
494.88	4.002
495.23	4.024
495.57	4.043
495.91	4.069
496.25	4.089
496.60	4.116
496.94	4.131
497.28	4.163
497.62	4.180
497.97	4.211
498.31	4.228
498.65	4.260
498.99	4.314
499.33	4.347
499.68	4.400
500.02	4.444
500.36	4.475
500.70	4.511
501.04	4.554
501.39	4.604
501.73	4.645
502.07	4.695
502.41	4.756
502.75	4.821
503.09	4.904
503.44	4.946
503.78	5.015
504.12	5.085
504.46	5.184
504.80	5.273
505.14	5.355
505.49	5.439
505.83	5.534
506.17	5.613
506.51	5.674
506.85	5.763
507.19	5.859
507.53	5.953
507.87	6.047
508.22	6.119
508.56	6.192
508.90	6.287
509.24	6.366
509.58	6.435
509.92	6.503
510.26	6.587
510.60	6.642
510.94	6.718
511.28	6.788
511.63	6.860
511.97	6.949
512.31	7.039
512.65	7.130
512.99	7.217
513.33	7.317
513.67	7.464
514.01	7.581
514.35	7.700
514.69	7.810
515.03	7.927
515.37	8.026
515.71	8.123
516.05	8.218
516.39	8.312
516.73	8.388
517.07	8.468
517.41	8.514
517.75	8.562
518.09	8.615
518.43	8.669
518.77	8.706
519.11	8.765
519.45	8.802
519.79	8.847
520.13	8.891
520.47	8.955
520.81	9.023
521.15	9.090
521.49	9.182
521.83	9.271
522.17	9.346
522.51	9.468
522.85	9.582
523.19	9.702
523.53	9.847
523.87	10.013
524.21	10.189
524.55	10.337
524.89	10.481
525.23	10.614
525.57	10.735
525.91	10.872
526.25	10.965
526.58	11.057
526.92	11.148
527.26	11.218
527.60	11.248
527.94	11.268
528.28	11.289
528.62	11.303
528.96	11.307
529.30	11.304
529.64	11.294
529.97	11.297
530.31	11.287
530.65	11.270
530.99	11.251
531.33	11.277
531.67	11.299
532.01	11.323
532.35	11.337
532.68	11.347
533.02	11.370
533.36	11.369
533.70	11.361
534.04	11.363
534.38	11.376
534.71	11.399
535.05	11.394
535.39	11.382
535.73	11.389
536.07	11.413
536.41	11.450
536.74	11.505
537.08	11.582
537.42	11.689
537.76	11.773
538.10	11.871
538.43	11.954
538.77	12.042
539.11	12.132
539.45	12.201
539.79	12.270
540.12	12.329
540.46	12.366
540.80	12.390
541.14	12.382
541.47	12.378
541.81	12.362
542.15	12.356
542.49	12.329
542.82	12.310
543.16	12.277
543.50	12.250
543.84	12.226
544.17	12.207
544.51	12.178
544.85	12.164
545.18	12.165
545.52	12.166
545.86	12.162
546.20	12.175
546.53	12.173
546.87	12.173
547.21	12.177
547.54	12.166
547.88	12.176
548.22	12.193
548.55	12.214
548.89	12.239
549.23	12.265
549.56	12.302
549.90	12.312
550.24	12.354
550.57	12.403
550.91	12.409
551.25	12.447
551.58	12.473
551.92	12.505
552.26	12.530
552.59	12.554
552.93	12.572
553.27	12.577
553.60	12.582
553.94	12.594
554.27	12.630
554.61	12.671
554.95	12.687
555.28	12.682
555.62	12.688
555.95	12.718
556.29	12.710
556.63	12.746
556.96	12.759
557.30	12.840
557.63	12.854
557.97	12.843
558.31	12.846
558.64	12.866
558.98	12.924
559.31	12.967
559.65	12.981
559.98	13.044
560.32	13.055
560.65	13.067
560.99	13.047
561.33	13.071
561.66	13.066
562.00	13.094
562.33	13.118
562.67	13.119
563.00	13.130
563.34	13.178
563.67	13.200
564.01	13.217
564.34	13.270
564.68	13.295
565.01	13.289
565.35	13.338
565.68	13.373
566.02	13.391
566.35	13.416
566.69	13.438
567.02	13.436
567.36	13.442
567.69	13.450
568.03	13.432
568.36	13.456
568.69	13.504
569.03	13.516
569.36	13.514
569.70	13.544
570.03	13.560
570.37	13.569
570.70	13.573
571.04	13.582
571.37	13.593
571.70	13.621
572.04	13.612
572.37	13.628
572.71	13.640
573.04	13.654
573.37	13.652
573.71	13.657
574.04	13.679
574.38	13.682
574.71	13.686
575.04	13.679
575.38	13.675
575.71	13.707
576.05	13.685
576.38	13.692
576.71	13.671
577.05	13.641
577.38	13.643
577.71	13.619
578.05	13.597
578.38	13.588
578.71	13.615
579.05	13.633
579.38	13.605
579.71	13.612
580.05	13.625
580.38	13.664
580.71	13.697
581.05	13.682
581.38	13.681
581.71	13.728
582.05	13.712
582.38	13.700
582.71	13.709
583.04	13.738
583.38	13.750
583.71	13.757
584.04	13.763
584.38	13.789
584.71	13.806
585.04	13.853
585.37	13.853
585.71	13.917
586.04	13.955
586.37	13.956
586.70	13.963
587.04	13.993
587.37	14.028
587.70	14.050
588.03	14.062
588.37	14.104
588.70	14.096
589.03	14.097
589.36	14.105
589.69	14.111
590.03	14.124
590.36	14.130
590.69	14.107
591.02	14.073
591.35	14.056
591.69	14.042
592.02	14.006
592.35	14.037
592.68	14.064
593.01	14.040
593.35	14.053
593.68	14.071
594.01	14.060
594.34	14.102
594.67	14.137
595.00	14.138
595.34	14.142
595.67	14.156
596.00	14.124
596.33	14.090
596.66	14.073
596.99	14.035
597.32	14.029
597.65	14.021
597.99	13.979
598.32	13.936
598.65	13.945
598.98	13.939
599.31	13.944
599.64	13.963
599.97	13.977
600.30	14.023
600.63	14.036
600.96	14.056
601.30	14.089
601.63	14.104
601.96	14.122
602.29	14.140
602.62	14.133
602.95	14.143
603.28	14.145
603.61	14.156
603.94	14.136
604.27	14.152
604.60	14.129
604.93	14.127
605.26	14.131
605.59	14.123
605.92	14.125
606.25	14.133
606.58	14.108
606.91	14.104
607.24	14.111
607.57	14.095
607.90	14.104
608.23	14.145
608.56	14.148
608.89	14.118
609.22	14.120
609.55	14.105
609.88	14.095
610.21	14.099
610.54	14.080
610.87	14.067
611.20	14.115
611.53	14.082
611.86	14.020
612.19	14.004
612.52	14.000
612.85	14.016
613.18	13.978
613.51	13.999
613.84	13.975
614.17	13.998
614.49	13.992
614.82	13.962
615.15	13.948
615.48	13.950
615.81	13.916
616.14	13.942
616.47	13.954
616.80	13.977
617.13	13.968
617.46	14.008
617.78	13.966
618.11	13.986
618.44	13.982
618.77	13.982
619.10	13.940
619.43	13.911
619.76	13.887
620.09	13.820
620.41	13.802
620.74	13.779
621.07	13.747
621.40	13.772
621.73	13.766
622.06	13.770
622.38	13.795
622.71	13.851
623.04	13.914
623.37	13.954
623.70	13.973
624.02	13.955
624.35	13.971
624.68	13.978
625.01	13.985
625.34	13.968
625.66	13.955
625.99	13.964
626.32	13.973
626.65	13.939
626.98	13.914
627.30	13.929
627.63	13.949
627.96	13.941
628.29	13.941
628.61	13.916
628.94	13.908
629.27	13.909
629.60	13.891
629.92	13.828
630.25	13.815
630.58	13.816
630.91	13.789
631.23	13.785
631.56	13.756
631.89	13.737
632.21	13.723
632.54	13.702
632.87	13.703
633.19	13.704
633.52	13.702
633.85	13.724
634.18	13.701
634.50	13.668
634.83	13.649
635.16	13.658
635.48	13.631
635.81	13.649
636.14	13.618
636.46	13.577
636.79	13.535
637.11	13.522
637.44	13.495
637.77	13.457
638.09	13.438
638.42	13.391
638.75	13.366
639.07	13.351
639.40	13.307
639.73	13.284
640.05	13.297
640.38	13.297
640.70	13.313
641.03	13.298
641.36	13.311
641.68	13.342
642.01	13.348
642.33	13.388
642.66	13.411
642.98	13.396
643.31	13.427
643.64	13.434
643.96	13.467
644.29	13.475
644.61	13.508
644.94	13.511
645.26	13.524
645.59	13.512
645.91	13.485
646.24	13.521
646.56	13.554
646.89	13.597
647.22	13.618
647.54	13.593
647.87	13.577
648.19	13.535
648.52	13.498
648.84	13.461
649.17	13.508
649.49	13.500
649.82	13.412
650.14	13.399
650.47	13.356
650.79	13.318
651.11	13.315
651.44	13.271
651.76	13.254
652.09	13.270
652.41	13.245
652.74	13.222
653.06	13.196
653.39	13.289
653.71	13.274
654.04	13.285
654.36	13.247
654.68	13.253
655.01	13.208
655.33	13.218
655.66	13.260
655.98	13.257
656.30	13.269
656.63	13.290
656.95	13.227
657.28	13.237
657.60	13.200
657.92	13.186
658.25	13.101
658.57	13.140
658.90	13.111
659.22	13.059
659.54	13.034
659.87	12.960
660.19	12.906
660.51	12.864
660.84	12.800
661.16	12.846
661.48	12.765
661.81	12.739
662.13	12.699
662.45	12.667
662.78	12.595
663.10	12.602
663.42	12.577
663.75	12.572
664.07	12.604
664.39	12.555
664.72	12.390
665.04	12.458
665.36	12.476
665.69	12.478
666.01	12.522
666.33	12.521
666.65	12.527
666.98	12.499
667.30	12.486
667.62	12.441
667.94	12.441
668.27	12.527
668.59	12.477
668.91	12.498
669.23	12.449
669.56	12.387
669.88	12.334
670.20	12.255
670.52	12.218
670.85	12.201
671.17	12.202
671.49	12.195
671.81	12.143
672.13	12.223
672.46	12.146
672.78	12.117
673.10	12.091
673.42	12.104
673.74	12.093
674.07	12.132
674.39	12.145
674.71	12.150
675.03	12.122
675.35	12.146
675.67	12.062
676.00	12.120
676.32	12.136
676.64	12.215
676.96	12.208
677.28	12.288
677.60	12.294
677.92	12.321
678.25	12.342
678.57	12.346
678.89	12.355
679.21	12.402
679.53	12.375
679.85	12.376
680.17	12.280
680.49	12.289
680.81	12.202
681.13	12.185
681.46	12.101
681.78	11.990
682.10	12.017
682.42	12.031
682.74	12.019
683.06	12.036
683.38	12.092
683.70	12.152
684.02	12.243
684.34	12.306
684.66	12.385
684.98	12.414
685.30	12.484
685.62	12.504
685.94	12.510
686.26	12.504
686.58	12.494
686.90	12.544
687.22	12.559
687.54	12.553
687.86	12.527
688.18	12.440
688.50	12.342
688.82	12.323
689.14	12.305
689.46	12.188
689.78	12.116
690.10	12.058
690.42	11.908
690.74	11.850
691.06	11.798
691.38	11.761
691.70	11.693
692.02	11.800
692.34	11.737
692.66	11.686
692.98	11.684
693.30	11.667
693.62	11.659
693.94	11.730
694.26	11.743
694.57	11.724
694.89	11.729
695.21	11.854
695.53	11.850
695.85	11.991
696.17	12.039
696.49	12.115
696.81	12.177
697.13	12.201
697.44	12.165
697.76	12.140
698.08	12.152
698.40	12.156
698.72	12.048
699.04	11.987
699.36	11.821
699.67	11.771
699.99	11.671
700.31	11.504
700.63	11.405
700.95	11.297
701.27	11.100
701.58	10.901
701.90	10.718
702.22	10.662
702.54	10.599
702.86	10.554
703.17	10.394
703.49	10.220
703.81	10.230
704.13	10.123
704.45	10.090
704.76	10.167
705.08	10.172
705.40	10.159
705.72	10.050
706.03	10.040
706.35	9.941
706.67	9.928
706.99	9.994
707.30	9.975
707.62	9.999
707.94	9.947
708.26	10.011
708.57	10.003
708.89	10.072
709.21	10.102
709.53	9.977
709.84	10.047
710.16	10.008
710.48	10.099
710.79	10.129
711.11	10.210
711.43	10.268
711.74	10.260
712.06	10.194
712.38	10.195
712.69	10.287
713.01	10.482
713.33	10.543
713.64	10.702
713.96	10.687
714.28	10.792
714.59	10.805
714.91	10.878
715.23	10.969
715.54	11.172
715.86	11.335
716.17	11.326
716.49	11.320
716.81	11.295
717.12	11.284
717.44	11.236
717.76	11.146
718.07	11.109
718.39	10.987
718.70	10.898
719.02	10.735
719.33	10.516
719.65	10.476
719.97	10.355
720.28	10.309
720.60	10.307
720.91	10.258
721.23	10.249
721.54	10.225
721.86	10.326
722.17	10.311
722.49	10.355
722.81	10.397
723.12	10.546
723.44	10.676
723.75	10.684
724.07	10.641
724.38	10.707
724.70	10.677
725.01	10.713
725.33	10.657
725.64	10.673
725.96	10.711
726.27	10.788
726.59	10.724
726.90	10.639
727.22	10.643
727.53	10.680
727.84	10.682
728.16	10.637
728.47	10.562
728.79	10.424
729.10	10.323
729.42	10.340
729.73	10.270
730.05	10.153
730.36	10.009
730.67	9.913
730.99	9.600
731.30	9.477
731.62	9.350
731.93	9.258
732.24	9.312
732.56	9.150
732.87	8.920
733.19	8.775
733.50	8.674
733.81	8.593
734.13	8.446
734.44	8.518
734.76	8.323
735.07	8.168
735.38	8.034
735.70	7.829
736.01	7.823
736.32	7.675
736.64	7.430
736.95	7.286
737.26	7.299
737.58	7.324
737.89	7.127
738.20	7.153
738.52	7.108
738.83	7.075
739.14	6.959
739.45	6.855
739.77	6.683
740.08	6.789
740.39	6.672
740.71	6.504
741.02	6.316
741.33	6.421
741.64	6.118
741.96	5.971
742.27	5.745
742.58	5.712
742.90	5.404
743.21	5.427
743.52	5.010
743.83	4.865
744.14	4.477
744.46	4.559
744.77	4.364
745.08	4.436
745.39	4.474
745.71	4.375
746.02	4.170
746.33	4.501
746.64	4.598
746.95	4.682
747.27	4.740
747.58	4.996
747.89	4.733
748.20	4.768
748.51	4.830
748.82	4.862
749.14	4.982
749.45	5.043
749.76	4.731
750.07	4.555
750.38	4.554
750.69	4.521
751.01	4.660
751.32	4.713
751.63	4.619
751.94	4.703
752.25	4.678
752.56	4.495
752.87	4.616
753.18	4.855
753.49	4.721
753.81	4.731
754.12	4.803
754.43	4.838
754.74	5.024
755.05	5.563
755.36	5.854
755.67	6.351
755.98	6.932
756.29	7.504
756.60	7.980
756.91	8.899
757.22	9.543
757.53	10.136
757.84	10.724
758.15	11.371
758.46	11.608
758.77	11.856
759.09	12.034
759.40	12.259
759.71	12.435
760.02	12.548
760.33	12.655
760.64	12.761
760.95	12.808
761.26	12.712
761.57	12.492
761.88	12.504
762.18	12.415
762.49	12.337
762.80	12.279
763.11	11.995
763.42	11.730
763.73	11.305
764.04	10.967
764.35	10.620
764.66	10.158
764.97	9.723
765.28	9.031
765.59	8.414
765.90	7.790
766.21	7.251
766.52	6.709
766.83	6.023
767.14	5.511
767.44	4.969
767.75	4.310
768.06	3.948
768.37	3.532
768.68	3.282
768.99	3.121
769.30	2.930
769.61	2.455
769.91	2.197
770.22	2.250
770.53	1.924
770.84	1.837
771.15	1.756
771.46	1.386
771.77	1.370
772.07	1.235
772.38	1.004
772.69	0.919
773.00	1.043
773.31	1.133
773.61	0.903
773.92	1.351
774.23	1.349
774.54	1.549
774.85	1.846
775.15	1.892
775.46	1.781
775.77	1.921
776.08	1.723
776.39	1.450
776.69	1.430
777.00	1.378
777.31	1.367
777.62	1.123
777.92	0.744
778.23	0.436
778.54	0.287
778.85	0.401
779.15	0.450
779.46	0.480
779.77	0.545
780.07	0.500
780.38	0.946
780.69	0.368
781.00	0.484
781.30	0.634
781.61	0.960
781.92	1.270
782.22	1.315
782.53	1.181
782.84	1.622
783.14	1.866
783.45	1.961
783.76	1.811
784.06	2.267
784.37	2.478
784.68	2.898
784.98	3.211
785.29	3.285
785.60	3.580
785.90	3.900
786.21	3.783
786.51	4.116
786.82	4.173
787.13	4.443
787.43	4.706
787.74	5.165
788.04	4.978
788.35	4.985
788.66	4.919
788.96	4.509
789.27	4.437
789.57	4.485
789.88	3.987
790.19	3.833
790.49	3.622
790.80	3.613
791.10	3.170
791.41	3.359
791.71	3.207
792.02	3.370
792.32	3.763
792.63	3.899
792.93	3.754
793.24	4.300
793.54	4.547
793.85	5.241
794.15	5.305
794.46	5.459
794.76	5.563
795.07	5.833
795.37	6.176
795.68	6.369
795.98	6.133
796.29	6.303
796.59	6.319
796.90	6.425
797.20	6.030
797.51	6.326
797.81	6.348
798.12	6.145
798.42	5.796
798.72	5.515
799.03	5.818
799.33	6.207
799.64	6.308
799.94	6.009
800.25	6.142
800.55	6.083
800.85	5.566
801.16	5.502
801.46	5.588
801.77	6.043
802.07	6.555
802.37	6.032
802.68	5.994
802.98	6.092
803.28	6.219
803.59	5.990
803.89	5.465
804.20	5.574
804.50	5.599
804.80	5.578
805.11	5.416
805.41	4.992
805.71	5.012
806.02	4.773
806.32	4.874
806.62	5.254
806.93	5.348
807.23	6.195
807.53	6.286
807.83	6.462
808.14	6.914
808.44	7.208
808.74	6.792
809.05	7.247
809.35	7.463
809.65	7.497
809.95	7.309
810.26	7.911
810.56	7.635
810.86	7.711
811.16	7.517
811.47	6.964
811.77	6.804
812.07	7.405
812.37	7.779
812.68	8.261
812.98	8.672
813.28	8.841
813.58	8.783
813.88	9.282
814.19	9.754
814.49	10.441
814.79	11.069
815.09	11.544
815.39	11.903
815.70	11.827
816.00	11.822
816.30	12.122
816.60	11.793
816.90	12.046
817.20	12.157
817.50	12.436
817.81	12.605
818.11	13.147
818.41	13.310
818.71	13.576
819.01	13.923
819.31	14.212
819.61	14.289
819.92	14.470
820.22	14.534
820.52	14.655
820.82	14.604
821.12	14.704
821.42	14.698
821.72	14.782
822.02	14.811
822.32	14.810
822.62	14.811
822.92	14.819
823.22	14.874
823.52	14.871
823.83	14.762
824.13	14.762
824.43	14.662
824.73	14.605
825.03	14.510
825.33	14.398
825.63	14.186
825.93	14.069
826.23	13.860
826.53	13.773
826.83	13.616
827.13	13.648
827.43	13.609
827.73	13.393
828.03	13.213
828.33	13.092
828.63	12.791
828.93	12.595
829.23	12.469
829.53	12.110
829.83	12.018
830.13	11.997
830.42	11.653
830.72	11.749
831.02	12.136
831.32	11.859
831.62	11.805
831.92	12.027
832.22	12.134
832.52	12.044
832.82	12.507
833.12	12.338
833.42	12.400
833.72	12.575
834.01	12.433
834.31	12.508
834.61	12.591
834.91	12.585
835.21	12.507
835.51	12.191
835.81	11.932
836.11	11.474
836.40	10.974
836.70	10.773
837.00	10.192
837.30	10.106
837.60	9.592
837.90	9.657
838.19	9.280
838.49	9.067
838.79	8.961
839.09	9.234
839.39	9.342
839.68	9.327
839.98	8.658
840.28	8.727
840.58	8.195
840.88	8.083
841.17	8.175
841.47	8.320
841.77	7.381
842.07	8.525
842.36	7.520
842.66	6.602
842.96	5.980
843.26	5.608
843.55	4.372
843.85	3.137
844.15	2.265
844.45	1.481
844.74	-0.398
845.04	-1.482
845.34	-4.151
845.63	-3.932
845.93	-3.593
846.23	-2.540
846.53	-2.999
846.82	-1.839
847.12	0.317
847.42	0.032
847.71	0.325
848.01	2.401
848.31	4.576
848.60	5.041
848.90	3.896
849.19	3.926
849.49	4.231
849.79	5.882
850.08	6.210
850.38	6.313
850.68	5.854
850.97	5.444
851.27	4.801
851.56	5.622
851.86	6.116
852.16	7.765
852.45	6.652
852.75	6.754
853.04	5.989
853.34	5.076
853.64	4.843
853.93	3.489
854.23	2.866
854.52	2.416
854.82	3.645
855.11	3.422
855.41	3.537
855.70	4.258
856.00	2.530
856.30	1.823
856.59	2.881
856.89	3.560
857.18	5.412
857.48	5.461
857.77	5.772
858.07	1.416
858.36	1.031
858.66	2.032
858.95	1.995
859.25	3.477
859.54	2.129
859.84	1.500
860.13	0.223
860.42	-0.290
860.72	-0.590
861.01	-0.366
861.31	1.165
861.60	1.931
861.90	1.011
862.19	0.746
862.49	-0.102
862.78	2.699
863.07	1.656
863.37	1.954
863.66	3.209
863.96	4.727
864.25	3.385
864.54	3.540
864.84	3.743
865.13	4.008
865.43	4.752
865.72	-7.490
866.01	-3.457
866.31	5.124
866.60	12.256
866.89	6.184
>>>>>End Spectral Data<<<<<
