OOIBase32 Version 2.0.0.6 Data File
++++++++++++++++++++++++++++++++++++
Date: 01-19-2012, 15:25:16
User: Valued Ocean Optics Customer
Spectrometer Serial Number: USB2E2917
Spectrometer Channel: Master
Integration Time (msec): 5
Spectra Averaged: 10
Boxcar Smoothing: 5
Correct for Electrical Dark: Enabled
Time Normalized: Disabled
Dual-beam Reference: Disabled
Reference Channel: Master
Temperature: Not acquired
Spectrometer Type: S2000
ADC Type: USB2000
Number of Pixels in File: 2048
Graph Title: 
>>>>>Begin Spectral Data<<<<<
180.30	0.000
180.67	0.000
181.03	4050.080
181.40	36.729
181.77	-51.002
182.14	47.132
182.51	63.952
182.88	-176.487
183.25	43.208
183.62	115.976
183.99	-29.538
184.36	39.751
184.73	400.529
185.10	34.970
185.46	81.386
185.83	15.000
186.20	-19.977
186.57	-9.085
186.94	-859.091
187.31	-44.479
187.68	137.466
188.05	60.700
188.42	48.663
188.78	99.610
189.15	84.273
189.52	117.091
189.89	143.130
190.26	105.767
190.63	80.710
191.00	60.538
191.37	32.154
191.73	38.442
192.10	27.500
192.47	28.440
192.84	-3.479
193.21	12.793
193.58	24.973
193.94	5.751
194.31	6.348
194.68	21.310
195.05	29.139
195.42	14.704
195.79	-5.286
196.15	6.119
196.52	8.436
196.89	16.190
197.26	-11.496
197.63	-21.863
198.00	-21.831
198.36	-8.634
198.73	2.591
199.10	5.160
199.47	19.296
199.84	23.160
200.20	21.085
200.57	24.872
200.94	27.020
201.31	34.398
201.68	30.821
202.04	39.506
202.41	28.513
202.78	-4.945
203.15	-23.804
203.51	-17.739
203.88	-31.569
204.25	-12.331
204.62	-2.740
204.98	-19.375
205.35	-20.509
205.72	9.018
206.09	11.847
206.46	19.395
206.82	64.589
207.19	71.002
207.56	46.751
207.92	43.339
208.29	19.880
208.66	-16.961
209.03	-25.673
209.39	-14.329
209.76	-28.777
210.13	-45.566
210.50	-23.637
210.86	-33.352
211.23	-40.185
211.60	-40.342
211.96	-38.670
212.33	-11.970
212.70	-25.060
213.07	11.060
213.43	11.513
213.80	14.872
214.17	7.213
214.53	7.479
214.90	9.706
215.27	8.182
215.63	7.391
216.00	11.973
216.37	-1.719
216.74	25.776
217.10	12.176
217.47	5.088
217.84	9.220
218.20	13.972
218.57	1.320
218.94	-0.773
219.30	-1.132
219.67	4.898
220.04	16.135
220.40	19.973
220.77	15.555
221.13	10.636
221.50	8.704
221.87	3.039
222.23	4.662
222.60	6.105
222.97	7.953
223.33	10.822
223.70	8.082
224.07	4.870
224.43	2.791
224.80	3.785
225.16	4.355
225.53	5.736
225.90	4.618
226.26	4.305
226.63	3.660
226.99	3.128
227.36	2.039
227.73	1.654
228.09	1.456
228.46	1.881
228.82	2.753
229.19	2.089
229.56	1.601
229.92	2.448
230.29	2.484
230.65	1.777
231.02	2.252
231.38	2.635
231.75	2.144
232.12	1.371
232.48	0.261
232.85	-0.118
233.21	1.025
233.58	2.126
233.94	1.373
234.31	0.182
234.68	1.128
235.04	1.482
235.41	2.130
235.77	2.782
236.14	2.769
236.50	3.333
236.87	2.769
237.23	2.800
237.60	0.797
237.96	1.882
238.33	2.825
238.69	3.197
239.06	2.444
239.42	1.796
239.79	1.530
240.15	2.188
240.52	2.523
240.88	3.000
241.25	3.234
241.61	3.811
241.98	3.596
242.34	3.180
242.71	2.827
243.07	2.957
243.44	3.477
243.80	3.611
244.17	3.174
244.53	3.414
244.90	3.172
245.26	2.910
245.63	3.026
245.99	2.988
246.36	3.099
246.72	3.307
247.09	3.233
247.45	2.929
247.81	3.194
248.18	3.560
248.54	3.323
248.91	3.210
249.27	3.291
249.64	3.096
250.00	3.074
250.36	3.238
250.73	3.060
251.09	3.293
251.46	3.457
251.82	2.818
252.19	1.736
252.55	1.542
252.91	1.756
253.28	1.546
253.64	1.477
254.01	1.636
254.37	1.283
254.73	1.571
255.10	1.552
255.46	1.519
255.83	1.741
256.19	2.171
256.55	2.594
256.92	2.685
257.28	2.655
257.65	2.784
258.01	2.726
258.37	2.791
258.74	2.787
259.10	2.916
259.46	2.939
259.83	2.859
260.19	3.026
260.55	2.738
260.92	2.666
261.28	2.836
261.64	2.688
262.01	2.579
262.37	2.491
262.73	2.261
263.10	1.912
263.46	1.721
263.82	1.671
264.19	1.680
264.55	2.058
264.91	2.009
265.28	2.289
265.64	2.169
266.00	2.516
266.37	2.465
266.73	2.497
267.09	2.622
267.46	2.881
267.82	2.952
268.18	2.936
268.54	2.942
268.91	3.143
269.27	2.743
269.63	2.870
270.00	2.562
270.36	2.578
270.72	2.780
271.08	2.755
271.45	2.631
271.81	2.462
272.17	2.425
272.53	2.155
272.90	2.104
273.26	2.206
273.62	2.059
273.98	2.388
274.35	2.684
274.71	2.409
275.07	2.531
275.43	2.463
275.80	2.720
276.16	2.565
276.52	2.850
276.88	2.700
277.25	2.793
277.61	2.972
277.97	2.860
278.33	2.668
278.69	2.735
279.06	2.560
279.42	2.647
279.78	2.458
280.14	2.737
280.50	2.633
280.87	2.745
281.23	2.497
281.59	2.405
281.95	2.184
282.31	2.095
282.68	2.185
283.04	2.225
283.40	2.257
283.76	2.450
284.12	2.252
284.48	2.163
284.85	2.247
285.21	2.537
285.57	2.492
285.93	2.618
286.29	2.700
286.65	2.557
287.02	2.570
287.38	2.520
287.74	2.570
288.10	2.649
288.46	2.882
288.82	2.705
289.18	2.359
289.54	2.272
289.91	2.072
290.27	2.137
290.63	2.174
290.99	2.439
291.35	2.533
291.71	2.387
292.07	2.441
292.43	2.275
292.79	2.392
293.16	2.695
293.52	2.864
293.88	2.866
294.24	2.794
294.60	2.902
294.96	2.737
295.32	2.759
295.68	2.863
296.04	2.691
296.40	2.662
296.76	2.637
297.12	2.580
297.49	2.677
297.85	2.773
298.21	2.820
298.57	2.678
298.93	2.947
299.29	2.831
299.65	2.806
300.01	2.811
300.37	2.712
300.73	2.634
301.09	2.512
301.45	2.316
301.81	2.471
302.17	2.338
302.53	2.314
302.89	2.135
303.25	2.168
303.61	2.039
303.97	2.250
304.33	2.355
304.69	2.312
305.05	2.544
305.41	2.679
305.77	2.414
306.13	2.327
306.49	2.396
306.85	2.168
307.21	2.036
307.57	2.035
307.93	1.865
308.29	1.830
308.65	1.733
309.01	1.529
309.37	1.448
309.73	1.418
310.09	1.450
310.45	1.297
310.81	1.305
311.17	1.338
311.53	1.264
311.89	1.260
312.25	1.001
312.61	1.060
312.96	0.962
313.32	0.950
313.68	0.883
314.04	0.843
314.40	0.743
314.76	0.772
315.12	0.607
315.48	0.507
315.84	0.321
316.20	0.346
316.56	0.174
316.92	0.082
317.27	-0.201
317.63	-0.194
317.99	-0.318
318.35	-0.316
318.71	-0.533
319.07	-0.588
319.43	-0.595
319.79	-0.608
320.15	-0.565
320.50	-0.528
320.86	-0.552
321.22	-0.630
321.58	-0.798
321.94	-0.822
322.30	-0.893
322.66	-0.946
323.01	-0.951
323.37	-1.078
323.73	-1.176
324.09	-1.291
324.45	-1.502
324.81	-1.589
325.17	-1.659
325.52	-1.698
325.88	-1.861
326.24	-2.117
326.60	-2.090
326.96	-2.231
327.31	-2.350
327.67	-2.385
328.03	-2.450
328.39	-2.460
328.75	-2.596
329.11	-2.538
329.46	-2.551
329.82	-2.465
330.18	-2.274
330.54	-2.375
330.90	-2.292
331.25	-2.305
331.61	-2.287
331.97	-2.247
332.33	-2.081
332.68	-1.965
333.04	-1.933
333.40	-1.931
333.76	-1.874
334.11	-1.756
334.47	-1.799
334.83	-1.754
335.19	-1.561
335.54	-1.618
335.90	-1.660
336.26	-1.748
336.62	-1.797
336.97	-1.819
337.33	-1.662
337.69	-1.781
338.05	-1.942
338.40	-1.984
338.76	-2.092
339.12	-2.130
339.48	-2.090
339.83	-1.965
340.19	-1.981
340.55	-1.932
340.90	-1.955
341.26	-2.003
341.62	-1.955
341.97	-1.902
342.33	-1.756
342.69	-1.733
343.04	-1.728
343.40	-1.625
343.76	-1.651
344.12	-1.560
344.47	-1.431
344.83	-1.434
345.19	-1.451
345.54	-1.430
345.90	-1.420
346.26	-1.516
346.61	-1.576
346.97	-1.619
347.32	-1.719
347.68	-1.772
348.04	-1.833
348.39	-1.994
348.75	-2.033
349.11	-2.101
349.46	-2.155
349.82	-2.194
350.18	-2.192
350.53	-2.150
350.89	-2.205
351.24	-2.316
351.60	-2.261
351.96	-2.304
352.31	-2.229
352.67	-2.082
353.02	-2.078
353.38	-1.985
353.74	-1.874
354.09	-1.813
354.45	-1.644
354.80	-1.505
355.16	-1.318
355.52	-1.305
355.87	-1.189
356.23	-1.158
356.58	-1.101
356.94	-1.032
357.29	-1.008
357.65	-1.026
358.00	-0.949
358.36	-0.999
358.72	-1.017
359.07	-0.961
359.43	-0.979
359.78	-0.954
360.14	-0.962
360.49	-1.026
360.85	-1.064
361.20	-1.083
361.56	-1.151
361.91	-1.218
362.27	-1.293
362.62	-1.325
362.98	-1.441
363.33	-1.489
363.69	-1.683
364.04	-1.772
364.40	-1.875
364.75	-1.865
365.11	-1.960
365.46	-1.984
365.82	-2.104
366.17	-2.078
366.53	-2.137
366.88	-2.148
367.24	-2.160
367.59	-1.987
367.95	-1.937
368.30	-1.859
368.66	-1.880
369.01	-1.777
369.37	-1.652
369.72	-1.500
370.08	-1.429
370.43	-1.354
370.78	-1.348
371.14	-1.233
371.49	-1.226
371.85	-1.146
372.20	-1.091
372.56	-0.995
372.91	-1.048
373.26	-1.035
373.62	-1.106
373.97	-1.215
374.33	-1.257
374.68	-1.282
375.03	-1.317
375.39	-1.395
375.74	-1.438
376.10	-1.475
376.45	-1.548
376.80	-1.515
377.16	-1.506
377.51	-1.418
377.87	-1.315
378.22	-1.175
378.57	-1.002
378.93	-0.857
379.28	-0.712
379.63	-0.562
379.99	-0.430
380.34	-0.289
380.70	-0.149
381.05	-0.046
381.40	0.034
381.76	0.101
382.11	0.074
382.46	0.097
382.82	0.064
383.17	0.075
383.52	0.039
383.88	0.007
384.23	-0.003
384.58	0.023
384.94	-0.047
385.29	-0.027
385.64	0.003
385.99	0.056
386.35	0.094
386.70	0.034
387.05	-0.033
387.41	-0.103
387.76	-0.132
388.11	-0.128
388.47	-0.193
388.82	-0.141
389.17	-0.160
389.52	-0.163
389.88	-0.164
390.23	-0.127
390.58	-0.009
390.93	0.109
391.29	0.218
391.64	0.273
391.99	0.303
392.34	0.364
392.70	0.317
393.05	0.371
393.40	0.361
393.75	0.311
394.11	0.179
394.46	0.095
394.81	-0.018
395.16	-0.119
395.52	-0.221
395.87	-0.401
396.22	-0.642
396.57	-0.798
396.92	-1.045
397.28	-1.240
397.63	-1.448
397.98	-1.609
398.33	-1.794
398.68	-1.944
399.04	-2.047
399.39	-2.153
399.74	-2.166
400.09	-2.129
400.44	-2.159
400.80	-2.121
401.15	-2.074
401.50	-1.974
401.85	-1.897
402.20	-1.858
402.55	-1.810
402.90	-1.782
403.26	-1.730
403.61	-1.736
403.96	-1.740
404.31	-1.688
404.66	-1.670
405.01	-1.711
405.36	-1.740
405.72	-1.780
406.07	-1.780
406.42	-1.817
406.77	-1.879
407.12	-1.935
407.47	-1.961
407.82	-1.970
408.17	-2.027
408.53	-2.075
408.88	-2.142
409.23	-2.189
409.58	-2.230
409.93	-2.266
410.28	-2.308
410.63	-2.314
410.98	-2.380
411.33	-2.359
411.68	-2.357
412.03	-2.326
412.38	-2.263
412.73	-2.167
413.09	-2.011
413.44	-1.837
413.79	-1.677
414.14	-1.472
414.49	-1.278
414.84	-1.034
415.19	-0.844
415.54	-0.648
415.89	-0.441
416.24	-0.266
416.59	-0.072
416.94	0.057
417.29	0.152
417.64	0.252
417.99	0.357
418.34	0.434
418.69	0.504
419.04	0.589
419.39	0.641
419.74	0.692
420.09	0.715
420.44	0.745
420.79	0.740
421.14	0.749
421.49	0.736
421.84	0.707
422.19	0.688
422.54	0.654
422.89	0.577
423.24	0.499
423.59	0.405
423.94	0.316
424.29	0.183
424.64	0.096
424.99	-0.014
425.34	-0.105
425.68	-0.210
426.03	-0.338
426.38	-0.463
426.73	-0.532
427.08	-0.572
427.43	-0.589
427.78	-0.577
428.13	-0.535
428.48	-0.509
428.83	-0.468
429.18	-0.421
429.53	-0.375
429.87	-0.305
430.22	-0.263
430.57	-0.261
430.92	-0.271
431.27	-0.275
431.62	-0.289
431.97	-0.333
432.32	-0.400
432.67	-0.457
433.01	-0.528
433.36	-0.624
433.71	-0.694
434.06	-0.755
434.41	-0.771
434.76	-0.772
435.11	-0.770
435.45	-0.766
435.80	-0.720
436.15	-0.623
436.50	-0.552
436.85	-0.484
437.20	-0.393
437.54	-0.360
437.89	-0.309
438.24	-0.293
438.59	-0.298
438.94	-0.324
439.29	-0.366
439.63	-0.431
439.98	-0.495
440.33	-0.554
440.68	-0.594
441.03	-0.624
441.37	-0.599
441.72	-0.562
442.07	-0.530
442.42	-0.470
442.76	-0.391
443.11	-0.298
443.46	-0.185
443.81	-0.113
444.16	-0.059
444.50	-0.028
444.85	-0.016
445.20	-0.053
445.55	-0.126
445.89	-0.192
446.24	-0.299
446.59	-0.439
446.94	-0.583
447.28	-0.768
447.63	-0.947
447.98	-1.128
448.32	-1.283
448.67	-1.443
449.02	-1.552
449.37	-1.644
449.71	-1.679
450.06	-1.697
450.41	-1.664
450.75	-1.661
451.10	-1.626
451.45	-1.618
451.79	-1.592
452.14	-1.590
452.49	-1.599
452.84	-1.613
453.18	-1.627
453.53	-1.658
453.88	-1.650
454.22	-1.632
454.57	-1.540
454.92	-1.469
455.26	-1.338
455.61	-1.188
455.95	-1.058
456.30	-0.914
456.65	-0.781
456.99	-0.643
457.34	-0.521
457.69	-0.419
458.03	-0.364
458.38	-0.362
458.73	-0.360
459.07	-0.421
459.42	-0.516
459.76	-0.614
460.11	-0.733
460.46	-0.871
460.80	-1.028
461.15	-1.192
461.49	-1.349
461.84	-1.478
462.19	-1.590
462.53	-1.689
462.88	-1.723
463.22	-1.701
463.57	-1.685
463.91	-1.632
464.26	-1.586
464.61	-1.524
464.95	-1.467
465.30	-1.447
465.64	-1.428
465.99	-1.401
466.33	-1.389
466.68	-1.408
467.02	-1.467
467.37	-1.504
467.71	-1.574
468.06	-1.620
468.41	-1.665
468.75	-1.740
469.10	-1.804
469.44	-1.877
469.79	-1.948
470.13	-2.006
470.48	-2.067
470.82	-2.122
471.17	-2.172
471.51	-2.218
471.86	-2.260
472.20	-2.330
472.55	-2.391
472.89	-2.422
473.23	-2.454
473.58	-2.510
473.92	-2.547
474.27	-2.561
474.61	-2.564
474.96	-2.552
475.30	-2.535
475.65	-2.548
475.99	-2.536
476.34	-2.491
476.68	-2.462
477.02	-2.433
477.37	-2.355
477.71	-2.242
478.06	-2.086
478.40	-1.837
478.75	-1.475
479.09	-1.076
479.43	-0.670
479.78	-0.290
480.12	0.054
480.47	0.377
480.81	0.674
481.15	0.935
481.50	1.162
481.84	1.372
482.19	1.558
482.53	1.700
482.87	1.789
483.22	1.838
483.56	1.834
483.90	1.779
484.25	1.697
484.59	1.595
484.94	1.486
485.28	1.380
485.62	1.251
485.97	1.110
486.31	0.958
486.65	0.832
487.00	0.715
487.34	0.626
487.68	0.560
488.03	0.489
488.37	0.433
488.71	0.370
489.06	0.312
489.40	0.263
489.74	0.202
490.09	0.131
490.43	0.036
490.77	-0.069
491.11	-0.200
491.46	-0.337
491.80	-0.484
492.14	-0.633
492.49	-0.784
492.83	-0.965
493.17	-1.139
493.51	-1.305
493.86	-1.443
494.20	-1.551
494.54	-1.613
494.88	-1.580
495.23	-1.568
495.57	-1.514
495.91	-1.469
496.25	-1.414
496.60	-1.356
496.94	-1.322
497.28	-1.295
497.62	-1.287
497.97	-1.261
498.31	-1.249
498.65	-1.261
498.99	-1.226
499.33	-1.206
499.68	-1.165
500.02	-1.119
500.36	-1.074
500.70	-0.999
501.04	-0.912
501.39	-0.811
501.73	-0.705
502.07	-0.556
502.41	-0.414
502.75	-0.252
503.09	-0.066
503.44	0.123
503.78	0.298
504.12	0.534
504.46	0.729
504.80	0.958
505.14	1.214
505.49	1.473
505.83	1.685
506.17	1.925
506.51	2.151
506.85	2.391
507.19	2.627
507.53	2.883
507.87	3.097
508.22	3.349
508.56	3.574
508.90	3.764
509.24	3.944
509.58	4.167
509.92	4.371
510.26	4.585
510.60	4.788
510.94	5.002
511.28	5.198
511.63	5.418
511.97	5.662
512.31	5.924
512.65	6.227
512.99	6.556
513.33	6.925
513.67	7.341
514.01	7.789
514.35	8.239
514.69	8.684
515.03	9.166
515.37	9.605
515.71	10.003
516.05	10.377
516.39	10.718
516.73	11.016
517.07	11.280
517.41	11.492
517.75	11.654
518.09	11.767
518.43	11.878
518.77	11.934
519.11	12.006
519.45	12.068
519.79	12.144
520.13	12.251
520.47	12.430
520.81	12.665
521.15	12.926
521.49	13.244
521.83	13.628
522.17	14.004
522.51	14.449
522.85	14.938
523.19	15.557
523.53	16.277
523.87	17.053
524.21	17.776
524.55	18.443
524.89	19.036
525.23	19.583
525.57	20.067
525.91	20.510
526.25	20.904
526.58	21.262
526.92	21.536
527.26	21.752
527.60	21.865
527.94	21.956
528.28	21.985
528.62	22.015
528.96	22.023
529.30	22.021
529.64	22.002
529.97	21.982
530.31	21.925
530.65	21.893
530.99	21.862
531.33	21.882
531.67	21.909
532.01	21.970
532.35	22.018
532.68	22.052
533.02	22.060
533.36	22.043
533.70	22.030
534.04	22.037
534.38	21.995
534.71	21.965
535.05	21.933
535.39	21.889
535.73	21.884
536.07	21.931
536.41	22.052
536.74	22.274
537.08	22.569
537.42	22.875
537.76	23.208
538.10	23.564
538.43	23.900
538.77	24.226
539.11	24.499
539.45	24.771
539.79	24.995
540.12	25.138
540.46	25.227
540.80	25.231
541.14	25.209
541.47	25.142
541.81	25.061
542.15	24.956
542.49	24.807
542.82	24.686
543.16	24.479
543.50	24.269
543.84	24.079
544.17	23.923
544.51	23.845
544.85	23.734
545.18	23.623
545.52	23.503
545.86	23.372
546.20	23.242
546.53	23.066
546.87	22.944
547.21	22.822
547.54	22.713
547.88	22.588
548.22	22.477
548.55	22.404
548.89	22.370
549.23	22.374
549.56	22.360
549.90	22.397
550.24	22.495
550.57	22.574
550.91	22.626
551.25	22.693
551.58	22.754
551.92	22.787
552.26	22.795
552.59	22.781
552.93	22.736
553.27	22.713
553.60	22.694
553.94	22.640
554.27	22.622
554.61	22.612
554.95	22.580
555.28	22.559
555.62	22.566
555.95	22.578
556.29	22.632
556.63	22.700
556.96	22.775
557.30	22.832
557.63	22.876
557.97	22.907
558.31	22.959
558.64	22.989
558.98	23.015
559.31	23.019
559.65	23.049
559.98	23.071
560.32	23.097
560.65	23.130
560.99	23.205
561.33	23.322
561.66	23.420
562.00	23.509
562.33	23.661
562.67	23.798
563.00	23.934
563.34	24.081
563.67	24.207
564.01	24.345
564.34	24.451
564.68	24.518
565.01	24.550
565.35	24.566
565.68	24.615
566.02	24.575
566.35	24.569
566.69	24.587
567.02	24.563
567.36	24.606
567.69	24.601
568.03	24.611
568.36	24.624
568.69	24.644
569.03	24.692
569.36	24.718
569.70	24.840
570.03	24.904
570.37	24.942
570.70	25.017
571.04	24.982
571.37	24.987
571.70	25.002
572.04	24.987
572.37	24.997
572.71	24.963
573.04	24.944
573.37	24.864
573.71	24.798
574.04	24.743
574.38	24.659
574.71	24.578
575.04	24.501
575.38	24.419
575.71	24.365
576.05	24.251
576.38	24.174
576.71	24.080
577.05	23.956
577.38	23.870
577.71	23.756
578.05	23.642
578.38	23.585
578.71	23.469
579.05	23.380
579.38	23.289
579.71	23.222
580.05	23.179
580.38	23.129
580.71	23.117
581.05	23.050
581.38	23.016
581.71	23.004
582.05	23.010
582.38	23.064
582.71	23.050
583.04	23.034
583.38	23.027
583.71	23.038
584.04	23.042
584.38	23.082
584.71	23.146
585.04	23.239
585.37	23.291
585.71	23.357
586.04	23.423
586.37	23.495
586.70	23.560
587.04	23.658
587.37	23.689
587.70	23.728
588.03	23.743
588.37	23.732
588.70	23.697
589.03	23.672
589.36	23.597
589.69	23.524
590.03	23.464
590.36	23.412
590.69	23.337
591.02	23.295
591.35	23.243
591.69	23.227
592.02	23.224
592.35	23.226
592.68	23.252
593.01	23.312
593.35	23.349
593.68	23.419
594.01	23.466
594.34	23.491
594.67	23.496
595.00	23.545
595.34	23.542
595.67	23.529
596.00	23.506
596.33	23.458
596.66	23.361
596.99	23.247
597.32	23.110
597.65	22.980
597.99	22.877
598.32	22.766
598.65	22.626
598.98	22.541
599.31	22.491
599.64	22.448
599.97	22.479
600.30	22.529
600.63	22.619
600.96	22.716
601.30	22.800
601.63	22.880
601.96	22.945
602.29	22.980
602.62	22.988
602.95	22.978
603.28	22.991
603.61	22.972
603.94	22.946
604.27	22.854
604.60	22.753
604.93	22.658
605.26	22.607
605.59	22.547
605.92	22.531
606.25	22.480
606.58	22.444
606.91	22.402
607.24	22.357
607.57	22.326
607.90	22.349
608.23	22.337
608.56	22.296
608.89	22.220
609.22	22.136
609.55	22.016
609.88	21.938
610.21	21.839
610.54	21.705
610.87	21.562
611.20	21.436
611.53	21.309
611.86	21.197
612.19	21.109
612.52	21.029
612.85	21.007
613.18	20.993
613.51	20.944
613.84	20.903
614.17	20.876
614.49	20.882
614.82	20.839
615.15	20.775
615.48	20.731
615.81	20.694
616.14	20.654
616.47	20.603
616.80	20.538
617.13	20.510
617.46	20.481
617.78	20.495
618.11	20.412
618.44	20.380
618.77	20.362
619.10	20.370
619.43	20.359
619.76	20.290
620.09	20.244
620.41	20.250
620.74	20.244
621.07	20.231
621.40	20.198
621.73	20.231
622.06	20.264
622.38	20.284
622.71	20.286
623.04	20.329
623.37	20.421
623.70	20.529
624.02	20.545
624.35	20.564
624.68	20.596
625.01	20.582
625.34	20.598
625.66	20.584
625.99	20.579
626.32	20.563
626.65	20.539
626.98	20.509
627.30	20.423
627.63	20.323
627.96	20.211
628.29	20.146
628.61	20.069
628.94	19.947
629.27	19.896
629.60	19.845
629.92	19.784
630.25	19.690
630.58	19.638
630.91	19.595
631.23	19.616
631.56	19.633
631.89	19.571
632.21	19.589
632.54	19.571
632.87	19.529
633.19	19.480
633.52	19.438
633.85	19.383
634.18	19.258
634.50	19.190
634.83	19.101
635.16	19.019
635.48	18.954
635.81	18.854
636.14	18.786
636.46	18.685
636.79	18.621
637.11	18.547
637.44	18.545
637.77	18.521
638.09	18.450
638.42	18.402
638.75	18.405
639.07	18.371
639.40	18.282
639.73	18.282
640.05	18.289
640.38	18.260
640.70	18.208
641.03	18.147
641.36	18.090
641.68	18.085
642.01	18.083
642.33	18.025
642.66	18.028
642.98	18.080
643.31	18.061
643.64	18.067
643.96	18.119
644.29	18.192
644.61	18.220
644.94	18.280
645.26	18.355
645.59	18.379
645.91	18.424
646.24	18.453
646.56	18.420
646.89	18.487
647.22	18.431
647.54	18.365
647.87	18.345
648.19	18.315
648.52	18.303
648.84	18.246
649.17	18.193
649.49	18.129
649.82	18.079
650.14	18.055
650.47	17.960
650.79	17.952
651.11	17.970
651.44	17.987
651.76	17.963
652.09	17.905
652.41	17.901
652.74	17.930
653.06	17.959
653.39	18.012
653.71	18.108
654.04	18.157
654.36	18.231
654.68	18.234
655.01	18.216
655.33	18.306
655.66	18.385
655.98	18.377
656.30	18.442
656.63	18.397
656.95	18.316
657.28	18.286
657.60	18.248
657.92	18.241
658.25	18.183
658.57	18.133
658.90	18.057
659.22	18.015
659.54	17.930
659.87	17.811
660.19	17.794
660.51	17.762
660.84	17.603
661.16	17.501
661.48	17.368
661.81	17.280
662.13	17.184
662.45	17.094
662.78	17.000
663.10	16.929
663.42	16.861
663.75	16.854
664.07	16.840
664.39	16.909
664.72	16.904
665.04	16.941
665.36	16.953
665.69	17.042
666.01	17.059
666.33	17.118
666.65	17.162
666.98	17.171
667.30	17.130
667.62	17.128
667.94	17.078
668.27	17.031
668.59	16.972
668.91	16.996
669.23	16.975
669.56	16.912
669.88	16.893
670.20	16.838
670.52	16.817
670.85	16.799
671.17	16.681
671.49	16.685
671.81	16.742
672.13	16.734
672.46	16.634
672.78	16.545
673.10	16.537
673.42	16.512
673.74	16.560
674.07	16.601
674.39	16.592
674.71	16.716
675.03	16.746
675.35	16.773
675.67	16.835
676.00	16.939
676.32	16.978
676.64	17.032
676.96	17.130
677.28	17.207
677.60	17.251
677.92	17.372
678.25	17.427
678.57	17.472
678.89	17.500
679.21	17.508
679.53	17.527
679.85	17.627
680.17	17.621
680.49	17.573
680.81	17.473
681.13	17.431
681.46	17.357
681.78	17.333
682.10	17.314
682.42	17.319
682.74	17.344
683.06	17.328
683.38	17.266
683.70	17.359
684.02	17.419
684.34	17.579
684.66	17.647
684.98	17.751
685.30	17.823
685.62	17.892
685.94	17.987
686.26	17.977
686.58	18.034
686.90	18.031
687.22	17.981
687.54	17.919
687.86	17.790
688.18	17.726
688.50	17.597
688.82	17.490
689.14	17.366
689.46	17.192
689.78	17.097
690.10	16.966
690.42	16.895
690.74	16.843
691.06	16.682
691.38	16.648
691.70	16.499
692.02	16.421
692.34	16.228
692.66	16.156
692.98	16.120
693.30	16.118
693.62	16.077
693.94	16.157
694.26	16.150
694.57	16.233
694.89	16.233
695.21	16.337
695.53	16.424
695.85	16.556
696.17	16.593
696.49	16.670
696.81	16.710
697.13	16.788
697.44	16.755
697.76	16.774
698.08	16.749
698.40	16.729
698.72	16.637
699.04	16.461
699.36	16.308
699.67	16.122
699.99	15.860
700.31	15.596
700.63	15.282
700.95	14.923
701.27	14.539
701.58	14.244
701.90	13.937
702.22	13.692
702.54	13.485
702.86	13.381
703.17	13.263
703.49	13.134
703.81	13.047
704.13	12.916
704.45	12.926
704.76	12.867
705.08	12.847
705.40	12.848
705.72	12.846
706.03	12.857
706.35	12.815
706.67	12.848
706.99	12.946
707.30	12.990
707.62	13.126
707.94	13.127
708.26	13.150
708.57	13.165
708.89	13.167
709.21	13.131
709.53	13.089
709.84	13.094
710.16	13.073
710.48	13.048
710.79	12.996
711.11	12.936
711.43	12.877
711.74	12.881
712.06	12.793
712.38	12.869
712.69	12.951
713.01	13.052
713.33	13.089
713.64	13.153
713.96	13.198
714.28	13.184
714.59	13.265
714.91	13.471
715.23	13.591
715.54	13.733
715.86	13.714
716.17	13.801
716.49	13.748
716.81	13.745
717.12	13.674
717.44	13.585
717.76	13.470
718.07	13.211
718.39	12.844
718.70	12.592
719.02	12.282
719.33	11.834
719.65	11.441
719.97	11.169
720.28	10.939
720.60	10.802
720.91	10.548
721.23	10.502
721.54	10.547
721.86	10.624
722.17	10.688
722.49	10.705
722.81	10.852
723.12	10.993
723.44	11.176
723.75	11.017
724.07	10.978
724.38	11.094
724.70	11.059
725.01	11.080
725.33	10.989
725.64	10.847
725.96	10.976
726.27	11.052
726.59	11.079
726.90	10.991
727.22	11.198
727.53	11.152
727.84	11.150
728.16	11.227
728.47	11.105
728.79	10.923
729.10	10.898
729.42	10.759
729.73	10.682
730.05	10.490
730.36	10.324
730.67	10.083
730.99	9.917
731.30	9.588
731.62	9.282
731.93	9.009
732.24	8.775
732.56	8.512
732.87	8.047
733.19	7.656
733.50	7.220
733.81	6.865
734.13	6.433
734.44	6.047
734.76	5.803
735.07	5.458
735.38	5.230
735.70	5.168
736.01	5.027
736.32	5.009
736.64	4.835
736.95	4.806
737.26	4.745
737.58	4.676
737.89	4.741
738.20	4.591
738.52	4.212
738.83	4.214
739.14	3.893
739.45	3.450
739.77	3.137
740.08	2.895
740.39	2.543
740.71	2.233
741.02	1.954
741.33	1.381
741.64	1.033
741.96	0.876
742.27	0.190
742.58	-0.039
742.90	-0.403
743.21	-0.725
743.52	-1.097
743.83	-1.090
744.14	-1.316
744.46	-1.621
744.77	-1.849
745.08	-1.971
745.39	-2.016
745.71	-1.921
746.02	-2.181
746.33	-2.002
746.64	-1.967
746.95	-1.931
747.27	-2.346
747.58	-2.508
747.89	-2.448
748.20	-2.230
748.51	-2.412
748.82	-2.371
749.14	-2.482
749.45	-2.668
749.76	-2.910
750.07	-3.028
750.38	-3.154
750.69	-3.263
751.01	-3.341
751.32	-3.634
751.63	-3.969
751.94	-4.116
752.25	-4.459
752.56	-4.572
752.87	-4.613
753.18	-4.676
753.49	-4.962
753.81	-4.956
754.12	-4.821
754.43	-4.654
754.74	-4.228
755.05	-3.720
755.36	-3.001
755.67	-2.101
755.98	-1.264
756.29	-0.080
756.60	1.084
756.91	2.356
757.22	3.681
757.53	5.089
757.84	6.568
758.15	7.871
758.46	9.055
758.77	10.192
759.09	11.108
759.40	11.941
759.71	12.680
760.02	13.212
760.33	13.656
760.64	13.586
760.95	13.667
761.26	13.662
761.57	13.525
761.88	13.317
762.18	12.930
762.49	12.643
762.80	12.108
763.11	11.548
763.42	10.908
763.73	10.089
764.04	9.511
764.35	8.482
764.66	7.111
764.97	5.858
765.28	4.477
765.59	2.921
765.90	1.125
766.21	-0.488
766.52	-2.321
766.83	-3.791
767.14	-5.174
767.44	-6.641
767.75	-8.080
768.06	-8.776
768.37	-9.646
768.68	-10.696
768.99	-11.329
769.30	-12.121
769.61	-12.639
769.91	-13.089
770.22	-13.956
770.53	-14.452
770.84	-14.789
771.15	-15.241
771.46	-15.882
771.77	-16.568
772.07	-16.459
772.38	-16.495
772.69	-16.438
773.00	-16.393
773.31	-16.690
773.61	-16.647
773.92	-16.529
774.23	-17.012
774.54	-16.739
774.85	-16.779
775.15	-17.113
775.46	-17.338
775.77	-17.551
776.08	-17.661
776.39	-18.271
776.69	-17.880
777.00	-17.955
777.31	-18.214
777.62	-17.973
777.92	-18.060
778.23	-18.136
778.54	-17.591
778.85	-17.905
779.15	-18.447
779.46	-18.317
779.77	-17.890
780.07	-18.304
780.38	-18.702
780.69	-18.953
781.00	-18.994
781.30	-18.980
781.61	-19.246
781.92	-19.336
782.22	-19.297
782.53	-19.338
782.84	-19.656
783.14	-19.786
783.45	-19.388
783.76	-18.557
784.06	-17.874
784.37	-17.178
784.68	-16.576
784.98	-15.858
785.29	-14.976
785.60	-14.343
785.90	-12.900
786.21	-11.587
786.51	-11.195
786.82	-10.740
787.13	-10.266
787.43	-9.683
787.74	-9.517
788.04	-9.367
788.35	-9.296
788.66	-9.211
788.96	-9.159
789.27	-9.399
789.57	-9.910
789.88	-10.316
790.19	-10.983
790.49	-11.452
790.80	-12.040
791.10	-12.483
791.41	-12.819
791.71	-12.886
792.02	-13.062
792.32	-12.910
792.63	-13.052
792.93	-13.243
793.24	-12.580
793.54	-12.038
793.85	-11.595
794.15	-11.116
794.46	-10.318
794.76	-10.342
795.07	-10.037
795.37	-9.971
795.68	-9.749
795.98	-9.913
796.29	-9.912
796.59	-10.028
796.90	-10.054
797.20	-10.267
797.51	-10.557
797.81	-11.281
798.12	-10.827
798.42	-10.933
798.72	-11.356
799.03	-11.787
799.33	-12.056
799.64	-12.237
799.94	-12.329
800.25	-12.859
800.55	-13.638
800.85	-14.245
801.16	-14.004
801.46	-15.113
801.77	-15.386
802.07	-15.369
802.37	-15.863
802.68	-15.737
802.98	-15.447
803.28	-15.445
803.59	-15.547
803.89	-14.971
804.20	-14.845
804.50	-15.282
804.80	-14.364
805.11	-14.544
805.41	-15.105
805.71	-14.879
806.02	-14.701
806.32	-14.984
806.62	-14.939
806.93	-15.487
807.23	-15.539
807.53	-15.455
807.83	-15.878
808.14	-16.333
808.44	-16.732
808.74	-16.284
809.05	-15.834
809.35	-16.584
809.65	-16.778
809.95	-16.777
810.26	-15.767
810.56	-14.795
810.86	-14.217
811.16	-13.929
811.47	-13.813
811.77	-12.617
812.07	-11.307
812.37	-11.251
812.68	-9.460
812.98	-8.065
813.28	-7.045
813.58	-5.970
813.88	-6.233
814.19	-5.621
814.49	-4.212
814.79	-3.059
815.09	-1.778
815.39	-1.377
815.70	-0.184
816.00	-0.115
816.30	0.150
816.60	0.472
816.90	1.366
817.20	2.950
817.50	5.429
817.81	7.468
818.11	9.798
818.41	11.430
818.71	13.179
819.01	14.492
819.31	15.692
819.61	16.625
819.92	17.401
820.22	17.941
820.52	18.332
820.82	18.499
821.12	18.746
821.42	18.942
821.72	19.153
822.02	19.108
822.32	19.103
822.62	19.000
822.92	18.823
823.22	18.694
823.52	18.515
823.83	18.338
824.13	18.219
824.43	17.936
824.73	17.566
825.03	17.214
825.33	16.806
825.63	16.386
825.93	16.140
826.23	15.953
826.53	15.611
826.83	15.271
827.13	15.035
827.43	14.196
827.73	13.655
828.03	12.891
828.33	12.030
828.63	11.467
828.93	10.778
829.23	9.771
829.53	8.976
829.83	7.736
830.13	7.027
830.42	6.457
830.72	6.931
831.02	7.323
831.32	7.711
831.62	8.085
831.92	8.278
832.22	8.599
832.52	9.097
832.82	8.937
833.12	9.422
833.42	9.758
833.72	9.717
834.01	9.547
834.31	9.002
834.61	8.230
834.91	7.144
835.21	6.315
835.51	4.950
835.81	3.291
836.11	2.132
836.40	0.032
836.70	-2.056
837.00	-4.030
837.30	-6.214
837.60	-7.516
837.90	-8.280
838.19	-8.602
838.49	-9.482
838.79	-10.222
839.09	-11.390
839.39	-12.575
839.68	-12.692
839.98	-14.984
840.28	-16.534
840.58	-18.915
840.88	-20.702
841.17	-22.411
841.47	-26.434
841.77	-29.213
842.07	-30.708
842.36	-35.160
842.66	-38.135
842.96	-44.417
843.26	-49.084
843.55	-53.559
843.85	-52.738
844.15	-56.674
844.45	-59.946
844.74	-59.782
845.04	-61.890
845.34	-68.655
845.63	-66.315
845.93	-70.718
846.23	-68.501
846.53	-68.401
846.82	-69.981
847.12	-73.675
847.42	-75.010
847.71	-75.731
848.01	-76.836
848.31	-81.019
848.60	-81.157
848.90	-80.435
849.19	-79.170
849.49	-79.253
849.79	-75.911
850.08	-72.866
850.38	-72.095
850.68	-71.971
850.97	-70.950
851.27	-69.369
851.56	-67.617
851.86	-66.539
852.16	-70.610
852.45	-66.499
852.75	-64.455
853.04	-61.727
853.34	-63.779
853.64	-67.568
853.93	-67.393
854.23	-65.924
854.52	-68.097
854.82	-65.782
855.11	-67.953
855.41	-65.840
855.70	-67.309
856.00	-68.160
856.30	-71.480
856.59	-71.727
856.89	-70.635
857.18	-66.013
857.48	-67.518
857.77	-66.170
858.07	-61.054
858.36	-59.763
858.66	-61.959
858.95	-63.250
859.25	-66.504
859.54	-68.331
859.84	-65.426
860.13	-59.922
860.42	-62.357
860.72	-60.357
861.01	-63.834
861.31	-69.188
861.60	-66.951
861.90	-60.912
862.19	-63.028
862.49	-58.054
862.78	-53.337
863.07	-54.786
863.37	-57.081
863.66	-56.646
863.96	-57.906
864.25	-51.740
864.54	-48.620
864.84	-45.681
865.13	-46.727
865.43	-43.731
865.72	-37.399
866.01	-30.885
866.31	-36.548
866.60	-56.174
866.89	-53.271
>>>>>End Spectral Data<<<<<
