OOIBase32 Version 2.0.0.6 Data File
++++++++++++++++++++++++++++++++++++
Date: 01-22-2012, 21:59:04
User: Valued Ocean Optics Customer
Spectrometer Serial Number: USB2E2917
Spectrometer Channel: Master
Integration Time (msec): 4
Spectra Averaged: 10
Boxcar Smoothing: 5
Correct for Electrical Dark: Enabled
Time Normalized: Disabled
Dual-beam Reference: Disabled
Reference Channel: Master
Temperature: Not acquired
Spectrometer Type: S2000
ADC Type: USB2000
Number of Pixels in File: 2048
Graph Title: 
>>>>>Begin Spectral Data<<<<<
180.30	0.000
180.67	0.000
181.03	120.631
181.40	-9.225
181.77	-223.199
182.14	29.890
182.51	20.591
182.88	162.502
183.25	-20.606
183.62	-17.864
183.99	19.067
184.36	-108.756
184.73	-3.767
185.10	-405.353
185.46	7.986
185.83	5928.883
186.20	125.008
186.57	-3082.458
186.94	19.026
187.31	237.781
187.68	198.273
188.05	-128.454
188.42	-200.184
188.78	326.599
189.15	70.741
189.52	102.759
189.89	124.736
190.26	66.400
190.63	66.293
191.00	30.191
191.37	41.854
191.73	32.630
192.10	35.697
192.47	15.301
192.84	33.086
193.21	38.900
193.58	48.243
193.94	47.951
194.31	41.324
194.68	33.812
195.05	34.103
195.42	11.103
195.79	2.940
196.15	-7.035
196.52	-1.006
196.89	0.193
197.26	7.627
197.63	-3.306
198.00	-57.279
198.36	-108.085
198.73	-173.764
199.10	-159.667
199.47	-17.159
199.84	-16.623
200.20	-29.856
200.57	-31.037
200.94	-32.097
201.31	-48.906
201.68	-93.214
202.04	-47.134
202.41	-51.985
202.78	-34.940
203.15	-44.838
203.51	-25.503
203.88	-28.361
204.25	-14.814
204.62	-23.627
204.98	-22.738
205.35	-23.330
205.72	-14.098
206.09	-12.185
206.46	-4.996
206.82	6.440
207.19	4.738
207.56	-9.878
207.92	24.782
208.29	34.549
208.66	41.239
209.03	48.099
209.39	44.945
209.76	34.819
210.13	32.325
210.50	25.550
210.86	-3.598
211.23	1.033
211.60	18.913
211.96	-4.124
212.33	-32.851
212.70	-21.989
213.07	-17.618
213.43	-34.535
213.80	-42.686
214.17	-26.319
214.53	-20.407
214.90	6.579
215.27	5.773
215.63	-21.541
216.00	-32.771
216.37	-39.003
216.74	-28.284
217.10	-30.970
217.47	-14.390
217.84	9.638
218.20	4.925
218.57	6.953
218.94	-28.178
219.30	-37.769
219.67	-24.391
220.04	-2.662
220.40	9.102
220.77	-2.776
221.13	-2.552
221.50	-8.916
221.87	-18.824
222.23	-2.745
222.60	-5.439
222.97	9.402
223.33	9.423
223.70	12.993
224.07	16.190
224.43	14.062
224.80	14.691
225.16	12.931
225.53	12.092
225.90	9.811
226.26	5.241
226.63	5.324
226.99	2.557
227.36	4.275
227.73	3.656
228.09	2.831
228.46	2.919
228.82	2.760
229.19	1.357
229.56	0.470
229.92	1.893
230.29	3.980
230.65	8.109
231.02	12.035
231.38	11.210
231.75	13.082
232.12	10.477
232.48	10.195
232.85	10.028
233.21	10.338
233.58	10.796
233.94	8.623
234.31	7.677
234.68	5.675
235.04	4.121
235.41	3.506
235.77	0.943
236.14	-0.211
236.50	-2.684
236.87	-2.558
237.23	-2.060
237.60	-0.168
237.96	1.396
238.33	1.056
238.69	0.009
239.06	1.264
239.42	1.567
239.79	2.573
240.15	3.544
240.52	5.466
240.88	5.805
241.25	6.115
241.61	5.485
241.98	5.347
242.34	5.013
242.71	4.972
243.07	4.629
243.44	4.905
243.80	4.548
244.17	4.985
244.53	4.809
244.90	4.610
245.26	4.194
245.63	4.421
245.99	4.530
246.36	4.900
246.72	4.860
247.09	4.906
247.45	5.216
247.81	5.282
248.18	5.208
248.54	5.243
248.91	5.836
249.27	6.125
249.64	5.853
250.00	5.375
250.36	5.310
250.73	5.972
251.09	5.463
251.46	4.954
251.82	5.364
252.19	5.155
252.55	5.001
252.91	3.842
253.28	3.913
253.64	4.398
254.01	4.957
254.37	5.254
254.73	4.591
255.10	4.980
255.46	4.991
255.83	4.392
256.19	4.489
256.55	4.436
256.92	4.668
257.28	4.842
257.65	4.456
258.01	4.286
258.37	4.202
258.74	4.195
259.10	4.068
259.46	4.079
259.83	3.990
260.19	3.955
260.55	4.062
260.92	3.895
261.28	3.558
261.64	3.887
262.01	4.411
262.37	4.420
262.73	4.840
263.10	5.393
263.46	5.495
263.82	6.223
264.19	6.175
264.55	5.904
264.91	6.098
265.28	6.010
265.64	5.884
266.00	5.653
266.37	5.739
266.73	5.603
267.09	5.462
267.46	5.163
267.82	4.848
268.18	5.049
268.54	5.255
268.91	5.079
269.27	5.355
269.63	5.231
270.00	5.021
270.36	4.889
270.72	4.764
271.08	4.747
271.45	4.848
271.81	4.753
272.17	4.428
272.53	4.324
272.90	4.438
273.26	4.488
273.62	4.295
273.98	4.365
274.35	4.214
274.71	4.229
275.07	4.200
275.43	4.288
275.80	4.515
276.16	4.901
276.52	4.723
276.88	4.801
277.25	4.701
277.61	4.820
277.97	4.605
278.33	4.835
278.69	5.024
279.06	4.565
279.42	4.192
279.78	4.272
280.14	4.145
280.50	4.568
280.87	4.319
281.23	4.278
281.59	4.483
281.95	4.711
282.31	4.616
282.68	4.334
283.04	4.717
283.40	5.090
283.76	5.029
284.12	4.987
284.48	4.543
284.85	4.733
285.21	4.697
285.57	4.604
285.93	4.568
286.29	4.531
286.65	4.788
287.02	4.550
287.38	4.475
287.74	4.361
288.10	4.344
288.46	4.659
288.82	4.452
289.18	4.718
289.54	4.727
289.91	4.669
290.27	4.732
290.63	4.693
290.99	4.744
291.35	4.573
291.71	4.659
292.07	4.755
292.43	4.685
292.79	4.598
293.16	4.144
293.52	4.370
293.88	4.325
294.24	4.249
294.60	4.275
294.96	4.245
295.32	4.231
295.68	4.300
296.04	4.141
296.40	4.135
296.76	4.298
297.12	4.495
297.49	4.435
297.85	4.593
298.21	4.619
298.57	4.665
298.93	4.818
299.29	4.716
299.65	4.619
300.01	4.646
300.37	4.517
300.73	4.476
301.09	4.645
301.45	4.608
301.81	4.449
302.17	4.742
302.53	4.730
302.89	4.556
303.25	4.719
303.61	4.784
303.97	4.780
304.33	5.005
304.69	4.995
305.05	4.751
305.41	4.504
305.77	4.533
306.13	4.088
306.49	3.858
306.85	3.904
307.21	3.881
307.57	3.618
307.93	3.496
308.29	3.335
308.65	3.285
309.01	3.217
309.37	3.482
309.73	3.438
310.09	3.661
310.45	3.705
310.81	3.670
311.17	3.539
311.53	3.779
311.89	3.970
312.25	3.912
312.61	3.910
312.96	4.134
313.32	3.881
313.68	3.750
314.04	3.561
314.40	3.521
314.76	3.596
315.12	3.714
315.48	3.452
315.84	3.352
316.20	3.562
316.56	3.570
316.92	3.455
317.27	3.607
317.63	3.704
317.99	3.806
318.35	3.961
318.71	4.010
319.07	3.993
319.43	4.112
319.79	4.044
320.15	4.011
320.50	4.107
320.86	4.050
321.22	4.083
321.58	4.096
321.94	3.937
322.30	3.889
322.66	3.909
323.01	3.904
323.37	3.940
323.73	4.006
324.09	3.834
324.45	3.692
324.81	3.621
325.17	3.477
325.52	3.442
325.88	3.611
326.24	3.579
326.60	3.428
326.96	3.361
327.31	3.338
327.67	3.367
328.03	3.473
328.39	3.632
328.75	3.808
329.11	3.963
329.46	3.920
329.82	3.925
330.18	3.974
330.54	4.197
330.90	4.289
331.25	4.352
331.61	4.333
331.97	4.326
332.33	4.449
332.68	4.377
333.04	4.431
333.40	4.630
333.76	4.695
334.11	4.715
334.47	4.626
334.83	4.588
335.19	4.564
335.54	4.545
335.90	4.587
336.26	4.497
336.62	4.525
336.97	4.315
337.33	4.215
337.69	4.112
338.05	4.107
338.40	4.249
338.76	4.465
339.12	4.461
339.48	4.629
339.83	4.601
340.19	4.590
340.55	4.488
340.90	4.633
341.26	4.749
341.62	4.910
341.97	4.905
342.33	4.868
342.69	4.758
343.04	4.818
343.40	4.677
343.76	4.733
344.12	4.717
344.47	4.908
344.83	4.850
345.19	4.838
345.54	4.680
345.90	4.672
346.26	4.602
346.61	4.637
346.97	4.541
347.32	4.627
347.68	4.647
348.04	4.684
348.39	4.547
348.75	4.580
349.11	4.505
349.46	4.586
349.82	4.543
350.18	4.525
350.53	4.376
350.89	4.423
351.24	4.347
351.60	4.240
351.96	4.187
352.31	4.314
352.67	4.350
353.02	4.339
353.38	4.318
353.74	4.378
354.09	4.366
354.45	4.444
354.80	4.486
355.16	4.524
355.52	4.602
355.87	4.589
356.23	4.600
356.58	4.679
356.94	4.696
357.29	4.718
357.65	4.760
358.00	4.797
358.36	4.848
358.72	4.856
359.07	4.873
359.43	4.820
359.78	4.923
360.14	4.915
360.49	4.826
360.85	4.834
361.20	4.819
361.56	4.726
361.91	4.753
362.27	4.768
362.62	4.745
362.98	4.755
363.33	4.786
363.69	4.706
364.04	4.626
364.40	4.685
364.75	4.652
365.11	4.652
365.46	4.747
365.82	4.712
366.17	4.765
366.53	4.764
366.88	4.820
367.24	4.901
367.59	4.959
367.95	5.185
368.30	5.120
368.66	5.263
369.01	5.278
369.37	5.304
369.72	5.411
370.08	5.372
370.43	5.421
370.78	5.410
371.14	5.473
371.49	5.493
371.85	5.399
372.20	5.562
372.56	5.623
372.91	5.692
373.26	5.687
373.62	5.695
373.97	5.745
374.33	5.813
374.68	5.807
375.03	5.795
375.39	5.814
375.74	5.857
376.10	5.845
376.45	5.943
376.80	5.988
377.16	6.066
377.51	6.108
377.87	6.184
378.22	6.277
378.57	6.444
378.93	6.520
379.28	6.665
379.63	6.722
379.99	6.798
380.34	6.805
380.70	6.875
381.05	6.918
381.40	7.030
381.76	7.053
382.11	7.112
382.46	7.165
382.82	7.210
383.17	7.235
383.52	7.258
383.88	7.309
384.23	7.283
384.58	7.325
384.94	7.366
385.29	7.386
385.64	7.457
385.99	7.443
386.35	7.447
386.70	7.463
387.05	7.455
387.41	7.477
387.76	7.479
388.11	7.587
388.47	7.624
388.82	7.635
389.17	7.686
389.52	7.751
389.88	7.830
390.23	7.850
390.58	7.928
390.93	8.007
391.29	8.087
391.64	8.190
391.99	8.204
392.34	8.211
392.70	8.263
393.05	8.240
393.40	8.233
393.75	8.194
394.11	8.227
394.46	8.196
394.81	8.222
395.16	8.183
395.52	8.087
395.87	8.011
396.22	8.011
396.57	7.948
396.92	7.874
397.28	7.827
397.63	7.802
397.98	7.770
398.33	7.706
398.68	7.631
399.04	7.656
399.39	7.636
399.74	7.666
400.09	7.640
400.44	7.633
400.80	7.682
401.15	7.751
401.50	7.810
401.85	7.820
402.20	7.901
402.55	7.928
402.90	7.939
403.26	8.010
403.61	8.028
403.96	8.057
404.31	8.189
404.66	8.203
405.01	8.193
405.36	8.199
405.72	8.194
406.07	8.175
406.42	8.168
406.77	8.173
407.12	8.179
407.47	8.155
407.82	8.156
408.17	8.114
408.53	8.166
408.88	8.168
409.23	8.176
409.58	8.202
409.93	8.216
410.28	8.246
410.63	8.258
410.98	8.231
411.33	8.279
411.68	8.348
412.03	8.356
412.38	8.344
412.73	8.380
413.09	8.417
413.44	8.484
413.79	8.593
414.14	8.676
414.49	8.745
414.84	8.823
415.19	8.894
415.54	8.936
415.89	9.003
416.24	9.096
416.59	9.186
416.94	9.258
417.29	9.293
417.64	9.315
417.99	9.356
418.34	9.404
418.69	9.455
419.04	9.478
419.39	9.523
419.74	9.570
420.09	9.577
420.44	9.579
420.79	9.559
421.14	9.596
421.49	9.609
421.84	9.604
422.19	9.602
422.54	9.619
422.89	9.628
423.24	9.611
423.59	9.579
423.94	9.554
424.29	9.516
424.64	9.508
424.99	9.475
425.34	9.448
425.68	9.441
426.03	9.404
426.38	9.380
426.73	9.373
427.08	9.360
427.43	9.390
427.78	9.415
428.13	9.441
428.48	9.496
428.83	9.474
429.18	9.479
429.53	9.468
429.87	9.525
430.22	9.495
430.57	9.512
430.92	9.534
431.27	9.500
431.62	9.499
431.97	9.491
432.32	9.479
432.67	9.477
433.01	9.472
433.36	9.470
433.71	9.443
434.06	9.448
434.41	9.435
434.76	9.433
435.11	9.448
435.45	9.452
435.80	9.474
436.15	9.480
436.50	9.503
436.85	9.547
437.20	9.581
437.54	9.587
437.89	9.609
438.24	9.627
438.59	9.626
438.94	9.660
439.29	9.683
439.63	9.697
439.98	9.693
440.33	9.692
440.68	9.704
441.03	9.713
441.37	9.721
441.72	9.747
442.07	9.752
442.42	9.766
442.76	9.794
443.11	9.815
443.46	9.819
443.81	9.829
444.16	9.858
444.50	9.859
444.85	9.835
445.20	9.837
445.55	9.820
445.89	9.804
446.24	9.794
446.59	9.723
446.94	9.663
447.28	9.614
447.63	9.580
447.98	9.536
448.32	9.475
448.67	9.456
449.02	9.416
449.37	9.370
449.71	9.353
450.06	9.332
450.41	9.358
450.75	9.394
451.10	9.406
451.45	9.416
451.79	9.418
452.14	9.408
452.49	9.405
452.84	9.417
453.18	9.426
453.53	9.440
453.88	9.445
454.22	9.487
454.57	9.496
454.92	9.577
455.26	9.619
455.61	9.675
455.95	9.732
456.30	9.787
456.65	9.820
456.99	9.871
457.34	9.920
457.69	9.960
458.03	9.954
458.38	9.950
458.73	9.925
459.07	9.930
459.42	9.891
459.76	9.869
460.11	9.836
460.46	9.808
460.80	9.782
461.15	9.734
461.49	9.713
461.84	9.707
462.19	9.716
462.53	9.714
462.88	9.722
463.22	9.772
463.57	9.824
463.91	9.877
464.26	9.915
464.61	9.920
464.95	9.936
465.30	9.951
465.64	9.979
465.99	10.019
466.33	10.053
466.68	10.062
467.02	10.042
467.37	10.033
467.71	10.029
468.06	10.048
468.41	10.069
468.75	10.093
469.10	10.095
469.44	10.090
469.79	10.064
470.13	10.049
470.48	10.012
470.82	10.010
471.17	10.014
471.51	10.017
471.86	9.999
472.20	9.995
472.55	9.973
472.89	9.971
473.23	9.962
473.58	9.960
473.92	9.940
474.27	9.974
474.61	9.957
474.96	9.948
475.30	9.931
475.65	9.925
475.99	9.926
476.34	9.963
476.68	9.963
477.02	9.998
477.37	10.049
477.71	10.104
478.06	10.179
478.40	10.342
478.75	10.546
479.09	10.761
479.43	10.985
479.78	11.191
480.12	11.357
480.47	11.537
480.81	11.684
481.15	11.817
481.50	11.939
481.84	12.065
482.19	12.176
482.53	12.240
482.87	12.266
483.22	12.275
483.56	12.271
483.90	12.259
484.25	12.229
484.59	12.193
484.94	12.144
485.28	12.089
485.62	12.007
485.97	11.909
486.31	11.840
486.65	11.804
487.00	11.764
487.34	11.739
487.68	11.722
488.03	11.700
488.37	11.682
488.71	11.667
489.06	11.657
489.40	11.651
489.74	11.652
490.09	11.632
490.43	11.602
490.77	11.571
491.11	11.516
491.46	11.470
491.80	11.420
492.14	11.360
492.49	11.302
492.83	11.240
493.17	11.173
493.51	11.109
493.86	11.059
494.20	11.065
494.54	11.100
494.88	11.129
495.23	11.167
495.57	11.230
495.91	11.288
496.25	11.331
496.60	11.381
496.94	11.440
497.28	11.490
497.62	11.527
497.97	11.515
498.31	11.526
498.65	11.553
498.99	11.595
499.33	11.612
499.68	11.665
500.02	11.704
500.36	11.742
500.70	11.790
501.04	11.822
501.39	11.875
501.73	11.949
502.07	11.982
502.41	12.044
502.75	12.073
503.09	12.113
503.44	12.150
503.78	12.228
504.12	12.299
504.46	12.362
504.80	12.450
505.14	12.521
505.49	12.577
505.83	12.661
506.17	12.738
506.51	12.812
506.85	12.905
507.19	12.978
507.53	13.014
507.87	13.078
508.22	13.117
508.56	13.152
508.90	13.208
509.24	13.238
509.58	13.220
509.92	13.217
510.26	13.230
510.60	13.232
510.94	13.241
511.28	13.269
511.63	13.290
511.97	13.315
512.31	13.361
512.65	13.388
512.99	13.426
513.33	13.539
513.67	13.643
514.01	13.737
514.35	13.844
514.69	13.935
515.03	14.042
515.37	14.133
515.71	14.204
516.05	14.278
516.39	14.358
516.73	14.423
517.07	14.449
517.41	14.439
517.75	14.432
518.09	14.408
518.43	14.374
518.77	14.313
519.11	14.237
519.45	14.200
519.79	14.140
520.13	14.095
520.47	14.091
520.81	14.092
521.15	14.131
521.49	14.198
521.83	14.268
522.17	14.372
522.51	14.519
522.85	14.699
523.19	14.910
523.53	15.167
523.87	15.442
524.21	15.707
524.55	15.967
524.89	16.194
525.23	16.365
525.57	16.523
525.91	16.665
526.25	16.775
526.58	16.866
526.92	16.938
527.26	16.957
527.60	16.942
527.94	16.919
528.28	16.858
528.62	16.795
528.96	16.718
529.30	16.651
529.64	16.574
529.97	16.502
530.31	16.421
530.65	16.347
530.99	16.302
531.33	16.270
531.67	16.233
532.01	16.215
532.35	16.189
532.68	16.179
533.02	16.138
533.36	16.093
533.70	16.042
534.04	15.988
534.38	15.908
534.71	15.837
535.05	15.763
535.39	15.703
535.73	15.686
536.07	15.685
536.41	15.743
536.74	15.853
537.08	15.981
537.42	16.126
537.76	16.285
538.10	16.438
538.43	16.591
538.77	16.726
539.11	16.853
539.45	16.950
539.79	17.036
540.12	17.090
540.46	17.091
540.80	17.061
541.14	17.015
541.47	16.962
541.81	16.905
542.15	16.826
542.49	16.747
542.82	16.643
543.16	16.512
543.50	16.388
543.84	16.272
544.17	16.187
544.51	16.118
544.85	16.076
545.18	15.997
545.52	15.904
545.86	15.824
546.20	15.742
546.53	15.646
546.87	15.592
547.21	15.522
547.54	15.471
547.88	15.403
548.22	15.362
548.55	15.286
548.89	15.282
549.23	15.310
549.56	15.337
549.90	15.342
550.24	15.359
550.57	15.382
550.91	15.423
551.25	15.416
551.58	15.440
551.92	15.446
552.26	15.459
552.59	15.486
552.93	15.455
553.27	15.386
553.60	15.375
553.94	15.373
554.27	15.345
554.61	15.298
554.95	15.311
555.28	15.303
555.62	15.307
555.95	15.331
556.29	15.307
556.63	15.319
556.96	15.355
557.30	15.375
557.63	15.428
557.97	15.489
558.31	15.535
558.64	15.540
558.98	15.540
559.31	15.588
559.65	15.612
559.98	15.639
560.32	15.685
560.65	15.755
560.99	15.796
561.33	15.869
561.66	15.931
562.00	16.030
562.33	16.120
562.67	16.218
563.00	16.321
563.34	16.370
563.67	16.447
564.01	16.514
564.34	16.595
564.68	16.678
565.01	16.696
565.35	16.745
565.68	16.746
566.02	16.769
566.35	16.821
566.69	16.831
567.02	16.888
567.36	16.903
567.69	16.957
568.03	16.965
568.36	16.979
568.69	17.005
569.03	17.005
569.36	17.061
569.70	17.071
570.03	17.119
570.37	17.126
570.70	17.145
571.04	17.181
571.37	17.194
571.70	17.207
572.04	17.215
572.37	17.243
572.71	17.265
573.04	17.268
573.37	17.293
573.71	17.264
574.04	17.244
574.38	17.226
574.71	17.184
575.04	17.156
575.38	17.107
575.71	17.078
576.05	17.042
576.38	17.001
576.71	16.945
577.05	16.892
577.38	16.852
577.71	16.824
578.05	16.781
578.38	16.768
578.71	16.739
579.05	16.741
579.38	16.696
579.71	16.641
580.05	16.614
580.38	16.598
580.71	16.612
581.05	16.594
581.38	16.598
581.71	16.614
582.05	16.648
582.38	16.649
582.71	16.648
583.04	16.668
583.38	16.732
583.71	16.796
584.04	16.844
584.38	16.868
584.71	16.943
585.04	17.025
585.37	17.087
585.71	17.164
586.04	17.273
586.37	17.375
586.70	17.491
587.04	17.526
587.37	17.520
587.70	17.556
588.03	17.578
588.37	17.590
588.70	17.580
589.03	17.555
589.36	17.518
589.69	17.413
590.03	17.391
590.36	17.315
590.69	17.312
591.02	17.319
591.35	17.320
591.69	17.318
592.02	17.301
592.35	17.320
592.68	17.352
593.01	17.363
593.35	17.426
593.68	17.411
594.01	17.413
594.34	17.402
594.67	17.377
595.00	17.354
595.34	17.340
595.67	17.331
596.00	17.274
596.33	17.196
596.66	17.130
596.99	17.048
597.32	16.973
597.65	16.946
597.99	16.839
598.32	16.779
598.65	16.746
598.98	16.692
599.31	16.625
599.64	16.623
599.97	16.625
600.30	16.649
600.63	16.689
600.96	16.714
601.30	16.719
601.63	16.748
601.96	16.781
602.29	16.739
602.62	16.735
602.95	16.722
603.28	16.704
603.61	16.688
603.94	16.622
604.27	16.571
604.60	16.522
604.93	16.450
605.26	16.412
605.59	16.342
605.92	16.301
606.25	16.270
606.58	16.250
606.91	16.228
607.24	16.246
607.57	16.258
607.90	16.238
608.23	16.205
608.56	16.223
608.89	16.192
609.22	16.179
609.55	16.160
609.88	16.136
610.21	16.090
610.54	15.970
610.87	15.860
611.20	15.739
611.53	15.649
611.86	15.610
612.19	15.510
612.52	15.433
612.85	15.391
613.18	15.354
613.51	15.291
613.84	15.258
614.17	15.279
614.49	15.228
614.82	15.192
615.15	15.136
615.48	15.072
615.81	15.009
616.14	14.996
616.47	14.952
616.80	14.934
617.13	14.899
617.46	14.853
617.78	14.796
618.11	14.768
618.44	14.789
618.77	14.786
619.10	14.733
619.43	14.758
619.76	14.783
620.09	14.689
620.41	14.638
620.74	14.603
621.07	14.589
621.40	14.585
621.73	14.582
622.06	14.586
622.38	14.582
622.71	14.623
623.04	14.632
623.37	14.597
623.70	14.645
624.02	14.681
624.35	14.711
624.68	14.729
625.01	14.722
625.34	14.714
625.66	14.709
625.99	14.697
626.32	14.660
626.65	14.605
626.98	14.558
627.30	14.506
627.63	14.423
627.96	14.356
628.29	14.264
628.61	14.214
628.94	14.174
629.27	14.067
629.60	14.005
629.92	13.966
630.25	13.939
630.58	13.938
630.91	13.943
631.23	13.913
631.56	13.881
631.89	13.867
632.21	13.836
632.54	13.784
632.87	13.739
633.19	13.679
633.52	13.617
633.85	13.526
634.18	13.450
634.50	13.317
634.83	13.279
635.16	13.186
635.48	13.089
635.81	12.979
636.14	12.912
636.46	12.847
636.79	12.839
637.11	12.794
637.44	12.776
637.77	12.733
638.09	12.770
638.42	12.704
638.75	12.655
639.07	12.634
639.40	12.620
639.73	12.560
640.05	12.548
640.38	12.494
640.70	12.496
641.03	12.470
641.36	12.431
641.68	12.401
642.01	12.432
642.33	12.503
642.66	12.542
642.98	12.561
643.31	12.643
643.64	12.684
643.96	12.696
644.29	12.669
644.61	12.728
644.94	12.776
645.26	12.781
645.59	12.762
645.91	12.764
646.24	12.763
646.56	12.790
646.89	12.729
647.22	12.703
647.54	12.721
647.87	12.723
648.19	12.688
648.52	12.612
648.84	12.577
649.17	12.543
649.49	12.500
649.82	12.409
650.14	12.310
650.47	12.310
650.79	12.301
651.11	12.257
651.44	12.213
651.76	12.194
652.09	12.224
652.41	12.245
652.74	12.232
653.06	12.198
653.39	12.183
653.71	12.230
654.04	12.189
654.36	12.135
654.68	12.082
655.01	12.059
655.33	11.963
655.66	11.897
655.98	11.860
656.30	11.850
656.63	11.841
656.95	11.890
657.28	11.829
657.60	11.794
657.92	11.791
658.25	11.793
658.57	11.781
658.90	11.766
659.22	11.719
659.54	11.620
659.87	11.502
660.19	11.423
660.51	11.299
660.84	11.268
661.16	11.198
661.48	11.061
661.81	10.969
662.13	10.855
662.45	10.821
662.78	10.802
663.10	10.805
663.42	10.847
663.75	10.820
664.07	10.858
664.39	10.782
664.72	10.811
665.04	10.881
665.36	10.939
665.69	10.925
666.01	10.915
666.33	10.863
666.65	10.832
666.98	10.751
667.30	10.689
667.62	10.651
667.94	10.652
668.27	10.608
668.59	10.539
668.91	10.474
669.23	10.521
669.56	10.424
669.88	10.432
670.20	10.363
670.52	10.399
670.85	10.401
671.17	10.372
671.49	10.321
671.81	10.326
672.13	10.260
672.46	10.227
672.78	10.115
673.10	10.171
673.42	10.106
673.74	10.149
674.07	10.137
674.39	10.129
674.71	10.159
675.03	10.239
675.35	10.287
675.67	10.414
676.00	10.490
676.32	10.564
676.64	10.567
676.96	10.648
677.28	10.608
677.60	10.561
677.92	10.639
678.25	10.640
678.57	10.620
678.89	10.607
679.21	10.587
679.53	10.474
679.85	10.497
680.17	10.511
680.49	10.513
680.81	10.534
681.13	10.577
681.46	10.502
681.78	10.442
682.10	10.450
682.42	10.399
682.74	10.362
683.06	10.436
683.38	10.512
683.70	10.517
684.02	10.567
684.34	10.623
684.66	10.636
684.98	10.720
685.30	10.780
685.62	10.779
685.94	10.764
686.26	10.724
686.58	10.702
686.90	10.592
687.22	10.556
687.54	10.456
687.86	10.418
688.18	10.401
688.50	10.334
688.82	10.257
689.14	10.206
689.46	10.171
689.78	10.188
690.10	10.122
690.42	10.082
690.74	9.980
691.06	9.878
691.38	9.729
691.70	9.607
692.02	9.528
692.34	9.440
692.66	9.480
692.98	9.413
693.30	9.371
693.62	9.328
693.94	9.291
694.26	9.348
694.57	9.403
694.89	9.479
695.21	9.491
695.53	9.558
695.85	9.646
696.17	9.595
696.49	9.629
696.81	9.642
697.13	9.649
697.44	9.624
697.76	9.599
698.08	9.519
698.40	9.398
698.72	9.274
699.04	9.045
699.36	8.810
699.67	8.578
699.99	8.337
700.31	8.030
700.63	7.645
700.95	7.286
701.27	6.918
701.58	6.616
701.90	6.460
702.22	6.376
702.54	6.173
702.86	5.913
703.17	5.779
703.49	5.585
703.81	5.439
704.13	5.358
704.45	5.241
704.76	5.015
705.08	4.958
705.40	4.839
705.72	4.618
706.03	4.533
706.35	4.529
706.67	4.388
706.99	4.347
707.30	4.190
707.62	4.256
707.94	4.175
708.26	4.141
708.57	4.111
708.89	3.934
709.21	3.851
709.53	3.829
709.84	3.750
710.16	3.651
710.48	3.472
710.79	3.560
711.11	3.383
711.43	3.536
711.74	3.609
712.06	3.567
712.38	3.676
712.69	3.779
713.01	3.879
713.33	4.026
713.64	4.164
713.96	4.526
714.28	4.666
714.59	4.918
714.91	5.071
715.23	5.306
715.54	5.451
715.86	5.607
716.17	5.623
716.49	5.646
716.81	5.474
717.12	5.361
717.44	5.143
717.76	4.909
718.07	4.703
718.39	4.282
718.70	3.899
719.02	3.380
719.33	2.838
719.65	2.533
719.97	2.134
720.28	1.938
720.60	1.783
720.91	1.526
721.23	1.413
721.54	1.218
721.86	1.241
722.17	1.288
722.49	1.509
722.81	1.693
723.12	1.748
723.44	1.986
723.75	2.015
724.07	2.097
724.38	2.093
724.70	2.148
725.01	2.176
725.33	2.085
725.64	2.020
725.96	1.916
726.27	1.845
726.59	1.704
726.90	1.362
727.22	1.251
727.53	1.068
727.84	0.897
728.16	0.575
728.47	0.238
728.79	0.021
729.10	-0.426
729.42	-0.820
729.73	-1.294
730.05	-1.775
730.36	-2.222
730.67	-2.776
730.99	-3.215
731.30	-3.824
731.62	-4.465
731.93	-5.078
732.24	-5.829
732.56	-6.442
732.87	-7.076
733.19	-7.743
733.50	-8.483
733.81	-9.078
734.13	-9.572
734.44	-10.267
734.76	-10.821
735.07	-11.481
735.38	-12.109
735.70	-12.778
736.01	-12.999
736.32	-13.598
736.64	-14.099
736.95	-14.443
737.26	-14.853
737.58	-15.394
737.89	-15.943
738.20	-16.514
738.52	-16.874
738.83	-17.348
739.14	-17.833
739.45	-19.000
739.77	-19.491
740.08	-20.544
740.39	-21.502
740.71	-22.461
741.02	-23.517
741.33	-24.657
741.64	-25.472
741.96	-26.481
742.27	-27.245
742.58	-28.189
742.90	-28.499
743.21	-29.332
743.52	-29.821
743.83	-30.264
744.14	-31.016
744.46	-31.302
744.77	-31.604
745.08	-31.842
745.39	-32.150
745.71	-32.486
746.02	-32.388
746.33	-32.649
746.64	-32.224
746.95	-32.056
747.27	-32.176
747.58	-32.037
747.89	-31.979
748.20	-31.864
748.51	-32.025
748.82	-31.840
749.14	-31.810
749.45	-32.031
749.76	-32.282
750.07	-32.701
750.38	-32.928
750.69	-32.986
751.01	-33.237
751.32	-33.830
751.63	-34.144
751.94	-34.461
752.25	-34.498
752.56	-34.614
752.87	-34.622
753.18	-34.564
753.49	-34.739
753.81	-34.288
754.12	-33.494
754.43	-32.683
754.74	-31.232
755.05	-29.014
755.36	-26.692
755.67	-24.774
755.98	-22.058
756.29	-19.548
756.60	-16.958
756.91	-14.217
757.22	-11.481
757.53	-8.912
757.84	-6.440
758.15	-4.042
758.46	-2.274
758.77	-0.484
759.09	0.891
759.40	1.847
759.71	2.719
760.02	3.466
760.33	3.961
760.64	4.081
760.95	4.184
761.26	3.984
761.57	3.694
761.88	3.142
762.18	2.558
762.49	2.142
762.80	1.513
763.11	0.656
763.42	-0.428
763.73	-1.730
764.04	-3.080
764.35	-4.914
764.66	-6.593
764.97	-8.772
765.28	-10.812
765.59	-13.907
765.90	-17.045
766.21	-20.461
766.52	-23.258
766.83	-26.490
767.14	-29.248
767.44	-32.201
767.75	-34.719
768.06	-37.564
768.37	-39.753
768.68	-42.121
768.99	-42.941
769.30	-44.972
769.61	-46.481
769.91	-48.710
770.22	-49.442
770.53	-50.891
770.84	-51.823
771.15	-52.917
771.46	-54.047
771.77	-55.044
772.07	-56.391
772.38	-57.562
772.69	-57.830
773.00	-57.966
773.31	-58.009
773.61	-58.702
773.92	-58.675
774.23	-59.139
774.54	-59.284
774.85	-58.644
775.15	-57.953
775.46	-57.550
775.77	-57.576
776.08	-57.871
776.39	-57.703
776.69	-57.594
777.00	-57.520
777.31	-57.876
777.62	-57.260
777.92	-56.732
778.23	-56.193
778.54	-56.604
778.85	-56.523
779.15	-56.503
779.46	-55.886
779.77	-56.292
780.07	-56.195
780.38	-56.347
780.69	-55.829
781.00	-56.599
781.30	-56.494
781.61	-57.273
781.92	-56.686
782.22	-56.147
782.53	-55.457
782.84	-54.929
783.14	-54.520
783.45	-53.269
783.76	-51.416
784.06	-49.889
784.37	-47.077
784.68	-44.874
784.98	-42.671
785.29	-40.498
785.60	-38.829
785.90	-36.818
786.21	-34.967
786.51	-33.049
786.82	-31.561
787.13	-30.329
787.43	-29.366
787.74	-28.786
788.04	-28.700
788.35	-28.206
788.66	-28.367
788.96	-28.454
789.27	-29.188
789.57	-29.650
789.88	-30.295
790.19	-31.078
790.49	-32.463
790.80	-33.771
791.10	-34.197
791.41	-33.970
791.71	-34.637
792.02	-34.839
792.32	-34.872
792.63	-34.471
792.93	-33.699
793.24	-32.532
793.54	-32.128
793.85	-30.997
794.15	-29.404
794.46	-29.050
794.76	-28.920
795.07	-28.097
795.37	-27.090
795.68	-26.594
795.98	-25.909
796.29	-25.697
796.59	-25.594
796.90	-25.210
797.20	-25.209
797.51	-25.090
797.81	-24.883
798.12	-24.797
798.42	-24.622
798.72	-24.702
799.03	-24.077
799.33	-23.994
799.64	-24.118
799.94	-24.523
800.25	-24.374
800.55	-23.718
800.85	-23.716
801.16	-24.433
801.46	-24.446
801.77	-24.762
802.07	-25.278
802.37	-25.800
802.68	-26.253
802.98	-26.414
803.28	-26.547
803.59	-27.288
803.89	-27.770
804.20	-28.361
804.50	-27.426
804.80	-27.693
805.11	-27.564
805.41	-27.541
805.71	-27.370
806.02	-27.235
806.32	-26.683
806.62	-26.617
806.93	-25.680
807.23	-25.471
807.53	-24.410
807.83	-25.112
808.14	-24.402
808.44	-24.154
808.74	-23.282
809.05	-22.691
809.35	-21.462
809.65	-21.496
809.95	-19.974
810.26	-19.644
810.56	-18.775
810.86	-18.061
811.16	-16.145
811.47	-15.130
811.77	-13.506
812.07	-12.960
812.37	-11.426
812.68	-10.775
812.98	-9.559
813.28	-8.562
813.58	-7.563
813.88	-6.706
814.19	-5.145
814.49	-5.117
814.79	-4.227
815.09	-3.776
815.39	-3.061
815.70	-2.810
816.00	-2.565
816.30	-2.030
816.60	-1.331
816.90	-0.315
817.20	0.572
817.50	1.433
817.81	3.428
818.11	4.767
818.41	5.732
818.71	6.783
819.01	7.505
819.31	8.201
819.61	8.716
819.92	9.017
820.22	9.222
820.52	9.520
820.82	9.705
821.12	9.747
821.42	9.854
821.72	10.023
822.02	10.019
822.32	10.025
822.62	10.055
822.92	9.973
823.22	9.899
823.52	9.806
823.83	9.557
824.13	9.406
824.43	9.215
824.73	8.970
825.03	8.617
825.33	8.434
825.63	8.255
825.93	7.968
826.23	7.796
826.53	7.646
826.83	7.643
827.13	7.655
827.43	7.507
827.73	7.325
828.03	7.081
828.33	6.821
828.63	6.215
828.93	5.587
829.23	4.976
829.53	4.299
829.83	3.499
830.13	2.499
830.42	2.020
830.72	1.791
831.02	1.943
831.32	1.933
831.62	2.232
831.92	2.699
832.22	3.058
832.52	3.254
832.82	3.468
833.12	3.600
833.42	3.817
833.72	3.564
834.01	3.378
834.31	3.188
834.61	2.856
834.91	1.867
835.21	1.150
835.51	0.380
835.81	-0.380
836.11	-1.553
836.40	-2.662
836.70	-4.286
837.00	-5.461
837.30	-7.373
837.60	-9.717
837.90	-11.357
838.19	-11.900
838.49	-12.238
838.79	-12.665
839.09	-13.648
839.39	-13.850
839.68	-14.567
839.98	-14.436
840.28	-15.005
840.58	-15.204
840.88	-15.899
841.17	-17.136
841.47	-17.707
841.77	-18.971
842.07	-22.089
842.36	-24.538
842.66	-25.807
842.96	-27.877
843.26	-32.627
843.55	-37.587
843.85	-42.569
844.15	-44.865
844.45	-46.635
844.74	-50.619
845.04	-55.834
845.34	-55.736
845.63	-57.875
845.93	-62.215
846.23	-64.759
846.53	-63.861
846.82	-61.752
847.12	-62.039
847.42	-61.886
847.71	-61.399
848.01	-62.271
848.31	-60.477
848.60	-62.354
848.90	-58.357
849.19	-60.627
849.49	-58.508
849.79	-59.360
850.08	-59.310
850.38	-56.285
850.68	-53.518
850.97	-50.398
851.27	-48.731
851.56	-47.533
851.86	-43.478
852.16	-46.418
852.45	-44.151
852.75	-46.216
853.04	-43.331
853.34	-43.485
853.64	-43.477
853.93	-45.899
854.23	-51.055
854.52	-52.178
854.82	-53.496
855.11	-54.977
855.41	-52.254
855.70	-53.459
856.00	-49.448
856.30	-52.933
856.59	-52.209
856.89	-55.962
857.18	-55.973
857.48	-50.439
857.77	-49.083
858.07	-50.274
858.36	-51.708
858.66	-52.545
858.95	-48.015
859.25	-47.732
859.54	-48.428
859.84	-49.497
860.13	-50.301
860.42	-46.313
860.72	-49.011
861.01	-49.314
861.31	-47.795
861.60	-49.312
861.90	-48.066
862.19	-50.975
862.49	-52.320
862.78	-46.936
863.07	-44.777
863.37	-40.726
863.66	-40.512
863.96	-39.094
864.25	-38.015
864.54	-36.777
864.84	-33.614
865.13	-35.095
865.43	-34.200
865.72	-38.908
866.01	-27.277
866.31	-27.623
866.60	-53.951
866.89	-39.136
>>>>>End Spectral Data<<<<<
