OOIBase32 Version 2.0.0.6 Data File
++++++++++++++++++++++++++++++++++++
Date: 01-22-2012, 21:59:25
User: Valued Ocean Optics Customer
Spectrometer Serial Number: USB2E2917
Spectrometer Channel: Master
Integration Time (msec): 4
Spectra Averaged: 10
Boxcar Smoothing: 5
Correct for Electrical Dark: Enabled
Time Normalized: Disabled
Dual-beam Reference: Disabled
Reference Channel: Master
Temperature: Not acquired
Spectrometer Type: S2000
ADC Type: USB2000
Number of Pixels in File: 2048
Graph Title: 
>>>>>Begin Spectral Data<<<<<
180.30	0.000
180.67	0.000
181.03	204.942
181.40	111.479
181.77	1214.400
182.14	80.145
182.51	87.142
182.88	77.918
183.25	4.152
183.62	85.799
183.99	125.933
184.36	-73.476
184.73	8.037
185.10	-444.365
185.46	177.953
185.83	3031.796
186.20	-28.756
186.57	380.356
186.94	-111.949
187.31	108.100
187.68	212.741
188.05	219.484
188.42	181.601
188.78	-647.536
189.15	-169.780
189.52	-133.082
189.89	-110.096
190.26	-59.453
190.63	-19.772
191.00	21.776
191.37	26.577
191.73	-34.692
192.10	-24.013
192.47	-7.603
192.84	12.352
193.21	19.892
193.58	29.375
193.94	30.787
194.31	13.076
194.68	25.438
195.05	16.416
195.42	15.185
195.79	23.712
196.15	39.564
196.52	43.345
196.89	56.034
197.26	66.953
197.63	79.832
198.00	107.933
198.36	156.303
198.73	218.368
199.10	274.036
199.47	119.955
199.84	101.078
200.20	83.089
200.57	68.045
200.94	16.340
201.31	-10.953
201.68	-23.146
202.04	-3.774
202.41	5.811
202.78	14.682
203.15	9.132
203.51	28.452
203.88	42.365
204.25	39.244
204.62	39.365
204.98	48.709
205.35	61.399
205.72	63.022
206.09	51.884
206.46	34.918
206.82	24.353
207.19	11.415
207.56	-7.644
207.92	-8.991
208.29	7.663
208.66	29.764
209.03	49.129
209.39	40.217
209.76	38.133
210.13	19.691
210.50	16.781
210.86	26.058
211.23	35.314
211.60	50.356
211.96	51.639
212.33	38.903
212.70	-6.399
213.07	10.350
213.43	41.524
213.80	47.862
214.17	88.695
214.53	97.575
214.90	84.046
215.27	89.316
215.63	87.798
216.00	54.165
216.37	52.862
216.74	51.384
217.10	44.800
217.47	43.568
217.84	42.994
218.20	37.352
218.57	20.606
218.94	10.457
219.30	-22.220
219.67	-19.464
220.04	0.085
220.40	1.911
220.77	5.090
221.13	15.178
221.50	-1.124
221.87	-1.325
222.23	-5.550
222.60	-2.775
222.97	5.199
223.33	10.239
223.70	16.594
224.07	18.151
224.43	19.858
224.80	16.244
225.16	11.090
225.53	11.857
225.90	12.260
226.26	12.805
226.63	12.448
226.99	10.686
227.36	10.793
227.73	8.973
228.09	9.757
228.46	9.490
228.82	11.113
229.19	10.060
229.56	9.957
229.92	8.561
230.29	6.986
230.65	9.830
231.02	10.549
231.38	8.615
231.75	10.237
232.12	8.337
232.48	6.482
232.85	4.459
233.21	5.915
233.58	6.027
233.94	3.813
234.31	6.251
234.68	4.544
235.04	6.515
235.41	10.725
235.77	9.494
236.14	9.187
236.50	6.906
236.87	7.002
237.23	5.650
237.60	7.237
237.96	8.797
238.33	6.965
238.69	6.640
239.06	6.666
239.42	6.005
239.79	6.638
240.15	7.471
240.52	8.382
240.88	8.521
241.25	8.602
241.61	7.638
241.98	6.522
242.34	6.402
242.71	6.155
243.07	5.668
243.44	5.351
243.80	4.848
244.17	5.243
244.53	5.415
244.90	5.785
245.26	6.055
245.63	6.417
245.99	7.164
246.36	7.154
246.72	7.090
247.09	7.369
247.45	7.755
247.81	8.089
248.18	7.877
248.54	7.815
248.91	7.658
249.27	7.488
249.64	7.583
250.00	7.107
250.36	7.299
250.73	7.803
251.09	7.321
251.46	7.128
251.82	7.189
252.19	6.346
252.55	6.756
252.91	6.152
253.28	6.048
253.64	6.726
254.01	7.298
254.37	8.144
254.73	7.363
255.10	7.780
255.46	7.706
255.83	7.395
256.19	7.849
256.55	7.633
256.92	7.464
257.28	7.476
257.65	6.792
258.01	6.465
258.37	6.041
258.74	6.194
259.10	6.016
259.46	5.894
259.83	5.917
260.19	5.746
260.55	5.846
260.92	6.048
261.28	5.961
261.64	6.309
262.01	6.333
262.37	6.397
262.73	6.221
263.10	6.656
263.46	7.109
263.82	7.066
264.19	7.072
264.55	6.499
264.91	6.116
265.28	6.219
265.64	6.268
266.00	6.732
266.37	6.458
266.73	6.619
267.09	6.158
267.46	5.760
267.82	5.656
268.18	5.502
268.54	5.822
268.91	6.077
269.27	6.402
269.63	6.276
270.00	5.880
270.36	6.094
270.72	5.896
271.08	6.056
271.45	6.085
271.81	6.212
272.17	6.124
272.53	5.999
272.90	5.871
273.26	5.893
273.62	5.837
273.98	6.001
274.35	6.148
274.71	6.308
275.07	6.531
275.43	6.806
275.80	6.830
276.16	7.167
276.52	7.203
276.88	7.497
277.25	7.186
277.61	7.179
277.97	7.279
278.33	7.056
278.69	7.235
279.06	7.044
279.42	6.967
279.78	7.098
280.14	7.068
280.50	7.038
280.87	6.832
281.23	6.701
281.59	6.741
281.95	6.676
282.31	7.014
282.68	6.609
283.04	6.562
283.40	6.423
283.76	6.267
284.12	6.242
284.48	6.213
284.85	6.321
285.21	6.289
285.57	6.179
285.93	6.022
286.29	5.666
286.65	5.925
287.02	5.860
287.38	5.894
287.74	5.837
288.10	5.608
288.46	5.536
288.82	5.372
289.18	5.567
289.54	5.499
289.91	5.358
290.27	5.273
290.63	5.244
290.99	5.409
291.35	5.354
291.71	5.512
292.07	5.588
292.43	5.581
292.79	5.386
293.16	5.180
293.52	5.346
293.88	5.498
294.24	5.573
294.60	5.626
294.96	5.541
295.32	5.533
295.68	5.473
296.04	5.403
296.40	5.442
296.76	5.610
297.12	5.702
297.49	5.662
297.85	5.629
298.21	5.696
298.57	5.858
298.93	5.686
299.29	5.497
299.65	5.498
300.01	5.563
300.37	5.447
300.73	5.383
301.09	5.343
301.45	5.321
301.81	5.287
302.17	5.305
302.53	5.166
302.89	5.467
303.25	5.820
303.61	5.855
303.97	5.932
304.33	6.169
304.69	6.221
305.05	6.216
305.41	6.150
305.77	6.332
306.13	6.302
306.49	5.977
306.85	5.738
307.21	5.618
307.57	5.571
307.93	5.455
308.29	5.354
308.65	5.288
309.01	5.170
309.37	5.271
309.73	5.022
310.09	5.014
310.45	5.091
310.81	5.053
311.17	4.877
311.53	4.732
311.89	4.793
312.25	4.539
312.61	4.538
312.96	4.662
313.32	4.511
313.68	4.503
314.04	4.548
314.40	4.598
314.76	4.754
315.12	4.808
315.48	4.816
315.84	4.788
316.20	5.295
316.56	5.211
316.92	5.156
317.27	5.296
317.63	5.442
317.99	5.394
318.35	5.392
318.71	5.323
319.07	5.335
319.43	5.298
319.79	5.095
320.15	4.815
320.50	4.999
320.86	4.898
321.22	4.832
321.58	4.743
321.94	4.582
322.30	4.529
322.66	4.539
323.01	4.548
323.37	4.741
323.73	5.055
324.09	4.936
324.45	4.701
324.81	4.709
325.17	4.470
325.52	4.462
325.88	4.471
326.24	4.446
326.60	4.349
326.96	4.237
327.31	4.164
327.67	3.990
328.03	4.077
328.39	4.208
328.75	4.203
329.11	4.390
329.46	4.388
329.82	4.483
330.18	4.477
330.54	4.616
330.90	4.818
331.25	4.832
331.61	4.830
331.97	4.857
332.33	4.924
332.68	5.043
333.04	5.129
333.40	5.312
333.76	5.305
334.11	5.361
334.47	5.349
334.83	5.208
335.19	5.150
335.54	5.160
335.90	5.235
336.26	5.295
336.62	5.110
336.97	4.949
337.33	4.738
337.69	4.575
338.05	4.677
338.40	4.722
338.76	4.885
339.12	4.877
339.48	4.948
339.83	4.811
340.19	4.738
340.55	4.770
340.90	4.848
341.26	4.951
341.62	5.220
341.97	5.055
342.33	4.935
342.69	4.998
343.04	5.025
343.40	4.898
343.76	4.873
344.12	4.870
344.47	5.051
344.83	5.066
345.19	5.093
345.54	4.934
345.90	4.995
346.26	4.967
346.61	4.811
346.97	4.767
347.32	4.873
347.68	4.900
348.04	4.928
348.39	4.718
348.75	4.566
349.11	4.443
349.46	4.483
349.82	4.458
350.18	4.525
350.53	4.417
350.89	4.446
351.24	4.443
351.60	4.541
351.96	4.521
352.31	4.609
352.67	4.819
353.02	4.957
353.38	4.919
353.74	4.880
354.09	4.814
354.45	4.966
354.80	4.985
355.16	4.932
355.52	4.822
355.87	4.712
356.23	4.807
356.58	4.756
356.94	4.729
357.29	4.733
357.65	4.863
358.00	4.863
358.36	4.823
358.72	4.775
359.07	4.765
359.43	4.823
359.78	4.838
360.14	4.765
360.49	4.736
360.85	4.730
361.20	4.740
361.56	4.600
361.91	4.649
362.27	4.697
362.62	4.649
362.98	4.705
363.33	4.685
363.69	4.684
364.04	4.695
364.40	4.644
364.75	4.529
365.11	4.511
365.46	4.584
365.82	4.528
366.17	4.525
366.53	4.556
366.88	4.548
367.24	4.646
367.59	4.677
367.95	4.720
368.30	4.788
368.66	4.922
369.01	4.913
369.37	4.926
369.72	5.004
370.08	4.937
370.43	4.997
370.78	4.979
371.14	4.907
371.49	4.911
371.85	4.885
372.20	4.923
372.56	4.947
372.91	4.981
373.26	4.969
373.62	4.944
373.97	4.957
374.33	4.947
374.68	4.934
375.03	4.965
375.39	4.961
375.74	4.925
376.10	4.911
376.45	4.936
376.80	4.948
377.16	4.968
377.51	4.998
377.87	5.084
378.22	5.143
378.57	5.227
378.93	5.241
379.28	5.381
379.63	5.453
379.99	5.512
380.34	5.553
380.70	5.608
381.05	5.655
381.40	5.692
381.76	5.723
382.11	5.781
382.46	5.779
382.82	5.800
383.17	5.728
383.52	5.774
383.88	5.809
384.23	5.756
384.58	5.793
384.94	5.772
385.29	5.799
385.64	5.768
385.99	5.760
386.35	5.812
386.70	5.812
387.05	5.828
387.41	5.795
387.76	5.761
388.11	5.808
388.47	5.816
388.82	5.809
389.17	5.832
389.52	5.839
389.88	5.842
390.23	5.813
390.58	5.862
390.93	5.938
391.29	6.008
391.64	6.058
391.99	6.079
392.34	6.099
392.70	6.106
393.05	6.090
393.40	6.125
393.75	6.085
394.11	6.092
394.46	6.073
394.81	6.037
395.16	5.965
395.52	5.911
395.87	5.842
396.22	5.798
396.57	5.786
396.92	5.740
397.28	5.698
397.63	5.704
397.98	5.699
398.33	5.676
398.68	5.644
399.04	5.653
399.39	5.658
399.74	5.670
400.09	5.692
400.44	5.736
400.80	5.747
401.15	5.775
401.50	5.827
401.85	5.863
402.20	5.887
402.55	5.911
402.90	5.972
403.26	6.021
403.61	6.077
403.96	6.108
404.31	6.218
404.66	6.278
405.01	6.359
405.36	6.381
405.72	6.423
406.07	6.465
406.42	6.521
406.77	6.499
407.12	6.554
407.47	6.596
407.82	6.629
408.17	6.570
408.53	6.634
408.88	6.676
409.23	6.706
409.58	6.746
409.93	6.792
410.28	6.852
410.63	6.956
410.98	6.973
411.33	7.021
411.68	7.071
412.03	7.159
412.38	7.203
412.73	7.279
413.09	7.424
413.44	7.546
413.79	7.672
414.14	7.785
414.49	7.916
414.84	8.074
415.19	8.209
415.54	8.328
415.89	8.449
416.24	8.620
416.59	8.717
416.94	8.814
417.29	8.877
417.64	8.983
417.99	9.047
418.34	9.103
418.69	9.158
419.04	9.210
419.39	9.299
419.74	9.384
420.09	9.417
420.44	9.478
420.79	9.519
421.14	9.595
421.49	9.635
421.84	9.690
422.19	9.732
422.54	9.781
422.89	9.851
423.24	9.869
423.59	9.904
423.94	9.931
424.29	9.951
424.64	9.963
424.99	9.996
425.34	10.031
425.68	10.074
426.03	10.123
426.38	10.183
426.73	10.221
427.08	10.285
427.43	10.340
427.78	10.410
428.13	10.471
428.48	10.537
428.83	10.551
429.18	10.588
429.53	10.638
429.87	10.717
430.22	10.765
430.57	10.815
430.92	10.893
431.27	10.931
431.62	10.966
431.97	10.990
432.32	11.031
432.67	11.092
433.01	11.124
433.36	11.162
433.71	11.195
434.06	11.241
434.41	11.287
434.76	11.300
435.11	11.333
435.45	11.375
435.80	11.449
436.15	11.515
436.50	11.570
436.85	11.648
437.20	11.710
437.54	11.754
437.89	11.784
438.24	11.821
438.59	11.872
438.94	11.899
439.29	11.922
439.63	11.966
439.98	11.992
440.33	12.020
440.68	12.046
441.03	12.087
441.37	12.138
441.72	12.187
442.07	12.231
442.42	12.283
442.76	12.367
443.11	12.413
443.46	12.455
443.81	12.484
444.16	12.527
444.50	12.554
444.85	12.545
445.20	12.545
445.55	12.548
445.89	12.546
446.24	12.525
446.59	12.491
446.94	12.477
447.28	12.427
447.63	12.416
447.98	12.369
448.32	12.342
448.67	12.362
449.02	12.370
449.37	12.360
449.71	12.391
450.06	12.433
450.41	12.488
450.75	12.529
451.10	12.560
451.45	12.576
451.79	12.635
452.14	12.672
452.49	12.695
452.84	12.710
453.18	12.745
453.53	12.783
453.88	12.819
454.22	12.887
454.57	12.955
454.92	13.083
455.26	13.192
455.61	13.272
455.95	13.343
456.30	13.416
456.65	13.475
456.99	13.559
457.34	13.627
457.69	13.687
458.03	13.707
458.38	13.742
458.73	13.742
459.07	13.759
459.42	13.770
459.76	13.769
460.11	13.776
460.46	13.817
460.80	13.828
461.15	13.832
461.49	13.840
461.84	13.863
462.19	13.894
462.53	13.952
462.88	14.006
463.22	14.069
463.57	14.165
463.91	14.249
464.26	14.307
464.61	14.390
464.95	14.442
465.30	14.529
465.64	14.611
465.99	14.689
466.33	14.740
466.68	14.782
467.02	14.813
467.37	14.847
467.71	14.879
468.06	14.931
468.41	14.957
468.75	14.991
469.10	15.001
469.44	14.992
469.79	15.010
470.13	15.023
470.48	15.047
470.82	15.074
471.17	15.076
471.51	15.102
471.86	15.119
472.20	15.130
472.55	15.136
472.89	15.148
473.23	15.158
473.58	15.155
473.92	15.173
474.27	15.178
474.61	15.167
474.96	15.189
475.30	15.170
475.65	15.152
475.99	15.138
476.34	15.157
476.68	15.151
477.02	15.179
477.37	15.210
477.71	15.251
478.06	15.329
478.40	15.498
478.75	15.720
479.09	15.947
479.43	16.202
479.78	16.439
480.12	16.653
480.47	16.856
480.81	17.046
481.15	17.203
481.50	17.347
481.84	17.509
482.19	17.655
482.53	17.731
482.87	17.754
483.22	17.758
483.56	17.749
483.90	17.725
484.25	17.698
484.59	17.644
484.94	17.591
485.28	17.522
485.62	17.414
485.97	17.292
486.31	17.233
486.65	17.237
487.00	17.234
487.34	17.223
487.68	17.242
488.03	17.226
488.37	17.256
488.71	17.274
489.06	17.318
489.40	17.358
489.74	17.382
490.09	17.393
490.43	17.386
490.77	17.355
491.11	17.365
491.46	17.342
491.80	17.362
492.14	17.333
492.49	17.331
492.83	17.320
493.17	17.309
493.51	17.338
493.86	17.353
494.20	17.412
494.54	17.498
494.88	17.587
495.23	17.709
495.57	17.814
495.91	17.905
496.25	18.015
496.60	18.113
496.94	18.195
497.28	18.282
497.62	18.370
497.97	18.442
498.31	18.576
498.65	18.696
498.99	18.791
499.33	18.889
499.68	19.034
500.02	19.171
500.36	19.309
500.70	19.470
501.04	19.590
501.39	19.749
501.73	19.921
502.07	20.042
502.41	20.194
502.75	20.324
503.09	20.495
503.44	20.666
503.78	20.794
504.12	20.941
504.46	21.108
504.80	21.288
505.14	21.462
505.49	21.605
505.83	21.769
506.17	21.920
506.51	22.085
506.85	22.226
507.19	22.355
507.53	22.508
507.87	22.655
508.22	22.814
508.56	22.935
508.90	23.039
509.24	23.187
509.58	23.303
509.92	23.406
510.26	23.524
510.60	23.624
510.94	23.740
511.28	23.849
511.63	23.987
511.97	24.077
512.31	24.207
512.65	24.361
512.99	24.503
513.33	24.653
513.67	24.815
514.01	24.972
514.35	25.133
514.69	25.265
515.03	25.443
515.37	25.536
515.71	25.651
516.05	25.796
516.39	25.910
516.73	25.988
517.07	26.067
517.41	26.115
517.75	26.174
518.09	26.220
518.43	26.246
518.77	26.248
519.11	26.283
519.45	26.322
519.79	26.324
520.13	26.340
520.47	26.378
520.81	26.451
521.15	26.533
521.49	26.648
521.83	26.750
522.17	26.894
522.51	27.051
522.85	27.267
523.19	27.513
523.53	27.826
523.87	28.163
524.21	28.511
524.55	28.779
524.89	29.060
525.23	29.277
525.57	29.501
525.91	29.707
526.25	29.873
526.58	29.984
526.92	30.095
527.26	30.145
527.60	30.141
527.94	30.114
528.28	30.083
528.62	30.041
528.96	29.979
529.30	29.909
529.64	29.818
529.97	29.736
530.31	29.679
530.65	29.602
530.99	29.542
531.33	29.530
531.67	29.510
532.01	29.529
532.35	29.507
532.68	29.505
533.02	29.478
533.36	29.453
533.70	29.426
534.04	29.394
534.38	29.355
534.71	29.324
535.05	29.294
535.39	29.279
535.73	29.292
536.07	29.306
536.41	29.368
536.74	29.506
537.08	29.649
537.42	29.806
537.76	29.962
538.10	30.124
538.43	30.279
538.77	30.415
539.11	30.542
539.45	30.644
539.79	30.771
540.12	30.847
540.46	30.830
540.80	30.846
541.14	30.816
541.47	30.772
541.81	30.692
542.15	30.634
542.49	30.570
542.82	30.484
543.16	30.355
543.50	30.210
543.84	30.091
544.17	30.046
544.51	29.977
544.85	29.920
545.18	29.884
545.52	29.863
545.86	29.792
546.20	29.761
546.53	29.669
546.87	29.673
547.21	29.642
547.54	29.615
547.88	29.598
548.22	29.572
548.55	29.566
548.89	29.589
549.23	29.612
549.56	29.666
549.90	29.639
550.24	29.720
550.57	29.747
550.91	29.772
551.25	29.800
551.58	29.799
551.92	29.807
552.26	29.819
552.59	29.814
552.93	29.812
553.27	29.781
553.60	29.793
553.94	29.782
554.27	29.751
554.61	29.750
554.95	29.783
555.28	29.791
555.62	29.815
555.95	29.860
556.29	29.858
556.63	29.874
556.96	29.907
557.30	29.952
557.63	30.005
557.97	30.031
558.31	30.066
558.64	30.071
558.98	30.114
559.31	30.161
559.65	30.176
559.98	30.201
560.32	30.255
560.65	30.322
560.99	30.343
561.33	30.365
561.66	30.468
562.00	30.579
562.33	30.687
562.67	30.770
563.00	30.827
563.34	30.901
563.67	30.982
564.01	31.018
564.34	31.075
564.68	31.143
565.01	31.198
565.35	31.200
565.68	31.168
566.02	31.172
566.35	31.228
566.69	31.261
567.02	31.276
567.36	31.278
567.69	31.299
568.03	31.326
568.36	31.324
568.69	31.345
569.03	31.353
569.36	31.433
569.70	31.442
570.03	31.469
570.37	31.483
570.70	31.516
571.04	31.547
571.37	31.585
571.70	31.573
572.04	31.602
572.37	31.599
572.71	31.626
573.04	31.648
573.37	31.641
573.71	31.612
574.04	31.601
574.38	31.624
574.71	31.664
575.04	31.665
575.38	31.659
575.71	31.663
576.05	31.673
576.38	31.676
576.71	31.604
577.05	31.596
577.38	31.583
577.71	31.545
578.05	31.458
578.38	31.418
578.71	31.383
579.05	31.349
579.38	31.334
579.71	31.313
580.05	31.272
580.38	31.258
580.71	31.272
581.05	31.208
581.38	31.219
581.71	31.230
582.05	31.218
582.38	31.184
582.71	31.206
583.04	31.190
583.38	31.198
583.71	31.219
584.04	31.261
584.38	31.251
584.71	31.310
585.04	31.360
585.37	31.394
585.71	31.435
586.04	31.519
586.37	31.574
586.70	31.628
587.04	31.672
587.37	31.690
587.70	31.713
588.03	31.717
588.37	31.778
588.70	31.741
589.03	31.736
589.36	31.720
589.69	31.655
590.03	31.639
590.36	31.607
590.69	31.575
591.02	31.540
591.35	31.488
591.69	31.492
592.02	31.446
592.35	31.491
592.68	31.469
593.01	31.406
593.35	31.437
593.68	31.373
594.01	31.335
594.34	31.323
594.67	31.303
595.00	31.286
595.34	31.257
595.67	31.230
596.00	31.162
596.33	31.150
596.66	31.125
596.99	31.058
597.32	31.025
597.65	30.983
597.99	30.916
598.32	30.857
598.65	30.824
598.98	30.778
599.31	30.706
599.64	30.696
599.97	30.643
600.30	30.646
600.63	30.654
600.96	30.679
601.30	30.682
601.63	30.679
601.96	30.683
602.29	30.627
602.62	30.607
602.95	30.619
603.28	30.561
603.61	30.517
603.94	30.427
604.27	30.370
604.60	30.308
604.93	30.249
605.26	30.190
605.59	30.132
605.92	30.071
606.25	30.015
606.58	29.931
606.91	29.944
607.24	29.950
607.57	29.961
607.90	29.957
608.23	29.883
608.56	29.836
608.89	29.814
609.22	29.775
609.55	29.798
609.88	29.757
610.21	29.715
610.54	29.591
610.87	29.505
611.20	29.430
611.53	29.289
611.86	29.246
612.19	29.202
612.52	29.101
612.85	29.025
613.18	28.974
613.51	28.971
613.84	28.921
614.17	28.936
614.49	28.935
614.82	28.896
615.15	28.893
615.48	28.864
615.81	28.791
616.14	28.757
616.47	28.741
616.80	28.705
617.13	28.625
617.46	28.636
617.78	28.556
618.11	28.483
618.44	28.444
618.77	28.409
619.10	28.397
619.43	28.452
619.76	28.453
620.09	28.410
620.41	28.362
620.74	28.332
621.07	28.277
621.40	28.255
621.73	28.209
622.06	28.229
622.38	28.216
622.71	28.206
623.04	28.140
623.37	28.133
623.70	28.154
624.02	28.095
624.35	28.113
624.68	28.088
625.01	28.100
625.34	28.110
625.66	28.085
625.99	28.065
626.32	28.015
626.65	27.967
626.98	27.923
627.30	27.853
627.63	27.821
627.96	27.757
628.29	27.646
628.61	27.552
628.94	27.463
629.27	27.370
629.60	27.273
629.92	27.174
630.25	27.091
630.58	27.086
630.91	27.063
631.23	27.000
631.56	27.003
631.89	27.007
632.21	26.961
632.54	26.880
632.87	26.811
633.19	26.765
633.52	26.707
633.85	26.644
634.18	26.502
634.50	26.408
634.83	26.407
635.16	26.291
635.48	26.183
635.81	26.130
636.14	26.102
636.46	26.028
636.79	25.968
637.11	25.985
637.44	25.945
637.77	25.889
638.09	25.823
638.42	25.768
638.75	25.679
639.07	25.655
639.40	25.569
639.73	25.529
640.05	25.467
640.38	25.455
640.70	25.407
641.03	25.384
641.36	25.377
641.68	25.365
642.01	25.311
642.33	25.320
642.66	25.312
642.98	25.372
643.31	25.417
643.64	25.487
643.96	25.480
644.29	25.446
644.61	25.462
644.94	25.482
645.26	25.502
645.59	25.478
645.91	25.494
646.24	25.464
646.56	25.400
646.89	25.357
647.22	25.258
647.54	25.170
647.87	25.153
648.19	25.169
648.52	25.075
648.84	25.023
649.17	24.961
649.49	24.887
649.82	24.857
650.14	24.770
650.47	24.696
650.79	24.674
651.11	24.667
651.44	24.594
651.76	24.497
652.09	24.437
652.41	24.414
652.74	24.367
653.06	24.339
653.39	24.228
653.71	24.201
654.04	24.136
654.36	24.132
654.68	24.035
655.01	23.993
655.33	23.921
655.66	23.922
655.98	23.897
656.30	23.814
656.63	23.757
656.95	23.763
657.28	23.765
657.60	23.728
657.92	23.683
658.25	23.646
658.57	23.602
658.90	23.520
659.22	23.441
659.54	23.302
659.87	23.286
660.19	23.223
660.51	23.128
660.84	23.034
661.16	22.952
661.48	22.824
661.81	22.764
662.13	22.669
662.45	22.631
662.78	22.553
663.10	22.520
663.42	22.427
663.75	22.358
664.07	22.351
664.39	22.285
664.72	22.277
665.04	22.350
665.36	22.319
665.69	22.329
666.01	22.331
666.33	22.302
666.65	22.289
666.98	22.275
667.30	22.175
667.62	22.126
667.94	22.116
668.27	22.057
668.59	21.951
668.91	21.988
669.23	21.964
669.56	21.897
669.88	21.877
670.20	21.789
670.52	21.781
670.85	21.805
671.17	21.736
671.49	21.631
671.81	21.561
672.13	21.466
672.46	21.378
672.78	21.273
673.10	21.220
673.42	21.147
673.74	21.140
674.07	21.087
674.39	21.059
674.71	21.117
675.03	21.137
675.35	21.188
675.67	21.298
676.00	21.323
676.32	21.332
676.64	21.324
676.96	21.353
677.28	21.347
677.60	21.311
677.92	21.283
678.25	21.192
678.57	21.190
678.89	21.146
679.21	21.071
679.53	21.017
679.85	21.020
680.17	21.035
680.49	21.014
680.81	20.975
681.13	20.954
681.46	20.981
681.78	20.996
682.10	20.925
682.42	20.927
682.74	20.910
683.06	20.932
683.38	20.952
683.70	20.904
684.02	20.880
684.34	20.881
684.66	20.969
684.98	20.953
685.30	20.973
685.62	20.970
685.94	20.905
686.26	20.796
686.58	20.763
686.90	20.659
687.22	20.648
687.54	20.577
687.86	20.533
688.18	20.378
688.50	20.257
688.82	20.178
689.14	20.189
689.46	20.178
689.78	20.206
690.10	20.109
690.42	20.046
690.74	19.930
691.06	19.903
691.38	19.791
691.70	19.798
692.02	19.731
692.34	19.683
692.66	19.556
692.98	19.377
693.30	19.294
693.62	19.203
693.94	19.168
694.26	19.161
694.57	19.148
694.89	19.141
695.21	19.073
695.53	19.121
695.85	19.087
696.17	19.141
696.49	19.207
696.81	19.181
697.13	19.242
697.44	19.185
697.76	19.136
698.08	19.022
698.40	18.869
698.72	18.765
699.04	18.560
699.36	18.344
699.67	18.055
699.99	17.725
700.31	17.457
700.63	16.958
700.95	16.643
701.27	16.374
701.58	16.058
701.90	15.966
702.22	15.764
702.54	15.625
702.86	15.432
703.17	15.257
703.49	15.229
703.81	15.052
704.13	15.078
704.45	14.931
704.76	14.721
705.08	14.693
705.40	14.507
705.72	14.412
706.03	14.293
706.35	14.235
706.67	14.122
706.99	13.981
707.30	13.903
707.62	13.829
707.94	13.714
708.26	13.691
708.57	13.640
708.89	13.514
709.21	13.437
709.53	13.355
709.84	13.283
710.16	13.159
710.48	12.945
710.79	12.970
711.11	12.865
711.43	12.973
711.74	12.990
712.06	12.971
712.38	13.136
712.69	13.203
713.01	13.357
713.33	13.472
713.64	13.712
713.96	14.045
714.28	14.186
714.59	14.398
714.91	14.503
715.23	14.638
715.54	14.764
715.86	14.795
716.17	14.747
716.49	14.662
716.81	14.541
717.12	14.353
717.44	14.195
717.76	13.957
718.07	13.713
718.39	13.463
718.70	13.182
719.02	12.764
719.33	12.347
719.65	12.059
719.97	11.742
720.28	11.511
720.60	11.354
720.91	11.021
721.23	10.972
721.54	10.848
721.86	10.750
722.17	10.884
722.49	10.925
722.81	11.105
723.12	11.122
723.44	11.248
723.75	11.261
724.07	11.358
724.38	11.343
724.70	11.317
725.01	11.206
725.33	11.179
725.64	11.005
725.96	11.045
726.27	10.906
726.59	10.939
726.90	10.763
727.22	10.706
727.53	10.568
727.84	10.493
728.16	10.303
728.47	10.179
728.79	9.976
729.10	9.667
729.42	9.224
729.73	8.783
730.05	8.263
730.36	7.769
730.67	7.186
730.99	6.700
731.30	6.141
731.62	5.457
731.93	4.799
732.24	4.130
732.56	3.409
732.87	2.796
733.19	2.187
733.50	1.426
733.81	0.807
734.13	0.319
734.44	-0.280
734.76	-0.633
735.07	-1.281
735.38	-1.948
735.70	-2.394
736.01	-2.738
736.32	-3.390
736.64	-3.802
736.95	-4.047
737.26	-4.372
737.58	-4.803
737.89	-5.402
738.20	-6.043
738.52	-6.345
738.83	-6.689
739.14	-7.235
739.45	-8.085
739.77	-8.349
740.08	-9.289
740.39	-10.206
740.71	-11.001
741.02	-11.993
741.33	-13.037
741.64	-13.914
741.96	-14.835
742.27	-15.429
742.58	-16.448
742.90	-16.856
743.21	-17.912
743.52	-18.368
743.83	-18.489
744.14	-18.987
744.46	-19.272
744.77	-19.365
745.08	-19.552
745.39	-19.982
745.71	-20.523
746.02	-20.491
746.33	-20.709
746.64	-20.137
746.95	-19.868
747.27	-20.257
747.58	-20.354
747.89	-20.358
748.20	-20.497
748.51	-20.696
748.82	-20.383
749.14	-20.053
749.45	-20.062
749.76	-20.122
750.07	-20.266
750.38	-20.592
750.69	-20.510
751.01	-20.723
751.32	-21.067
751.63	-21.054
751.94	-21.223
752.25	-21.212
752.56	-21.484
752.87	-21.604
753.18	-21.671
753.49	-22.010
753.81	-21.543
754.12	-20.930
754.43	-20.060
754.74	-18.652
755.05	-16.853
755.36	-14.879
755.67	-13.248
755.98	-10.896
756.29	-8.583
756.60	-6.134
756.91	-3.666
757.22	-1.240
757.53	1.133
757.84	3.279
758.15	5.273
758.46	6.868
758.77	8.596
759.09	10.041
759.40	10.996
759.71	11.666
760.02	12.246
760.33	12.676
760.64	12.828
760.95	12.827
761.26	12.686
761.57	12.400
761.88	11.969
762.18	11.330
762.49	10.754
762.80	10.126
763.11	9.513
763.42	8.596
763.73	7.444
764.04	6.215
764.35	4.604
764.66	3.049
764.97	1.141
765.28	-0.816
765.59	-3.367
765.90	-6.181
766.21	-9.211
766.52	-12.095
766.83	-15.230
767.14	-17.852
767.44	-20.786
767.75	-23.313
768.06	-25.916
768.37	-27.962
768.68	-30.057
768.99	-31.381
769.30	-33.205
769.61	-34.462
769.91	-36.015
770.22	-36.654
770.53	-37.730
770.84	-38.496
771.15	-39.244
771.46	-40.256
771.77	-41.392
772.07	-42.953
772.38	-43.859
772.69	-44.088
773.00	-44.606
773.31	-44.972
773.61	-45.393
773.92	-45.811
774.23	-45.912
774.54	-46.057
774.85	-45.771
775.15	-45.189
775.46	-44.139
775.77	-43.798
776.08	-43.779
776.39	-43.515
776.69	-43.368
777.00	-43.396
777.31	-42.767
777.62	-42.574
777.92	-42.370
778.23	-41.935
778.54	-41.907
778.85	-42.258
779.15	-42.598
779.46	-42.197
779.77	-42.363
780.07	-42.663
780.38	-43.071
780.69	-42.998
781.00	-43.978
781.30	-43.678
781.61	-44.308
781.92	-43.668
782.22	-42.969
782.53	-41.860
782.84	-41.309
783.14	-40.765
783.45	-39.284
783.76	-37.318
784.06	-35.870
784.37	-33.102
784.68	-31.143
784.98	-29.309
785.29	-27.259
785.60	-25.762
785.90	-24.373
786.21	-22.990
786.51	-21.131
786.82	-19.497
787.13	-18.367
787.43	-17.828
787.74	-17.069
788.04	-16.945
788.35	-16.458
788.66	-16.935
788.96	-17.261
789.27	-17.724
789.57	-17.969
789.88	-18.869
790.19	-19.930
790.49	-21.130
790.80	-21.969
791.10	-23.082
791.41	-23.086
791.71	-23.254
792.02	-23.491
792.32	-22.867
792.63	-22.062
792.93	-21.584
793.24	-20.333
793.54	-20.113
793.85	-19.034
794.15	-18.145
794.46	-17.480
794.76	-17.142
795.07	-16.751
795.37	-15.544
795.68	-15.679
795.98	-15.737
796.29	-15.304
796.59	-15.302
796.90	-14.625
797.20	-14.773
797.51	-14.033
797.81	-13.811
798.12	-13.866
798.42	-13.536
798.72	-13.886
799.03	-13.277
799.33	-12.992
799.64	-13.117
799.94	-13.659
800.25	-13.576
800.55	-12.855
800.85	-13.096
801.16	-13.411
801.46	-13.587
801.77	-13.641
802.07	-14.191
802.37	-14.382
802.68	-14.535
802.98	-14.829
803.28	-14.898
803.59	-15.858
803.89	-16.028
804.20	-16.259
804.50	-15.877
804.80	-15.907
805.11	-16.612
805.41	-16.418
805.71	-16.379
806.02	-16.510
806.32	-15.919
806.62	-15.363
806.93	-14.453
807.23	-14.454
807.53	-13.797
807.83	-13.998
808.14	-13.391
808.44	-12.240
808.74	-11.319
809.05	-11.198
809.35	-9.800
809.65	-9.446
809.95	-8.532
810.26	-7.452
810.56	-7.082
810.86	-6.574
811.16	-5.326
811.47	-4.243
811.77	-3.510
812.07	-2.693
812.37	-0.935
812.68	-0.692
812.98	-0.285
813.28	0.109
813.58	0.524
813.88	1.333
814.19	2.302
814.49	2.611
814.79	3.599
815.09	4.618
815.39	5.367
815.70	5.624
816.00	5.980
816.30	6.874
816.60	7.648
816.90	8.309
817.20	9.301
817.50	10.445
817.81	11.922
818.11	12.876
818.41	13.707
818.71	14.547
819.01	15.171
819.31	15.819
819.61	16.284
819.92	16.662
820.22	16.903
820.52	17.115
820.82	17.168
821.12	17.292
821.42	17.418
821.72	17.496
822.02	17.482
822.32	17.463
822.62	17.460
822.92	17.455
823.22	17.367
823.52	17.228
823.83	17.082
824.13	16.942
824.43	16.786
824.73	16.540
825.03	16.372
825.33	16.201
825.63	16.142
825.93	16.001
826.23	15.753
826.53	15.563
826.83	15.600
827.13	15.539
827.43	15.550
827.73	15.392
828.03	15.272
828.33	15.039
828.63	14.642
828.93	14.255
829.23	13.558
829.53	12.924
829.83	12.155
830.13	11.345
830.42	11.018
830.72	11.067
831.02	10.790
831.32	10.701
831.62	10.510
831.92	11.087
832.22	11.114
832.52	11.486
832.82	11.699
833.12	11.941
833.42	12.088
833.72	11.640
834.01	11.188
834.31	11.223
834.61	10.891
834.91	10.425
835.21	9.380
835.51	8.819
835.81	7.642
836.11	6.527
836.40	5.524
836.70	4.559
837.00	3.890
837.30	2.155
837.60	0.320
837.90	-0.719
838.19	-1.343
838.49	-1.463
838.79	-1.893
839.09	-1.607
839.39	-2.324
839.68	-3.127
839.98	-3.715
840.28	-3.820
840.58	-3.437
840.88	-3.801
841.17	-5.074
841.47	-6.211
841.77	-7.534
842.07	-10.687
842.36	-14.075
842.66	-15.158
842.96	-16.043
843.26	-19.830
843.55	-25.862
843.85	-30.790
844.15	-35.462
844.45	-35.952
844.74	-38.802
845.04	-43.050
845.34	-42.812
845.63	-44.531
845.93	-46.035
846.23	-47.448
846.53	-48.075
846.82	-46.031
847.12	-47.339
847.42	-44.123
847.71	-45.808
848.01	-47.254
848.31	-45.912
848.60	-47.450
848.90	-43.667
849.19	-46.134
849.49	-45.481
849.79	-45.948
850.08	-44.479
850.38	-41.745
850.68	-41.343
850.97	-39.232
851.27	-37.338
851.56	-35.170
851.86	-31.733
852.16	-33.073
852.45	-31.709
852.75	-35.406
853.04	-32.808
853.34	-34.041
853.64	-31.135
853.93	-33.358
854.23	-35.754
854.52	-35.551
854.82	-37.515
855.11	-39.551
855.41	-40.216
855.70	-42.083
856.00	-37.502
856.30	-39.889
856.59	-41.522
856.89	-46.181
857.18	-45.288
857.48	-43.863
857.77	-40.715
858.07	-39.747
858.36	-39.686
858.66	-39.268
858.95	-37.781
859.25	-38.388
859.54	-37.697
859.84	-37.059
860.13	-37.981
860.42	-34.919
860.72	-37.048
861.01	-40.757
861.31	-39.111
861.60	-39.121
861.90	-38.292
862.19	-39.226
862.49	-40.227
862.78	-36.235
863.07	-34.627
863.37	-32.594
863.66	-32.425
863.96	-29.838
864.25	-26.882
864.54	-27.995
864.84	-27.287
865.13	-26.052
865.43	-24.631
865.72	-16.740
866.01	-19.360
866.31	-28.893
866.60	-24.061
866.89	-34.562
>>>>>End Spectral Data<<<<<
