OOIBase32 Version 2.0.0.6 Data File
++++++++++++++++++++++++++++++++++++
Date: 01-22-2012, 21:58:57
User: Valued Ocean Optics Customer
Spectrometer Serial Number: USB2E2917
Spectrometer Channel: Master
Integration Time (msec): 4
Spectra Averaged: 10
Boxcar Smoothing: 5
Correct for Electrical Dark: Enabled
Time Normalized: Disabled
Dual-beam Reference: Disabled
Reference Channel: Master
Temperature: Not acquired
Spectrometer Type: S2000
ADC Type: USB2000
Number of Pixels in File: 2048
Graph Title: 
>>>>>Begin Spectral Data<<<<<
180.30	0.000
180.67	0.000
181.03	73.814
181.40	21.859
181.77	448.608
182.14	69.266
182.51	106.390
182.88	82.222
183.25	-62.231
183.62	111.168
183.99	13.480
184.36	-38.956
184.73	-10.280
185.10	437.433
185.46	216.781
185.83	3817.395
186.20	63.308
186.57	-2543.250
186.94	-48.315
187.31	13.774
187.68	-80.224
188.05	-476.884
188.42	-431.588
188.78	978.316
189.15	165.341
189.52	79.616
189.89	65.592
190.26	60.505
190.63	26.007
191.00	8.660
191.37	8.327
191.73	-73.045
192.10	-46.824
192.47	-28.551
192.84	-7.332
193.21	4.816
193.58	18.868
193.94	12.447
194.31	12.211
194.68	8.498
195.05	10.882
195.42	-5.620
195.79	7.542
196.15	2.821
196.52	-7.969
196.89	-27.548
197.26	-63.034
197.63	-65.064
198.00	-120.162
198.36	-171.246
198.73	-209.158
199.10	-303.430
199.47	-111.002
199.84	-105.597
200.20	-107.227
200.57	-174.216
200.94	-121.073
201.31	-78.618
201.68	-95.088
202.04	-53.094
202.41	-52.160
202.78	-42.624
203.15	-49.474
203.51	-12.009
203.88	16.378
204.25	39.544
204.62	46.676
204.98	33.771
205.35	30.636
205.72	18.662
206.09	24.564
206.46	17.345
206.82	13.682
207.19	21.013
207.56	1.102
207.92	-21.997
208.29	-36.587
208.66	-23.271
209.03	1.012
209.39	6.723
209.76	17.355
210.13	18.012
210.50	21.931
210.86	28.278
211.23	40.750
211.60	62.523
211.96	68.604
212.33	96.145
212.70	102.309
213.07	51.019
213.43	48.018
213.80	54.646
214.17	62.092
214.53	40.430
214.90	45.175
215.27	38.889
215.63	19.588
216.00	1.307
216.37	-13.650
216.74	-3.568
217.10	-6.808
217.47	-26.627
217.84	-33.356
218.20	-46.631
218.57	-53.447
218.94	-78.307
219.30	-84.513
219.67	-59.706
220.04	-18.505
220.40	-6.212
220.77	-20.013
221.13	-11.002
221.50	-4.797
221.87	-1.076
222.23	9.548
222.60	14.532
222.97	24.768
223.33	29.132
223.70	23.742
224.07	20.298
224.43	18.293
224.80	16.346
225.16	14.285
225.53	12.939
225.90	9.090
226.26	5.591
226.63	5.167
226.99	2.319
227.36	1.628
227.73	0.406
228.09	-0.471
228.46	0.486
228.82	0.549
229.19	-1.079
229.56	-1.030
229.92	-1.484
230.29	-0.121
230.65	3.031
231.02	7.310
231.38	6.220
231.75	8.279
232.12	6.269
232.48	6.051
232.85	6.269
233.21	7.104
233.58	8.129
233.94	10.126
234.31	9.747
234.68	7.043
235.04	4.992
235.41	6.751
235.77	6.180
236.14	5.257
236.50	2.953
236.87	0.410
237.23	-0.155
237.60	-1.517
237.96	-1.682
238.33	-1.571
238.69	-1.825
239.06	-0.126
239.42	0.309
239.79	0.962
240.15	3.156
240.52	3.470
240.88	4.496
241.25	4.719
241.61	4.853
241.98	4.320
242.34	4.091
242.71	3.920
243.07	3.590
243.44	3.654
243.80	2.836
244.17	3.278
244.53	3.570
244.90	3.547
245.26	3.409
245.63	3.611
245.99	3.828
246.36	4.016
246.72	4.106
247.09	3.965
247.45	3.747
247.81	3.876
248.18	3.238
248.54	3.081
248.91	3.407
249.27	3.502
249.64	3.088
250.00	3.316
250.36	3.078
250.73	3.284
251.09	2.626
251.46	2.441
251.82	2.827
252.19	1.997
252.55	2.421
252.91	1.974
253.28	1.779
253.64	2.703
254.01	2.690
254.37	3.664
254.73	3.292
255.10	3.794
255.46	4.005
255.83	4.004
256.19	4.791
256.55	4.661
256.92	4.392
257.28	4.532
257.65	4.126
258.01	3.998
258.37	3.673
258.74	3.984
259.10	3.960
259.46	3.937
259.83	3.878
260.19	3.565
260.55	3.642
260.92	3.893
261.28	3.756
261.64	4.091
262.01	4.494
262.37	4.501
262.73	4.317
263.10	4.668
263.46	4.474
263.82	4.557
264.19	4.468
264.55	4.140
264.91	3.841
265.28	4.172
265.64	4.091
266.00	3.754
266.37	3.890
266.73	3.836
267.09	3.577
267.46	3.596
267.82	3.526
268.18	3.582
268.54	3.834
268.91	3.991
269.27	4.171
269.63	4.250
270.00	4.180
270.36	4.137
270.72	4.160
271.08	4.146
271.45	4.161
271.81	3.974
272.17	3.901
272.53	3.821
272.90	3.762
273.26	3.464
273.62	3.371
273.98	3.520
274.35	3.223
274.71	3.230
275.07	3.542
275.43	3.883
275.80	4.589
276.16	4.864
276.52	4.482
276.88	4.451
277.25	4.239
277.61	4.004
277.97	3.939
278.33	4.311
278.69	4.417
279.06	4.421
279.42	4.133
279.78	3.951
280.14	3.747
280.50	4.006
280.87	4.043
281.23	4.277
281.59	4.289
281.95	4.339
282.31	4.270
282.68	4.042
283.04	3.885
283.40	3.975
283.76	3.915
284.12	4.064
284.48	3.919
284.85	4.166
285.21	4.103
285.57	3.876
285.93	3.744
286.29	3.307
286.65	3.552
287.02	3.579
287.38	3.478
287.74	3.331
288.10	3.283
288.46	3.359
288.82	3.048
289.18	3.079
289.54	3.205
289.91	3.302
290.27	3.613
290.63	3.589
290.99	3.598
291.35	3.754
291.71	3.943
292.07	3.872
292.43	3.705
292.79	3.594
293.16	3.295
293.52	3.461
293.88	3.428
294.24	3.516
294.60	3.508
294.96	3.377
295.32	3.232
295.68	2.917
296.04	2.804
296.40	3.107
296.76	3.340
297.12	3.482
297.49	3.359
297.85	3.279
298.21	3.133
298.57	3.185
298.93	3.361
299.29	3.336
299.65	3.628
300.01	3.698
300.37	3.390
300.73	3.196
301.09	3.350
301.45	3.526
301.81	3.501
302.17	3.606
302.53	3.448
302.89	3.386
303.25	3.608
303.61	3.506
303.97	3.600
304.33	3.870
304.69	4.022
305.05	3.878
305.41	3.802
305.77	3.910
306.13	3.757
306.49	3.620
306.85	3.631
307.21	3.596
307.57	3.486
307.93	3.503
308.29	3.440
308.65	3.276
309.01	3.249
309.37	3.347
309.73	3.256
310.09	3.413
310.45	3.452
310.81	3.254
311.17	3.011
311.53	3.025
311.89	2.944
312.25	2.778
312.61	2.932
312.96	3.031
313.32	2.914
313.68	2.891
314.04	2.665
314.40	2.640
314.76	2.745
315.12	2.859
315.48	2.709
315.84	2.567
316.20	2.716
316.56	2.560
316.92	2.491
317.27	2.558
317.63	2.526
317.99	2.805
318.35	2.835
318.71	2.872
319.07	2.746
319.43	2.861
319.79	2.823
320.15	2.828
320.50	2.933
320.86	2.944
321.22	2.891
321.58	2.958
321.94	2.661
322.30	2.624
322.66	2.613
323.01	2.699
323.37	2.833
323.73	2.990
324.09	2.868
324.45	2.661
324.81	2.648
325.17	2.525
325.52	2.523
325.88	2.615
326.24	2.605
326.60	2.655
326.96	2.580
327.31	2.579
327.67	2.506
328.03	2.550
328.39	2.683
328.75	2.611
329.11	2.818
329.46	2.755
329.82	2.863
330.18	2.854
330.54	2.817
330.90	2.925
331.25	2.833
331.61	2.888
331.97	2.964
332.33	3.081
332.68	3.178
333.04	3.174
333.40	3.258
333.76	3.265
334.11	3.397
334.47	3.296
334.83	3.263
335.19	3.283
335.54	3.253
335.90	3.236
336.26	3.246
336.62	3.219
336.97	3.051
337.33	3.028
337.69	2.834
338.05	2.845
338.40	3.023
338.76	3.148
339.12	3.131
339.48	3.248
339.83	3.132
340.19	3.140
340.55	3.108
340.90	3.287
341.26	3.387
341.62	3.632
341.97	3.604
342.33	3.520
342.69	3.546
343.04	3.777
343.40	3.674
343.76	3.737
344.12	3.607
344.47	3.725
344.83	3.720
345.19	3.677
345.54	3.628
345.90	3.562
346.26	3.634
346.61	3.664
346.97	3.502
347.32	3.596
347.68	3.689
348.04	3.834
348.39	3.844
348.75	3.780
349.11	3.737
349.46	3.763
349.82	3.908
350.18	3.919
350.53	3.731
350.89	3.786
351.24	3.797
351.60	3.760
351.96	3.719
352.31	3.753
352.67	3.824
353.02	3.913
353.38	3.980
353.74	3.944
354.09	3.943
354.45	4.100
354.80	4.156
355.16	4.177
355.52	4.192
355.87	4.131
356.23	4.133
356.58	4.178
356.94	4.246
357.29	4.277
357.65	4.325
358.00	4.330
358.36	4.389
358.72	4.372
359.07	4.412
359.43	4.456
359.78	4.545
360.14	4.600
360.49	4.585
360.85	4.562
361.20	4.442
361.56	4.435
361.91	4.449
362.27	4.496
362.62	4.498
362.98	4.540
363.33	4.560
363.69	4.589
364.04	4.523
364.40	4.461
364.75	4.451
365.11	4.576
365.46	4.576
365.82	4.603
366.17	4.592
366.53	4.589
366.88	4.555
367.24	4.571
367.59	4.510
367.95	4.586
368.30	4.669
368.66	4.726
369.01	4.664
369.37	4.681
369.72	4.690
370.08	4.628
370.43	4.615
370.78	4.625
371.14	4.624
371.49	4.662
371.85	4.646
372.20	4.697
372.56	4.698
372.91	4.722
373.26	4.644
373.62	4.676
373.97	4.719
374.33	4.775
374.68	4.768
375.03	4.799
375.39	4.803
375.74	4.772
376.10	4.733
376.45	4.714
376.80	4.724
377.16	4.799
377.51	4.771
377.87	4.800
378.22	4.880
378.57	4.899
378.93	4.871
379.28	4.975
379.63	5.060
379.99	5.122
380.34	5.189
380.70	5.280
381.05	5.317
381.40	5.423
381.76	5.397
382.11	5.417
382.46	5.467
382.82	5.492
383.17	5.447
383.52	5.425
383.88	5.346
384.23	5.263
384.58	5.219
384.94	5.216
385.29	5.159
385.64	5.205
385.99	5.159
386.35	5.170
386.70	5.164
387.05	5.146
387.41	5.080
387.76	5.130
388.11	5.202
388.47	5.212
388.82	5.179
389.17	5.171
389.52	5.147
389.88	5.113
390.23	5.056
390.58	5.065
390.93	5.076
391.29	5.097
391.64	5.113
391.99	5.072
392.34	5.065
392.70	5.040
393.05	5.004
393.40	4.973
393.75	4.928
394.11	4.902
394.46	4.843
394.81	4.790
395.16	4.717
395.52	4.611
395.87	4.545
396.22	4.397
396.57	4.297
396.92	4.194
397.28	4.074
397.63	3.962
397.98	3.867
398.33	3.752
398.68	3.650
399.04	3.627
399.39	3.569
399.74	3.498
400.09	3.514
400.44	3.505
400.80	3.487
401.15	3.521
401.50	3.560
401.85	3.541
402.20	3.586
402.55	3.610
402.90	3.600
403.26	3.571
403.61	3.578
403.96	3.548
404.31	3.581
404.66	3.588
405.01	3.543
405.36	3.518
405.72	3.543
406.07	3.482
406.42	3.406
406.77	3.305
407.12	3.309
407.47	3.268
407.82	3.228
408.17	3.186
408.53	3.141
408.88	3.083
409.23	3.026
409.58	2.960
409.93	2.953
410.28	2.938
410.63	2.949
410.98	2.945
411.33	2.929
411.68	2.925
412.03	2.889
412.38	2.887
412.73	2.942
413.09	2.987
413.44	3.043
413.79	3.078
414.14	3.182
414.49	3.253
414.84	3.290
415.19	3.367
415.54	3.406
415.89	3.484
416.24	3.581
416.59	3.636
416.94	3.678
417.29	3.679
417.64	3.721
417.99	3.725
418.34	3.726
418.69	3.738
419.04	3.723
419.39	3.748
419.74	3.747
420.09	3.712
420.44	3.701
420.79	3.678
421.14	3.690
421.49	3.659
421.84	3.620
422.19	3.615
422.54	3.596
422.89	3.581
423.24	3.539
423.59	3.491
423.94	3.443
424.29	3.375
424.64	3.313
424.99	3.248
425.34	3.202
425.68	3.165
426.03	3.093
426.38	3.053
426.73	2.995
427.08	2.940
427.43	2.932
427.78	2.944
428.13	2.963
428.48	3.002
428.83	2.989
429.18	3.006
429.53	2.985
429.87	3.035
430.22	3.018
430.57	3.041
430.92	3.076
431.27	3.065
431.62	3.060
431.97	3.025
432.32	3.009
432.67	3.002
433.01	2.964
433.36	2.977
433.71	2.903
434.06	2.868
434.41	2.841
434.76	2.807
435.11	2.799
435.45	2.786
435.80	2.807
436.15	2.798
436.50	2.824
436.85	2.840
437.20	2.858
437.54	2.901
437.89	2.928
438.24	2.937
438.59	2.948
438.94	2.949
439.29	2.942
439.63	2.935
439.98	2.918
440.33	2.899
440.68	2.906
441.03	2.885
441.37	2.872
441.72	2.879
442.07	2.893
442.42	2.916
442.76	2.949
443.11	2.962
443.46	2.956
443.81	2.965
444.16	2.972
444.50	2.967
444.85	2.952
445.20	2.927
445.55	2.882
445.89	2.840
446.24	2.781
446.59	2.685
446.94	2.603
447.28	2.523
447.63	2.442
447.98	2.357
448.32	2.249
448.67	2.168
449.02	2.109
449.37	2.051
449.71	2.000
450.06	1.971
450.41	1.982
450.75	2.002
451.10	1.996
451.45	1.997
451.79	1.973
452.14	1.978
452.49	1.979
452.84	1.953
453.18	1.953
453.53	1.952
453.88	1.946
454.22	1.967
454.57	1.988
454.92	2.055
455.26	2.130
455.61	2.203
455.95	2.258
456.30	2.327
456.65	2.396
456.99	2.478
457.34	2.534
457.69	2.582
458.03	2.587
458.38	2.593
458.73	2.587
459.07	2.567
459.42	2.527
459.76	2.494
460.11	2.439
460.46	2.394
460.80	2.334
461.15	2.256
461.49	2.194
461.84	2.166
462.19	2.150
462.53	2.137
462.88	2.111
463.22	2.167
463.57	2.203
463.91	2.263
464.26	2.308
464.61	2.319
464.95	2.366
465.30	2.419
465.64	2.453
465.99	2.474
466.33	2.501
466.68	2.539
467.02	2.526
467.37	2.522
467.71	2.514
468.06	2.517
468.41	2.505
468.75	2.490
469.10	2.446
469.44	2.422
469.79	2.410
470.13	2.369
470.48	2.330
470.82	2.290
471.17	2.283
471.51	2.260
471.86	2.216
472.20	2.225
472.55	2.208
472.89	2.209
473.23	2.187
473.58	2.159
473.92	2.158
474.27	2.159
474.61	2.171
474.96	2.147
475.30	2.122
475.65	2.117
475.99	2.075
476.34	2.080
476.68	2.057
477.02	2.062
477.37	2.068
477.71	2.089
478.06	2.158
478.40	2.280
478.75	2.466
479.09	2.671
479.43	2.866
479.78	3.043
480.12	3.197
480.47	3.348
480.81	3.486
481.15	3.597
481.50	3.707
481.84	3.797
482.19	3.871
482.53	3.927
482.87	3.945
483.22	3.947
483.56	3.950
483.90	3.938
484.25	3.917
484.59	3.868
484.94	3.833
485.28	3.780
485.62	3.722
485.97	3.654
486.31	3.585
486.65	3.542
487.00	3.517
487.34	3.489
487.68	3.465
488.03	3.439
488.37	3.435
488.71	3.426
489.06	3.426
489.40	3.430
489.74	3.437
490.09	3.438
490.43	3.415
490.77	3.376
491.11	3.339
491.46	3.301
491.80	3.276
492.14	3.247
492.49	3.220
492.83	3.182
493.17	3.138
493.51	3.114
493.86	3.099
494.20	3.137
494.54	3.194
494.88	3.271
495.23	3.372
495.57	3.481
495.91	3.561
496.25	3.647
496.60	3.745
496.94	3.852
497.28	3.946
497.62	4.038
497.97	4.135
498.31	4.245
498.65	4.380
498.99	4.544
499.33	4.682
499.68	4.870
500.02	5.054
500.36	5.231
500.70	5.436
501.04	5.625
501.39	5.848
501.73	6.068
502.07	6.316
502.41	6.545
502.75	6.748
503.09	6.999
503.44	7.264
503.78	7.559
504.12	7.863
504.46	8.147
504.80	8.479
505.14	8.809
505.49	9.126
505.83	9.424
506.17	9.758
506.51	10.096
506.85	10.417
507.19	10.723
507.53	11.021
507.87	11.355
508.22	11.701
508.56	12.043
508.90	12.374
509.24	12.723
509.58	13.053
509.92	13.382
510.26	13.711
510.60	14.054
510.94	14.429
511.28	14.785
511.63	15.146
511.97	15.517
512.31	15.891
512.65	16.312
512.99	16.721
513.33	17.185
513.67	17.646
514.01	18.144
514.35	18.620
514.69	19.054
515.03	19.520
515.37	19.929
515.71	20.294
516.05	20.662
516.39	20.974
516.73	21.301
517.07	21.610
517.41	21.852
517.75	22.073
518.09	22.318
518.43	22.543
518.77	22.755
519.11	22.995
519.45	23.241
519.79	23.476
520.13	23.754
520.47	24.052
520.81	24.363
521.15	24.731
521.49	25.111
521.83	25.451
522.17	25.794
522.51	26.193
522.85	26.650
523.19	27.158
523.53	27.686
523.87	28.216
524.21	28.721
524.55	29.201
524.89	29.650
525.23	30.035
525.57	30.390
525.91	30.739
526.25	31.019
526.58	31.252
526.92	31.460
527.26	31.614
527.60	31.743
527.94	31.845
528.28	31.918
528.62	31.976
528.96	32.045
529.30	32.105
529.64	32.119
529.97	32.171
530.31	32.223
530.65	32.278
530.99	32.373
531.33	32.462
531.67	32.568
532.01	32.670
532.35	32.734
532.68	32.789
533.02	32.842
533.36	32.907
533.70	32.951
534.04	32.984
534.38	32.993
534.71	33.007
535.05	33.042
535.39	33.066
535.73	33.148
536.07	33.255
536.41	33.396
536.74	33.596
537.08	33.820
537.42	34.029
537.76	34.253
538.10	34.490
538.43	34.729
538.77	34.935
539.11	35.114
539.45	35.272
539.79	35.406
540.12	35.506
540.46	35.525
540.80	35.546
541.14	35.555
541.47	35.535
541.81	35.490
542.15	35.447
542.49	35.408
542.82	35.360
543.16	35.272
543.50	35.184
543.84	35.127
544.17	35.109
544.51	35.077
544.85	35.086
545.18	35.060
545.52	35.047
545.86	35.010
546.20	34.987
546.53	34.924
546.87	34.928
547.21	34.904
547.54	34.885
547.88	34.894
548.22	34.898
548.55	34.856
548.89	34.851
549.23	34.915
549.56	34.948
549.90	34.924
550.24	34.997
550.57	35.004
550.91	35.080
551.25	35.081
551.58	35.136
551.92	35.188
552.26	35.204
552.59	35.257
552.93	35.269
553.27	35.269
553.60	35.297
553.94	35.316
554.27	35.335
554.61	35.350
554.95	35.412
555.28	35.409
555.62	35.424
555.95	35.489
556.29	35.493
556.63	35.542
556.96	35.600
557.30	35.645
557.63	35.644
557.97	35.677
558.31	35.718
558.64	35.714
558.98	35.700
559.31	35.755
559.65	35.764
559.98	35.786
560.32	35.767
560.65	35.790
560.99	35.825
561.33	35.900
561.66	35.938
562.00	36.020
562.33	36.110
562.67	36.202
563.00	36.227
563.34	36.250
563.67	36.363
564.01	36.459
564.34	36.501
564.68	36.571
565.01	36.623
565.35	36.683
565.68	36.672
566.02	36.687
566.35	36.737
566.69	36.785
567.02	36.837
567.36	36.837
567.69	36.813
568.03	36.858
568.36	36.861
568.69	36.848
569.03	36.840
569.36	36.871
569.70	36.877
570.03	36.856
570.37	36.832
570.70	36.840
571.04	36.855
571.37	36.895
571.70	36.891
572.04	36.903
572.37	36.910
572.71	36.924
573.04	36.941
573.37	36.959
573.71	36.932
574.04	36.953
574.38	36.939
574.71	36.922
575.04	36.860
575.38	36.824
575.71	36.780
576.05	36.754
576.38	36.722
576.71	36.634
577.05	36.609
577.38	36.605
577.71	36.551
578.05	36.487
578.38	36.414
578.71	36.440
579.05	36.391
579.38	36.370
579.71	36.284
580.05	36.240
580.38	36.231
580.71	36.170
581.05	36.169
581.38	36.142
581.71	36.184
582.05	36.203
582.38	36.142
582.71	36.101
583.04	36.048
583.38	36.124
583.71	36.127
584.04	36.124
584.38	36.108
584.71	36.095
585.04	36.135
585.37	36.131
585.71	36.203
586.04	36.239
586.37	36.293
586.70	36.346
587.04	36.353
587.37	36.333
587.70	36.370
588.03	36.369
588.37	36.410
588.70	36.382
589.03	36.354
589.36	36.277
589.69	36.244
590.03	36.245
590.36	36.226
590.69	36.171
591.02	36.189
591.35	36.182
591.69	36.160
592.02	36.068
592.35	36.015
592.68	35.978
593.01	35.954
593.35	35.939
593.68	35.882
594.01	35.803
594.34	35.732
594.67	35.637
595.00	35.563
595.34	35.553
595.67	35.529
596.00	35.508
596.33	35.475
596.66	35.393
596.99	35.317
597.32	35.234
597.65	35.216
597.99	35.158
598.32	35.120
598.65	35.046
598.98	34.968
599.31	34.869
599.64	34.776
599.97	34.675
600.30	34.605
600.63	34.560
600.96	34.545
601.30	34.507
601.63	34.491
601.96	34.426
602.29	34.373
602.62	34.331
602.95	34.280
603.28	34.258
603.61	34.254
603.94	34.230
604.27	34.150
604.60	34.085
604.93	34.005
605.26	33.923
605.59	33.842
605.92	33.733
606.25	33.653
606.58	33.600
606.91	33.490
607.24	33.424
607.57	33.369
607.90	33.356
608.23	33.292
608.56	33.229
608.89	33.179
609.22	33.131
609.55	33.136
609.88	33.073
610.21	33.004
610.54	32.917
610.87	32.808
611.20	32.717
611.53	32.599
611.86	32.577
612.19	32.521
612.52	32.464
612.85	32.400
613.18	32.281
613.51	32.190
613.84	32.112
614.17	32.114
614.49	32.043
614.82	31.971
615.15	31.852
615.48	31.753
615.81	31.662
616.14	31.594
616.47	31.570
616.80	31.519
617.13	31.444
617.46	31.370
617.78	31.235
618.11	31.207
618.44	31.138
618.77	31.165
619.10	31.072
619.43	31.057
619.76	31.014
620.09	30.920
620.41	30.880
620.74	30.872
621.07	30.869
621.40	30.915
621.73	30.912
622.06	30.933
622.38	30.857
622.71	30.884
623.04	30.828
623.37	30.781
623.70	30.810
624.02	30.792
624.35	30.781
624.68	30.736
625.01	30.683
625.34	30.568
625.66	30.496
625.99	30.484
626.32	30.389
626.65	30.369
626.98	30.336
627.30	30.239
627.63	30.197
627.96	30.104
628.29	30.070
628.61	29.998
628.94	29.997
629.27	29.915
629.60	29.786
629.92	29.730
630.25	29.613
630.58	29.548
630.91	29.523
631.23	29.401
631.56	29.369
631.89	29.286
632.21	29.239
632.54	29.109
632.87	29.010
633.19	29.024
633.52	28.947
633.85	28.914
634.18	28.821
634.50	28.694
634.83	28.672
635.16	28.552
635.48	28.421
635.81	28.367
636.14	28.336
636.46	28.341
636.79	28.216
637.11	28.164
637.44	28.086
637.77	28.033
638.09	27.971
638.42	27.912
638.75	27.823
639.07	27.819
639.40	27.735
639.73	27.609
640.05	27.553
640.38	27.549
640.70	27.464
641.03	27.394
641.36	27.336
641.68	27.272
642.01	27.247
642.33	27.245
642.66	27.224
642.98	27.173
643.31	27.226
643.64	27.224
643.96	27.179
644.29	27.193
644.61	27.233
644.94	27.292
645.26	27.312
645.59	27.259
645.91	27.277
646.24	27.223
646.56	27.210
646.89	27.152
647.22	27.104
647.54	27.066
647.87	27.040
648.19	27.003
648.52	26.855
648.84	26.861
649.17	26.807
649.49	26.750
649.82	26.719
650.14	26.646
650.47	26.657
650.79	26.546
651.11	26.561
651.44	26.537
651.76	26.493
652.09	26.487
652.41	26.459
652.74	26.454
653.06	26.419
653.39	26.361
653.71	26.328
654.04	26.286
654.36	26.305
654.68	26.199
655.01	26.127
655.33	25.969
655.66	25.931
655.98	25.866
656.30	25.735
656.63	25.694
656.95	25.741
657.28	25.733
657.60	25.652
657.92	25.591
658.25	25.542
658.57	25.502
658.90	25.488
659.22	25.376
659.54	25.218
659.87	25.169
660.19	25.059
660.51	24.869
660.84	24.764
661.16	24.696
661.48	24.574
661.81	24.477
662.13	24.356
662.45	24.346
662.78	24.304
663.10	24.332
663.42	24.337
663.75	24.301
664.07	24.372
664.39	24.351
664.72	24.347
665.04	24.389
665.36	24.361
665.69	24.365
666.01	24.343
666.33	24.322
666.65	24.311
666.98	24.308
667.30	24.270
667.62	24.212
667.94	24.153
668.27	24.023
668.59	23.958
668.91	23.968
669.23	23.929
669.56	23.832
669.88	23.804
670.20	23.666
670.52	23.613
670.85	23.633
671.17	23.528
671.49	23.502
671.81	23.561
672.13	23.478
672.46	23.396
672.78	23.362
673.10	23.367
673.42	23.356
673.74	23.432
674.07	23.398
674.39	23.381
674.71	23.441
675.03	23.476
675.35	23.431
675.67	23.510
676.00	23.497
676.32	23.476
676.64	23.496
676.96	23.528
677.28	23.493
677.60	23.518
677.92	23.483
678.25	23.440
678.57	23.398
678.89	23.389
679.21	23.338
679.53	23.320
679.85	23.284
680.17	23.230
680.49	23.200
680.81	23.218
681.13	23.162
681.46	23.158
681.78	23.181
682.10	23.187
682.42	23.185
682.74	23.149
683.06	23.104
683.38	23.213
683.70	23.249
684.02	23.263
684.34	23.249
684.66	23.291
684.98	23.329
685.30	23.333
685.62	23.295
685.94	23.297
686.26	23.299
686.58	23.324
686.90	23.181
687.22	23.068
687.54	22.941
687.86	22.859
688.18	22.838
688.50	22.784
688.82	22.718
689.14	22.677
689.46	22.614
689.78	22.576
690.10	22.544
690.42	22.566
690.74	22.616
691.06	22.643
691.38	22.701
691.70	22.475
692.02	22.351
692.34	22.242
692.66	22.109
692.98	22.004
693.30	21.934
693.62	21.866
693.94	21.813
694.26	21.755
694.57	21.747
694.89	21.652
695.21	21.748
695.53	21.740
695.85	21.816
696.17	21.853
696.49	21.892
696.81	21.904
697.13	21.939
697.44	21.848
697.76	21.858
698.08	21.807
698.40	21.784
698.72	21.633
699.04	21.477
699.36	21.268
699.67	21.110
699.99	20.872
700.31	20.646
700.63	20.283
700.95	20.063
701.27	19.754
701.58	19.425
701.90	19.145
702.22	19.017
702.54	18.814
702.86	18.547
703.17	18.288
703.49	18.174
703.81	17.868
704.13	17.793
704.45	17.581
704.76	17.308
705.08	17.300
705.40	17.203
705.72	17.030
706.03	17.042
706.35	17.001
706.67	16.961
706.99	16.820
707.30	16.865
707.62	16.851
707.94	16.863
708.26	16.804
708.57	16.675
708.89	16.514
709.21	16.456
709.53	16.355
709.84	16.255
710.16	16.149
710.48	16.003
710.79	15.913
711.11	15.836
711.43	15.840
711.74	15.880
712.06	15.808
712.38	15.965
712.69	16.091
713.01	16.266
713.33	16.373
713.64	16.558
713.96	16.852
714.28	16.981
714.59	17.106
714.91	17.304
715.23	17.506
715.54	17.766
715.86	17.744
716.17	17.694
716.49	17.549
716.81	17.469
717.12	17.323
717.44	17.147
717.76	16.901
718.07	16.714
718.39	16.325
718.70	16.034
719.02	15.600
719.33	15.257
719.65	14.935
719.97	14.544
720.28	14.292
720.60	14.179
720.91	13.960
721.23	13.937
721.54	13.841
721.86	13.833
722.17	13.774
722.49	13.816
722.81	13.926
723.12	13.950
723.44	14.171
723.75	14.108
724.07	14.091
724.38	13.988
724.70	14.042
725.01	13.989
725.33	13.936
725.64	13.813
725.96	13.716
726.27	13.636
726.59	13.627
726.90	13.408
727.22	13.545
727.53	13.483
727.84	13.339
728.16	12.997
728.47	12.737
728.79	12.458
729.10	12.082
729.42	11.699
729.73	11.352
730.05	10.819
730.36	10.274
730.67	9.643
730.99	9.050
731.30	8.434
731.62	7.936
731.93	7.365
732.24	6.669
732.56	6.226
732.87	5.551
733.19	4.850
733.50	4.239
733.81	3.738
734.13	3.226
734.44	2.763
734.76	2.369
735.07	1.743
735.38	1.135
735.70	0.618
736.01	0.272
736.32	-0.280
736.64	-0.618
736.95	-1.058
737.26	-1.378
737.58	-1.828
737.89	-2.558
738.20	-3.059
738.52	-3.404
738.83	-3.926
739.14	-4.509
739.45	-5.683
739.77	-6.116
740.08	-7.014
740.39	-7.727
740.71	-8.430
741.02	-9.542
741.33	-10.657
741.64	-11.585
741.96	-12.275
742.27	-12.903
742.58	-13.506
742.90	-13.771
743.21	-14.659
743.52	-15.178
743.83	-15.729
744.14	-16.483
744.46	-16.739
744.77	-16.667
745.08	-16.704
745.39	-17.313
745.71	-17.508
746.02	-17.430
746.33	-17.489
746.64	-17.011
746.95	-17.086
747.27	-17.199
747.58	-17.080
747.89	-17.112
748.20	-17.349
748.51	-17.373
748.82	-17.351
749.14	-17.342
749.45	-17.586
749.76	-17.767
750.07	-18.030
750.38	-18.316
750.69	-18.420
751.01	-18.669
751.32	-18.741
751.63	-18.947
751.94	-19.344
752.25	-19.413
752.56	-19.520
752.87	-19.573
753.18	-19.619
753.49	-19.586
753.81	-19.096
754.12	-18.291
754.43	-17.481
754.74	-16.232
755.05	-14.363
755.36	-12.308
755.67	-10.383
755.98	-8.132
756.29	-5.992
756.60	-3.721
756.91	-1.205
757.22	1.274
757.53	3.574
757.84	5.603
758.15	7.545
758.46	9.320
758.77	10.797
759.09	12.083
759.40	12.982
759.71	13.646
760.02	14.331
760.33	14.515
760.64	14.625
760.95	14.522
761.26	14.395
761.57	14.032
761.88	13.590
762.18	13.060
762.49	12.512
762.80	11.858
763.11	11.214
763.42	10.194
763.73	9.207
764.04	7.961
764.35	6.359
764.66	4.842
764.97	2.871
765.28	0.790
765.59	-1.629
765.90	-4.275
766.21	-7.201
766.52	-9.818
766.83	-12.769
767.14	-15.739
767.44	-18.571
767.75	-20.812
768.06	-23.188
768.37	-24.985
768.68	-27.077
768.99	-28.470
769.30	-30.424
769.61	-31.804
769.91	-33.903
770.22	-34.576
770.53	-35.371
770.84	-36.070
771.15	-36.932
771.46	-38.017
771.77	-38.959
772.07	-39.944
772.38	-40.978
772.69	-41.157
773.00	-41.657
773.31	-41.641
773.61	-42.182
773.92	-42.176
774.23	-42.097
774.54	-42.056
774.85	-42.004
775.15	-41.152
775.46	-40.595
775.77	-40.401
776.08	-40.456
776.39	-39.799
776.69	-39.499
777.00	-39.431
777.31	-39.810
777.62	-39.921
777.92	-39.675
778.23	-39.326
778.54	-39.779
778.85	-40.328
779.15	-40.697
779.46	-40.658
779.77	-41.301
780.07	-41.432
780.38	-41.476
780.69	-40.660
781.00	-41.376
781.30	-41.447
781.61	-41.877
781.92	-41.243
782.22	-40.413
782.53	-39.302
782.84	-38.362
783.14	-38.104
783.45	-37.126
783.76	-35.651
784.06	-34.581
784.37	-32.081
784.68	-30.099
784.98	-28.336
785.29	-26.323
785.60	-24.891
785.90	-23.220
786.21	-21.758
786.51	-19.847
786.82	-18.339
787.13	-17.264
787.43	-16.369
787.74	-15.507
788.04	-15.355
788.35	-15.007
788.66	-15.591
788.96	-15.540
789.27	-16.028
789.57	-16.510
789.88	-17.009
790.19	-17.816
790.49	-18.610
790.80	-19.832
791.10	-20.986
791.41	-20.869
791.71	-21.053
792.02	-21.577
792.32	-22.022
792.63	-21.742
792.93	-21.091
793.24	-20.362
793.54	-19.918
793.85	-19.169
794.15	-17.710
794.46	-17.093
794.76	-16.647
795.07	-16.065
795.37	-14.743
795.68	-13.941
795.98	-13.353
796.29	-13.092
796.59	-12.773
796.90	-12.357
797.20	-12.428
797.51	-12.379
797.81	-12.083
798.12	-12.367
798.42	-12.259
798.72	-12.150
799.03	-11.662
799.33	-11.873
799.64	-12.291
799.94	-12.884
800.25	-13.143
800.55	-12.601
800.85	-12.717
801.16	-13.327
801.46	-13.337
801.77	-13.497
802.07	-14.311
802.37	-15.288
802.68	-15.897
802.98	-15.565
803.28	-15.910
803.59	-16.093
803.89	-16.949
804.20	-17.278
804.50	-16.684
804.80	-16.939
805.11	-17.156
805.41	-17.249
805.71	-16.910
806.02	-16.950
806.32	-16.713
806.62	-15.806
806.93	-15.562
807.23	-15.124
807.53	-14.700
807.83	-14.905
808.14	-13.955
808.44	-13.512
808.74	-12.535
809.05	-12.226
809.35	-10.239
809.65	-9.760
809.95	-8.951
810.26	-8.207
810.56	-7.595
810.86	-6.938
811.16	-4.937
811.47	-4.578
811.77	-3.151
812.07	-2.096
812.37	-0.223
812.68	-0.327
812.98	0.044
813.28	1.216
813.58	2.456
813.88	3.491
814.19	4.768
814.49	4.479
814.79	5.537
815.09	5.885
815.39	6.555
815.70	6.924
816.00	7.554
816.30	8.171
816.60	8.169
816.90	8.616
817.20	9.417
817.50	10.242
817.81	11.566
818.11	12.532
818.41	13.428
818.71	14.098
819.01	14.771
819.31	15.440
819.61	15.981
819.92	16.359
820.22	16.605
820.52	16.819
820.82	16.984
821.12	17.112
821.42	17.244
821.72	17.362
822.02	17.446
822.32	17.434
822.62	17.405
822.92	17.360
823.22	17.284
823.52	17.200
823.83	17.181
824.13	17.091
824.43	16.899
824.73	16.745
825.03	16.455
825.33	16.245
825.63	16.155
825.93	15.955
826.23	15.772
826.53	15.712
826.83	15.764
827.13	15.449
827.43	15.355
827.73	15.323
828.03	15.112
828.33	14.983
828.63	14.625
828.93	14.152
829.23	13.844
829.53	13.300
829.83	12.443
830.13	11.538
830.42	11.284
830.72	10.998
831.02	10.886
831.32	10.954
831.62	11.002
831.92	11.268
832.22	11.303
832.52	11.263
832.82	11.506
833.12	11.846
833.42	11.792
833.72	11.514
834.01	11.217
834.31	10.890
834.61	10.404
834.91	9.765
835.21	9.028
835.51	8.324
835.81	7.508
836.11	6.180
836.40	4.960
836.70	3.909
837.00	2.963
837.30	1.075
837.60	-0.171
837.90	-1.427
838.19	-2.032
838.49	-2.482
838.79	-2.528
839.09	-3.562
839.39	-3.926
839.68	-4.809
839.98	-5.026
840.28	-5.480
840.58	-5.346
840.88	-6.184
841.17	-7.451
841.47	-8.632
841.77	-10.212
842.07	-12.961
842.36	-14.953
842.66	-16.513
842.96	-18.640
843.26	-22.729
843.55	-27.793
843.85	-31.236
844.15	-33.549
844.45	-33.992
844.74	-35.213
845.04	-38.032
845.34	-38.685
845.63	-39.958
845.93	-42.847
846.23	-42.333
846.53	-41.700
846.82	-39.902
847.12	-42.049
847.42	-42.692
847.71	-44.775
848.01	-46.826
848.31	-44.178
848.60	-46.219
848.90	-42.415
849.19	-43.894
849.49	-44.191
849.79	-46.111
850.08	-46.195
850.38	-43.250
850.68	-41.935
850.97	-39.765
851.27	-38.004
851.56	-38.417
851.86	-35.782
852.16	-38.817
852.45	-37.894
852.75	-39.270
853.04	-37.261
853.34	-36.344
853.64	-35.360
853.93	-36.853
854.23	-37.794
854.52	-40.444
854.82	-41.962
855.11	-43.685
855.41	-43.007
855.70	-42.865
856.00	-37.811
856.30	-38.746
856.59	-40.225
856.89	-45.412
857.18	-46.050
857.48	-42.881
857.77	-38.309
858.07	-37.782
858.36	-36.568
858.66	-35.313
858.95	-34.552
859.25	-36.371
859.54	-36.357
859.84	-35.763
860.13	-31.887
860.42	-28.347
860.72	-29.806
861.01	-31.639
861.31	-30.342
861.60	-32.613
861.90	-32.974
862.19	-33.857
862.49	-34.195
862.78	-30.128
863.07	-28.959
863.37	-29.629
863.66	-27.976
863.96	-29.068
864.25	-26.716
864.54	-26.805
864.84	-23.225
865.13	-21.965
865.43	-20.662
865.72	-11.981
866.01	-21.258
866.31	-14.585
866.60	-24.065
866.89	-33.069
>>>>>End Spectral Data<<<<<
