OOIBase32 Version 2.0.0.6 Data File
++++++++++++++++++++++++++++++++++++
Date: 01-22-2012, 20:56:32
User: Valued Ocean Optics Customer
Spectrometer Serial Number: USB2E2917
Spectrometer Channel: Master
Integration Time (msec): 4
Spectra Averaged: 10
Boxcar Smoothing: 5
Correct for Electrical Dark: Enabled
Time Normalized: Disabled
Dual-beam Reference: Disabled
Reference Channel: Master
Temperature: Not acquired
Spectrometer Type: S2000
ADC Type: USB2000
Number of Pixels in File: 2048
Graph Title: 
>>>>>Begin Spectral Data<<<<<
180.30	0.000
180.67	0.000
181.03	87.990
181.40	384.857
181.77	-179.100
182.14	-19.592
182.51	774.332
182.88	-4.814
183.25	97.274
183.62	654.672
183.99	70.501
184.36	98.037
184.73	-120.742
185.10	249.515
185.46	39.929
185.83	87.865
186.20	90.275
186.57	12.376
186.94	89.690
187.31	-26.050
187.68	-3204.818
188.05	-62.253
188.42	-49.269
188.78	27.919
189.15	39.802
189.52	31.117
189.89	23.546
190.26	26.526
190.63	6.630
191.00	6.436
191.37	-22.253
191.73	-34.687
192.10	-15.807
192.47	-20.409
192.84	-55.429
193.21	-66.522
193.58	-224.450
193.94	-246.265
194.31	-120.046
194.68	-44.549
195.05	-75.615
195.42	-43.740
195.79	-39.145
196.15	-34.948
196.52	-10.339
196.89	-26.022
197.26	-40.311
197.63	-25.831
198.00	-41.429
198.36	-88.533
198.73	-42.419
199.10	11.117
199.47	-2.913
199.84	6.506
200.20	-31.876
200.57	-26.074
200.94	15.898
201.31	31.577
201.68	28.729
202.04	29.580
202.41	25.626
202.78	19.508
203.15	15.878
203.51	15.290
203.88	14.520
204.25	21.113
204.62	5.985
204.98	-9.286
205.35	-35.633
205.72	-61.759
206.09	-135.520
206.46	-84.964
206.82	-110.156
207.19	-111.170
207.56	-116.752
207.92	-145.093
208.29	-93.603
208.66	-73.414
209.03	-75.544
209.39	-36.936
209.76	-8.843
210.13	10.436
210.50	17.365
210.86	-0.692
211.23	-24.652
211.60	-60.060
211.96	-76.393
212.33	-146.513
212.70	2665.045
213.07	202.474
213.43	190.627
213.80	909.305
214.17	195.709
214.53	1234.506
214.90	-136.801
215.27	-53.495
215.63	-50.170
216.00	-4.216
216.37	-3.073
216.74	-10.311
217.10	6.550
217.47	-1.848
217.84	0.018
218.20	4.101
218.57	20.522
218.94	19.098
219.30	23.074
219.67	21.961
220.04	24.571
220.40	24.856
220.77	25.447
221.13	14.461
221.50	29.129
221.87	29.987
222.23	30.741
222.60	20.179
222.97	12.213
223.33	0.162
223.70	-1.339
224.07	-1.979
224.43	-0.244
224.80	5.555
225.16	6.842
225.53	3.811
225.90	3.628
226.26	3.291
226.63	3.412
226.99	4.065
227.36	6.235
227.73	7.641
228.09	6.209
228.46	7.156
228.82	5.120
229.19	4.560
229.56	4.496
229.92	5.175
230.29	5.827
230.65	7.455
231.02	6.486
231.38	7.825
231.75	6.034
232.12	6.671
232.48	4.411
232.85	5.485
233.21	4.962
233.58	6.149
233.94	7.438
234.31	8.218
234.68	5.792
235.04	8.328
235.41	7.454
235.77	6.974
236.14	8.144
236.50	10.248
236.87	10.076
237.23	10.109
237.60	8.265
237.96	5.077
238.33	3.779
238.69	5.258
239.06	4.575
239.42	4.121
239.79	4.372
240.15	4.070
240.52	3.347
240.88	2.223
241.25	1.911
241.61	1.537
241.98	2.386
242.34	2.656
242.71	1.899
243.07	2.389
243.44	2.715
243.80	2.815
244.17	2.324
244.53	2.294
244.90	2.697
245.26	3.038
245.63	3.020
245.99	3.085
246.36	2.935
246.72	3.001
247.09	2.376
247.45	2.345
247.81	2.370
248.18	2.637
248.54	2.803
248.91	2.493
249.27	1.724
249.64	2.377
250.00	2.394
250.36	2.488
250.73	2.270
251.09	2.247
251.46	1.810
251.82	2.037
252.19	1.844
252.55	2.140
252.91	2.989
253.28	3.415
253.64	3.057
254.01	3.070
254.37	3.886
254.73	4.030
255.10	4.025
255.46	4.590
255.83	4.093
256.19	4.177
256.55	3.895
256.92	3.544
257.28	3.745
257.65	3.799
258.01	3.453
258.37	3.160
258.74	3.237
259.10	3.629
259.46	3.451
259.83	3.620
260.19	3.713
260.55	3.809
260.92	3.942
261.28	3.679
261.64	3.565
262.01	3.615
262.37	3.443
262.73	3.202
263.10	2.634
263.46	2.947
263.82	2.778
264.19	2.450
264.55	2.302
264.91	2.304
265.28	2.650
265.64	2.612
266.00	2.812
266.37	3.156
266.73	3.425
267.09	3.464
267.46	2.897
267.82	3.123
268.18	3.319
268.54	3.340
268.91	3.456
269.27	3.252
269.63	3.183
270.00	2.895
270.36	2.625
270.72	2.298
271.08	2.305
271.45	2.407
271.81	2.397
272.17	2.684
272.53	2.736
272.90	2.465
273.26	2.476
273.62	2.697
273.98	3.112
274.35	3.535
274.71	3.705
275.07	3.866
275.43	4.135
275.80	3.973
276.16	3.645
276.52	3.474
276.88	3.843
277.25	3.637
277.61	3.690
277.97	3.425
278.33	3.228
278.69	3.425
279.06	3.312
279.42	3.266
279.78	3.224
280.14	3.124
280.50	3.149
280.87	2.984
281.23	3.183
281.59	3.190
281.95	3.304
282.31	3.231
282.68	3.288
283.04	3.208
283.40	3.156
283.76	3.092
284.12	3.142
284.48	3.044
284.85	3.017
285.21	3.137
285.57	3.050
285.93	3.015
286.29	2.761
286.65	2.628
287.02	2.761
287.38	2.775
287.74	2.974
288.10	2.854
288.46	3.009
288.82	2.829
289.18	2.449
289.54	2.256
289.91	2.140
290.27	2.580
290.63	2.659
290.99	2.601
291.35	2.578
291.71	2.283
292.07	2.393
292.43	2.307
292.79	2.642
293.16	2.841
293.52	2.892
293.88	2.916
294.24	2.779
294.60	2.832
294.96	2.778
295.32	2.715
295.68	2.853
296.04	2.989
296.40	3.015
296.76	2.873
297.12	2.970
297.49	3.114
297.85	3.327
298.21	3.455
298.57	3.404
298.93	3.639
299.29	3.618
299.65	3.670
300.01	3.604
300.37	3.739
300.73	3.972
301.09	3.936
301.45	3.814
301.81	3.780
302.17	3.661
302.53	3.512
302.89	3.320
303.25	3.400
303.61	3.478
303.97	3.554
304.33	3.585
304.69	3.685
305.05	3.759
305.41	3.860
305.77	3.787
306.13	3.936
306.49	4.278
306.85	4.357
307.21	4.320
307.57	4.189
307.93	4.142
308.29	4.220
308.65	3.812
309.01	3.810
309.37	3.786
309.73	3.862
310.09	3.718
310.45	3.534
310.81	3.614
311.17	3.709
311.53	3.851
311.89	3.852
312.25	3.715
312.61	3.957
312.96	4.069
313.32	4.076
313.68	3.968
314.04	4.187
314.40	4.066
314.76	4.038
315.12	4.168
315.48	4.111
315.84	3.931
316.20	3.919
316.56	3.999
316.92	3.959
317.27	4.090
317.63	4.076
317.99	3.750
318.35	3.998
318.71	3.993
319.07	3.986
319.43	3.894
319.79	4.068
320.15	4.156
320.50	4.183
320.86	4.164
321.22	4.117
321.58	4.141
321.94	4.360
322.30	4.398
322.66	4.495
323.01	4.429
323.37	4.657
323.73	4.596
324.09	4.800
324.45	4.704
324.81	4.762
325.17	4.827
325.52	5.045
325.88	5.004
326.24	4.946
326.60	4.847
326.96	4.904
327.31	4.695
327.67	4.867
328.03	4.731
328.39	4.696
328.75	4.661
329.11	4.673
329.46	4.611
329.82	4.702
330.18	4.733
330.54	4.842
330.90	4.859
331.25	4.941
331.61	4.895
331.97	4.940
332.33	5.083
332.68	5.237
333.04	5.295
333.40	5.419
333.76	5.375
334.11	5.270
334.47	5.330
334.83	5.286
335.19	5.256
335.54	5.237
335.90	5.161
336.26	5.136
336.62	5.147
336.97	5.069
337.33	4.922
337.69	4.895
338.05	5.120
338.40	4.991
338.76	4.992
339.12	5.020
339.48	4.956
339.83	4.958
340.19	4.962
340.55	4.857
340.90	4.887
341.26	4.923
341.62	4.939
341.97	4.858
342.33	4.967
342.69	4.998
343.04	4.956
343.40	5.004
343.76	4.947
344.12	4.894
344.47	4.858
344.83	4.854
345.19	4.813
345.54	4.873
345.90	4.826
346.26	4.716
346.61	4.648
346.97	4.748
347.32	4.759
347.68	4.832
348.04	4.846
348.39	4.895
348.75	4.887
349.11	4.829
349.46	4.775
349.82	4.783
350.18	4.808
350.53	4.914
350.89	4.874
351.24	4.853
351.60	4.794
351.96	4.868
352.31	4.810
352.67	4.799
353.02	4.875
353.38	4.940
353.74	4.980
354.09	4.973
354.45	4.892
354.80	4.871
355.16	4.865
355.52	4.886
355.87	4.857
356.23	4.856
356.58	4.887
356.94	4.878
357.29	4.794
357.65	4.792
358.00	4.740
358.36	4.779
358.72	4.762
359.07	4.738
359.43	4.801
359.78	4.757
360.14	4.748
360.49	4.727
360.85	4.702
361.20	4.708
361.56	4.656
361.91	4.726
362.27	4.668
362.62	4.706
362.98	4.803
363.33	4.810
363.69	4.870
364.04	4.955
364.40	4.958
364.75	4.958
365.11	4.980
365.46	4.994
365.82	4.915
366.17	4.957
366.53	4.937
366.88	4.931
367.24	4.918
367.59	4.907
367.95	4.892
368.30	4.840
368.66	4.859
369.01	4.882
369.37	4.903
369.72	4.943
370.08	4.937
370.43	4.916
370.78	4.920
371.14	4.910
371.49	4.891
371.85	4.817
372.20	4.885
372.56	4.906
372.91	4.878
373.26	4.943
373.62	4.939
373.97	4.990
374.33	5.043
374.68	5.018
375.03	4.995
375.39	4.949
375.74	5.007
376.10	5.052
376.45	5.072
376.80	5.136
377.16	5.073
377.51	5.124
377.87	5.178
378.22	5.226
378.57	5.250
378.93	5.300
379.28	5.390
379.63	5.414
379.99	5.446
380.34	5.460
380.70	5.478
381.05	5.536
381.40	5.547
381.76	5.549
382.11	5.540
382.46	5.579
382.82	5.607
383.17	5.628
383.52	5.703
383.88	5.724
384.23	5.817
384.58	5.883
384.94	5.938
385.29	6.041
385.64	6.053
385.99	6.098
386.35	6.155
386.70	6.169
387.05	6.222
387.41	6.245
387.76	6.276
388.11	6.251
388.47	6.246
388.82	6.294
389.17	6.299
389.52	6.345
389.88	6.395
390.23	6.443
390.58	6.512
390.93	6.582
391.29	6.657
391.64	6.709
391.99	6.833
392.34	6.927
392.70	6.965
393.05	7.031
393.40	7.105
393.75	7.169
394.11	7.225
394.46	7.317
394.81	7.387
395.16	7.457
395.52	7.534
395.87	7.580
396.22	7.663
396.57	7.739
396.92	7.782
397.28	7.849
397.63	7.929
397.98	8.025
398.33	8.081
398.68	8.152
399.04	8.199
399.39	8.278
399.74	8.349
400.09	8.398
400.44	8.494
400.80	8.619
401.15	8.700
401.50	8.826
401.85	8.894
402.20	8.981
402.55	9.096
402.90	9.207
403.26	9.302
403.61	9.424
403.96	9.555
404.31	9.695
404.66	9.809
405.01	9.938
405.36	10.035
405.72	10.167
406.07	10.312
406.42	10.446
406.77	10.571
407.12	10.708
407.47	10.810
407.82	10.934
408.17	11.028
408.53	11.156
408.88	11.274
409.23	11.382
409.58	11.513
409.93	11.657
410.28	11.783
410.63	11.934
410.98	12.078
411.33	12.236
411.68	12.371
412.03	12.480
412.38	12.608
412.73	12.774
413.09	12.893
413.44	12.984
413.79	13.097
414.14	13.229
414.49	13.301
414.84	13.413
415.19	13.508
415.54	13.620
415.89	13.751
416.24	13.847
416.59	13.941
416.94	14.082
417.29	14.189
417.64	14.288
417.99	14.368
418.34	14.490
418.69	14.576
419.04	14.698
419.39	14.824
419.74	14.951
420.09	15.081
420.44	15.194
420.79	15.288
421.14	15.419
421.49	15.575
421.84	15.706
422.19	15.833
422.54	15.985
422.89	16.135
423.24	16.261
423.59	16.414
423.94	16.543
424.29	16.695
424.64	16.869
424.99	17.070
425.34	17.231
425.68	17.405
426.03	17.634
426.38	17.830
426.73	18.032
427.08	18.259
427.43	18.473
427.78	18.647
428.13	18.823
428.48	19.025
428.83	19.172
429.18	19.326
429.53	19.507
429.87	19.651
430.22	19.760
430.57	19.863
430.92	19.944
431.27	20.048
431.62	20.165
431.97	20.297
432.32	20.414
432.67	20.528
433.01	20.658
433.36	20.813
433.71	20.924
434.06	21.107
434.41	21.264
434.76	21.463
435.11	21.644
435.45	21.842
435.80	21.973
436.15	22.069
436.50	22.189
436.85	22.277
437.20	22.318
437.54	22.460
437.89	22.548
438.24	22.645
438.59	22.699
438.94	22.752
439.29	22.832
439.63	22.911
439.98	23.026
440.33	23.129
440.68	23.231
441.03	23.380
441.37	23.478
441.72	23.574
442.07	23.681
442.42	23.781
442.76	23.882
443.11	23.955
443.46	24.033
443.81	24.114
444.16	24.169
444.50	24.228
444.85	24.277
445.20	24.325
445.55	24.374
445.89	24.425
446.24	24.502
446.59	24.577
446.94	24.664
447.28	24.783
447.63	24.874
447.98	25.016
448.32	25.156
448.67	25.283
449.02	25.415
449.37	25.560
449.71	25.691
450.06	25.844
450.41	25.944
450.75	26.067
451.10	26.164
451.45	26.266
451.79	26.383
452.14	26.481
452.49	26.583
452.84	26.681
453.18	26.791
453.53	26.891
453.88	26.973
454.22	27.062
454.57	27.110
454.92	27.192
455.26	27.257
455.61	27.279
455.95	27.301
456.30	27.349
456.65	27.393
456.99	27.442
457.34	27.472
457.69	27.509
458.03	27.532
458.38	27.623
458.73	27.702
459.07	27.795
459.42	27.894
459.76	27.989
460.11	28.102
460.46	28.198
460.80	28.319
461.15	28.467
461.49	28.556
461.84	28.734
462.19	28.853
462.53	28.968
462.88	29.094
463.22	29.195
463.57	29.345
463.91	29.463
464.26	29.583
464.61	29.682
464.95	29.782
465.30	29.937
465.64	30.021
465.99	30.088
466.33	30.148
466.68	30.190
467.02	30.263
467.37	30.323
467.71	30.365
468.06	30.410
468.41	30.460
468.75	30.523
469.10	30.563
469.44	30.617
469.79	30.685
470.13	30.719
470.48	30.793
470.82	30.863
471.17	30.903
471.51	30.966
471.86	31.015
472.20	31.030
472.55	31.021
472.89	31.018
473.23	31.009
473.58	30.976
473.92	31.022
474.27	31.015
474.61	31.006
474.96	30.998
475.30	30.987
475.65	30.992
475.99	31.015
476.34	31.026
476.68	31.044
477.02	31.075
477.37	31.111
477.71	31.095
478.06	31.128
478.40	31.163
478.75	31.285
479.09	31.409
479.43	31.546
479.78	31.725
480.12	31.950
480.47	32.212
480.81	32.476
481.15	32.756
481.50	33.066
481.84	33.465
482.19	33.852
482.53	34.119
482.87	34.180
483.22	34.019
483.56	33.624
483.90	33.193
484.25	32.859
484.59	32.675
484.94	32.448
485.28	32.171
485.62	31.777
485.97	31.344
486.31	31.014
486.65	30.889
487.00	31.030
487.34	31.428
487.68	31.844
488.03	32.092
488.37	32.124
488.71	32.146
489.06	32.197
489.40	32.216
489.74	32.264
490.09	32.279
490.43	32.318
490.77	32.342
491.11	32.370
491.46	32.428
491.80	32.460
492.14	32.492
492.49	32.542
492.83	32.562
493.17	32.608
493.51	32.640
493.86	32.721
494.20	32.794
494.54	32.834
494.88	32.871
495.23	32.881
495.57	32.962
495.91	33.041
496.25	33.107
496.60	33.171
496.94	33.240
497.28	33.332
497.62	33.407
497.97	33.477
498.31	33.588
498.65	33.693
498.99	33.829
499.33	33.930
499.68	34.027
500.02	34.119
500.36	34.197
500.70	34.258
501.04	34.293
501.39	34.351
501.73	34.382
502.07	34.403
502.41	34.470
502.75	34.504
503.09	34.559
503.44	34.605
503.78	34.675
504.12	34.731
504.46	34.783
504.80	34.869
505.14	34.922
505.49	34.998
505.83	35.060
506.17	35.108
506.51	35.146
506.85	35.165
507.19	35.212
507.53	35.210
507.87	35.249
508.22	35.274
508.56	35.290
508.90	35.305
509.24	35.327
509.58	35.370
509.92	35.371
510.26	35.398
510.60	35.467
510.94	35.478
511.28	35.547
511.63	35.600
511.97	35.661
512.31	35.687
512.65	35.726
512.99	35.780
513.33	35.799
513.67	35.834
514.01	35.851
514.35	35.833
514.69	35.857
515.03	35.854
515.37	35.851
515.71	35.823
516.05	35.848
516.39	35.855
516.73	35.841
517.07	35.867
517.41	35.890
517.75	35.910
518.09	35.908
518.43	35.919
518.77	35.910
519.11	35.890
519.45	35.899
519.79	35.907
520.13	35.874
520.47	35.881
520.81	35.865
521.15	35.830
521.49	35.800
521.83	35.774
522.17	35.748
522.51	35.733
522.85	35.747
523.19	35.746
523.53	35.749
523.87	35.852
524.21	35.940
524.55	36.027
524.89	36.146
525.23	36.245
525.57	36.349
525.91	36.430
526.25	36.509
526.58	36.580
526.92	36.660
527.26	36.727
527.60	36.722
527.94	36.679
528.28	36.638
528.62	36.538
528.96	36.461
529.30	36.366
529.64	36.259
529.97	36.178
530.31	36.072
530.65	35.941
530.99	35.803
531.33	35.723
531.67	35.688
532.01	35.614
532.35	35.613
532.68	35.582
533.02	35.552
533.36	35.521
533.70	35.448
534.04	35.390
534.38	35.376
534.71	35.357
535.05	35.297
535.39	35.225
535.73	35.181
536.07	35.106
536.41	35.085
536.74	35.034
537.08	35.005
537.42	34.980
537.76	34.992
538.10	34.986
538.43	34.984
538.77	35.011
539.11	35.036
539.45	35.059
539.79	35.091
540.12	35.074
540.46	35.060
540.80	35.036
541.14	35.036
541.47	34.992
541.81	34.936
542.15	34.887
542.49	34.815
542.82	34.736
543.16	34.682
543.50	34.605
543.84	34.540
544.17	34.525
544.51	34.522
544.85	34.490
545.18	34.454
545.52	34.438
545.86	34.414
546.20	34.416
546.53	34.434
546.87	34.441
547.21	34.442
547.54	34.455
547.88	34.447
548.22	34.433
548.55	34.402
548.89	34.361
549.23	34.347
549.56	34.363
549.90	34.323
550.24	34.292
550.57	34.231
550.91	34.186
551.25	34.145
551.58	34.094
551.92	34.041
552.26	34.060
552.59	34.083
552.93	34.075
553.27	34.021
553.60	33.992
553.94	33.946
554.27	33.901
554.61	33.884
554.95	33.896
555.28	33.893
555.62	33.865
555.95	33.795
556.29	33.764
556.63	33.739
556.96	33.680
557.30	33.688
557.63	33.662
557.97	33.639
558.31	33.583
558.64	33.512
558.98	33.436
559.31	33.401
559.65	33.356
559.98	33.271
560.32	33.215
560.65	33.168
560.99	33.099
561.33	33.033
561.66	32.999
562.00	32.921
562.33	32.846
562.67	32.790
563.00	32.755
563.34	32.723
563.67	32.709
564.01	32.656
564.34	32.619
564.68	32.588
565.01	32.547
565.35	32.513
565.68	32.490
566.02	32.455
566.35	32.427
566.69	32.360
567.02	32.278
567.36	32.241
567.69	32.169
568.03	32.095
568.36	32.022
568.69	31.980
569.03	31.927
569.36	31.882
569.70	31.835
570.03	31.806
570.37	31.736
570.70	31.717
571.04	31.649
571.37	31.600
571.70	31.579
572.04	31.537
572.37	31.493
572.71	31.458
573.04	31.439
573.37	31.425
573.71	31.370
574.04	31.358
574.38	31.330
574.71	31.323
575.04	31.343
575.38	31.359
575.71	31.362
576.05	31.370
576.38	31.353
576.71	31.329
577.05	31.317
577.38	31.343
577.71	31.351
578.05	31.351
578.38	31.327
578.71	31.274
579.05	31.227
579.38	31.197
579.71	31.157
580.05	31.134
580.38	31.087
580.71	31.054
581.05	30.965
581.38	30.944
581.71	30.896
582.05	30.860
582.38	30.813
582.71	30.758
583.04	30.731
583.38	30.702
583.71	30.632
584.04	30.607
584.38	30.543
584.71	30.507
585.04	30.415
585.37	30.349
585.71	30.283
586.04	30.255
586.37	30.256
586.70	30.125
587.04	30.044
587.37	30.000
587.70	29.929
588.03	29.863
588.37	29.799
588.70	29.795
589.03	29.754
589.36	29.717
589.69	29.646
590.03	29.536
590.36	29.560
590.69	29.489
591.02	29.445
591.35	29.361
591.69	29.284
592.02	29.230
592.35	29.123
592.68	29.028
593.01	28.913
593.35	28.839
593.68	28.757
594.01	28.664
594.34	28.607
594.67	28.509
595.00	28.447
595.34	28.415
595.67	28.356
596.00	28.315
596.33	28.301
596.66	28.319
596.99	28.277
597.32	28.265
597.65	28.209
597.99	28.190
598.32	28.143
598.65	28.115
598.98	28.017
599.31	27.929
599.64	27.905
599.97	27.864
600.30	27.757
600.63	27.656
600.96	27.560
601.30	27.503
601.63	27.399
601.96	27.344
602.29	27.295
602.62	27.270
602.95	27.262
603.28	27.170
603.61	27.074
603.94	27.015
604.27	27.020
604.60	26.996
604.93	26.949
605.26	26.922
605.59	26.902
605.92	26.896
606.25	26.864
606.58	26.816
606.91	26.776
607.24	26.742
607.57	26.712
607.90	26.669
608.23	26.629
608.56	26.631
608.89	26.609
609.22	26.562
609.55	26.527
609.88	26.517
610.21	26.485
610.54	26.447
610.87	26.410
611.20	26.385
611.53	26.346
611.86	26.313
612.19	26.241
612.52	26.200
612.85	26.188
613.18	26.099
613.51	25.990
613.84	25.908
614.17	25.882
614.49	25.839
614.82	25.847
615.15	25.844
615.48	25.854
615.81	25.836
616.14	25.765
616.47	25.691
616.80	25.664
617.13	25.638
617.46	25.666
617.78	25.562
618.11	25.537
618.44	25.496
618.77	25.445
619.10	25.334
619.43	25.287
619.76	25.264
620.09	25.239
620.41	25.173
620.74	25.145
621.07	25.039
621.40	25.078
621.73	25.043
622.06	24.951
622.38	24.900
622.71	24.849
623.04	24.779
623.37	24.777
623.70	24.721
624.02	24.683
624.35	24.616
624.68	24.650
625.01	24.567
625.34	24.495
625.66	24.448
625.99	24.387
626.32	24.393
626.65	24.379
626.98	24.336
627.30	24.337
627.63	24.328
627.96	24.304
628.29	24.227
628.61	24.213
628.94	24.185
629.27	24.124
629.60	24.090
629.92	24.043
630.25	23.994
630.58	23.883
630.91	23.774
631.23	23.699
631.56	23.666
631.89	23.586
632.21	23.585
632.54	23.568
632.87	23.574
633.19	23.535
633.52	23.455
633.85	23.430
634.18	23.461
634.50	23.461
634.83	23.439
635.16	23.347
635.48	23.306
635.81	23.227
636.14	23.153
636.46	23.097
636.79	23.009
637.11	23.019
637.44	22.937
637.77	22.893
638.09	22.831
638.42	22.820
638.75	22.806
639.07	22.785
639.40	22.754
639.73	22.725
640.05	22.700
640.38	22.685
640.70	22.636
641.03	22.642
641.36	22.573
641.68	22.559
642.01	22.500
642.33	22.510
642.66	22.464
642.98	22.427
643.31	22.424
643.64	22.392
643.96	22.406
644.29	22.399
644.61	22.312
644.94	22.317
645.26	22.326
645.59	22.306
645.91	22.284
646.24	22.277
646.56	22.206
646.89	22.185
647.22	22.150
647.54	22.111
647.87	22.049
648.19	22.087
648.52	22.028
648.84	21.934
649.17	21.935
649.49	21.837
649.82	21.825
650.14	21.820
650.47	21.757
650.79	21.774
651.11	21.715
651.44	21.707
651.76	21.635
652.09	21.647
652.41	21.687
652.74	21.598
653.06	21.631
653.39	21.579
653.71	21.600
654.04	21.637
654.36	21.543
654.68	21.525
655.01	21.432
655.33	21.422
655.66	21.327
655.98	21.242
656.30	21.248
656.63	21.182
656.95	21.160
657.28	21.163
657.60	21.131
657.92	21.062
658.25	21.045
658.57	21.042
658.90	21.002
659.22	20.978
659.54	20.912
659.87	20.825
660.19	20.821
660.51	20.785
660.84	20.640
661.16	20.550
661.48	20.625
661.81	20.595
662.13	20.636
662.45	20.673
662.78	20.659
663.10	20.674
663.42	20.657
663.75	20.689
664.07	20.724
664.39	20.734
664.72	20.712
665.04	20.659
665.36	20.655
665.69	20.606
666.01	20.513
666.33	20.519
666.65	20.448
666.98	20.439
667.30	20.401
667.62	20.338
667.94	20.354
668.27	20.320
668.59	20.297
668.91	20.235
669.23	20.182
669.56	20.195
669.88	20.137
670.20	20.172
670.52	20.199
670.85	20.153
671.17	20.156
671.49	20.101
671.81	20.048
672.13	19.977
672.46	19.928
672.78	19.957
673.10	19.872
673.42	19.918
673.74	19.946
674.07	19.949
674.39	19.929
674.71	19.854
675.03	19.879
675.35	19.921
675.67	19.861
676.00	19.912
676.32	19.885
676.64	19.913
676.96	19.927
677.28	19.941
677.60	19.869
677.92	19.838
678.25	19.874
678.57	19.844
678.89	19.844
679.21	19.922
679.53	19.872
679.85	19.878
680.17	19.866
680.49	19.786
680.81	19.760
681.13	19.772
681.46	19.707
681.78	19.664
682.10	19.658
682.42	19.646
682.74	19.629
683.06	19.657
683.38	19.667
683.70	19.700
684.02	19.757
684.34	19.700
684.66	19.736
684.98	19.838
685.30	19.867
685.62	19.816
685.94	19.793
686.26	19.846
686.58	19.831
686.90	19.726
687.22	19.737
687.54	19.680
687.86	19.693
688.18	19.649
688.50	19.601
688.82	19.587
689.14	19.560
689.46	19.553
689.78	19.467
690.10	19.431
690.42	19.372
690.74	19.270
691.06	19.290
691.38	19.255
691.70	19.152
692.02	19.078
692.34	18.929
692.66	18.861
692.98	18.780
693.30	18.749
693.62	18.725
693.94	18.741
694.26	18.717
694.57	18.676
694.89	18.698
695.21	18.760
695.53	18.776
695.85	18.855
696.17	18.931
696.49	18.951
696.81	19.015
697.13	19.055
697.44	19.101
697.76	19.110
698.08	19.104
698.40	19.022
698.72	18.902
699.04	18.848
699.36	18.790
699.67	18.702
699.99	18.662
700.31	18.502
700.63	18.346
700.95	18.203
701.27	18.076
701.58	17.940
701.90	17.941
702.22	17.968
702.54	18.060
702.86	17.980
703.17	17.993
703.49	17.912
703.81	17.919
704.13	17.955
704.45	17.975
704.76	18.007
705.08	18.030
705.40	17.989
705.72	18.028
706.03	17.994
706.35	17.999
706.67	18.008
706.99	18.048
707.30	18.033
707.62	18.035
707.94	18.054
708.26	18.038
708.57	17.981
708.89	18.012
709.21	18.081
709.53	18.047
709.84	18.125
710.16	18.043
710.48	18.032
710.79	18.003
711.11	17.974
711.43	17.968
711.74	17.948
712.06	18.050
712.38	18.024
712.69	17.908
713.01	17.938
713.33	17.919
713.64	18.006
713.96	18.094
714.28	18.209
714.59	18.273
714.91	18.313
715.23	18.496
715.54	18.398
715.86	18.452
716.17	18.509
716.49	18.501
716.81	18.468
717.12	18.431
717.44	18.367
717.76	18.253
718.07	18.188
718.39	18.091
718.70	17.948
719.02	17.986
719.33	17.972
719.65	18.009
719.97	18.013
720.28	18.050
720.60	18.076
720.91	18.058
721.23	18.010
721.54	17.971
721.86	18.056
722.17	18.109
722.49	18.148
722.81	18.234
723.12	18.165
723.44	18.160
723.75	18.182
724.07	18.131
724.38	18.166
724.70	18.221
725.01	18.215
725.33	18.241
725.64	18.157
725.96	18.182
726.27	18.131
726.59	18.213
726.90	18.174
727.22	18.223
727.53	18.227
727.84	18.180
728.16	18.097
728.47	18.157
728.79	18.071
729.10	18.067
729.42	18.029
729.73	17.882
730.05	17.740
730.36	17.670
730.67	17.531
730.99	17.435
731.30	17.360
731.62	17.428
731.93	17.301
732.24	17.125
732.56	17.038
732.87	16.909
733.19	16.967
733.50	16.967
733.81	16.935
734.13	16.895
734.44	16.996
734.76	17.026
735.07	16.934
735.38	16.834
735.70	16.900
736.01	16.834
736.32	16.965
736.64	16.871
736.95	16.731
737.26	16.777
737.58	16.690
737.89	16.646
738.20	16.619
738.52	16.541
738.83	16.612
739.14	16.630
739.45	16.633
739.77	16.389
740.08	16.347
740.39	16.381
740.71	16.257
741.02	16.241
741.33	16.099
741.64	15.868
741.96	15.883
742.27	15.851
742.58	15.838
742.90	15.820
743.21	15.813
743.52	15.801
743.83	15.804
744.14	15.640
744.46	15.494
744.77	15.546
745.08	15.604
745.39	15.452
745.71	15.440
746.02	15.440
746.33	15.337
746.64	15.518
746.95	15.507
747.27	15.471
747.58	15.575
747.89	15.677
748.20	15.726
748.51	15.777
748.82	15.781
749.14	15.742
749.45	15.720
749.76	15.804
750.07	15.825
750.38	15.826
750.69	15.852
751.01	15.910
751.32	15.727
751.63	15.765
751.94	15.861
752.25	15.953
752.56	15.992
752.87	16.042
753.18	15.982
753.49	15.797
753.81	15.576
754.12	15.560
754.43	15.519
754.74	15.720
755.05	15.654
755.36	15.557
755.67	15.786
755.98	16.251
756.29	16.404
756.60	16.638
756.91	16.869
757.22	17.358
757.53	17.562
757.84	17.767
758.15	18.040
758.46	18.120
758.77	18.502
759.09	18.594
759.40	18.513
759.71	18.678
760.02	18.594
760.33	18.646
760.64	18.591
760.95	18.623
761.26	18.648
761.57	18.570
761.88	18.581
762.18	18.413
762.49	18.364
762.80	18.186
763.11	18.019
763.42	18.006
763.73	17.794
764.04	17.598
764.35	17.419
764.66	17.320
764.97	17.181
765.28	16.944
765.59	16.745
765.90	16.422
766.21	16.342
766.52	15.924
766.83	15.726
767.14	15.628
767.44	15.597
767.75	15.372
768.06	14.950
768.37	14.865
768.68	14.761
768.99	14.748
769.30	14.603
769.61	14.291
769.91	14.318
770.22	14.217
770.53	14.126
770.84	13.989
771.15	13.966
771.46	14.137
771.77	13.781
772.07	13.818
772.38	13.654
772.69	13.576
773.00	13.567
773.31	13.679
773.61	13.523
773.92	13.700
774.23	13.674
774.54	13.529
774.85	13.352
775.15	13.411
775.46	13.226
775.77	13.193
776.08	13.323
776.39	13.204
776.69	13.259
777.00	13.581
777.31	13.623
777.62	13.578
777.92	13.928
778.23	13.900
778.54	13.868
778.85	14.250
779.15	14.211
779.46	14.175
779.77	14.409
780.07	14.541
780.38	14.363
780.69	14.135
781.00	14.215
781.30	14.134
781.61	14.266
781.92	14.403
782.22	14.274
782.53	14.355
782.84	14.249
783.14	14.301
783.45	14.240
783.76	14.429
784.06	14.378
784.37	14.466
784.68	14.374
784.98	14.239
785.29	14.585
785.60	14.597
785.90	14.849
786.21	15.105
786.51	15.501
786.82	15.386
787.13	15.394
787.43	15.556
787.74	15.578
788.04	15.895
788.35	16.260
788.66	16.143
788.96	16.029
789.27	15.858
789.57	15.727
789.88	15.357
790.19	15.506
790.49	15.539
790.80	15.695
791.10	15.908
791.41	15.746
791.71	15.537
792.02	15.576
792.32	15.697
792.63	15.588
792.93	15.673
793.24	15.698
793.54	15.589
793.85	15.756
794.15	15.610
794.46	15.847
794.76	15.914
795.07	15.865
795.37	15.808
795.68	15.950
795.98	16.208
796.29	16.264
796.59	16.188
796.90	16.471
797.20	16.152
797.51	16.233
797.81	15.903
798.12	15.856
798.42	16.188
798.72	16.175
799.03	16.307
799.33	16.382
799.64	16.237
799.94	16.343
800.25	15.882
800.55	16.193
800.85	16.252
801.16	16.310
801.46	16.189
801.77	15.875
802.07	16.073
802.37	15.885
802.68	15.950
802.98	16.120
803.28	16.130
803.59	16.518
803.89	16.512
804.20	16.445
804.50	16.233
804.80	16.272
805.11	16.422
805.41	16.473
805.71	16.386
806.02	16.038
806.32	15.867
806.62	15.798
806.93	15.903
807.23	15.921
807.53	16.145
807.83	16.434
808.14	16.737
808.44	16.677
808.74	16.689
809.05	17.034
809.35	17.271
809.65	17.585
809.95	17.628
810.26	17.614
810.56	18.079
810.86	18.097
811.16	18.004
811.47	17.904
811.77	18.011
812.07	18.036
812.37	17.792
812.68	18.369
812.98	18.221
813.28	18.277
813.58	18.556
813.88	17.559
814.19	18.416
814.49	18.464
814.79	18.673
815.09	18.823
815.39	18.613
815.70	19.112
816.00	18.648
816.30	18.900
816.60	19.046
816.90	18.766
817.20	19.381
817.50	19.109
817.81	19.203
818.11	19.194
818.41	19.282
818.71	19.625
819.01	19.609
819.31	19.710
819.61	19.876
819.92	19.919
820.22	20.062
820.52	20.068
820.82	20.052
821.12	20.048
821.42	20.037
821.72	20.019
822.02	19.976
822.32	20.008
822.62	20.059
822.92	20.000
823.22	19.953
823.52	19.864
823.83	19.791
824.13	19.765
824.43	19.760
824.73	19.781
825.03	19.777
825.33	19.751
825.63	19.660
825.93	19.497
826.23	19.447
826.53	19.581
826.83	19.649
827.13	19.645
827.43	19.598
827.73	19.571
828.03	19.581
828.33	19.671
828.63	19.559
828.93	19.603
829.23	19.719
829.53	19.671
829.83	19.599
830.13	19.480
830.42	19.784
830.72	19.473
831.02	19.458
831.32	19.192
831.62	19.007
831.92	19.141
832.22	19.201
832.52	19.251
832.82	19.387
833.12	19.292
833.42	19.336
833.72	19.090
834.01	19.271
834.31	19.264
834.61	19.436
834.91	19.580
835.21	19.534
835.51	19.261
835.81	18.830
836.11	18.744
836.40	18.804
836.70	18.424
837.00	18.326
837.30	18.544
837.60	18.920
837.90	18.949
838.19	18.841
838.49	19.092
838.79	19.416
839.09	19.678
839.39	19.897
839.68	19.656
839.98	19.762
840.28	19.740
840.58	19.504
840.88	18.599
841.17	18.417
841.47	18.952
841.77	18.224
842.07	18.257
842.36	18.285
842.66	17.714
842.96	17.715
843.26	17.504
843.55	16.721
843.85	15.679
844.15	15.308
844.45	14.590
844.74	14.242
845.04	14.675
845.34	14.254
845.63	13.940
845.93	14.054
846.23	15.015
846.53	15.309
846.82	16.230
847.12	16.454
847.42	17.634
847.71	19.485
848.01	19.264
848.31	19.647
848.60	20.127
848.90	20.204
849.19	20.193
849.49	17.734
849.79	17.343
850.08	17.737
850.38	18.605
850.68	19.313
850.97	18.393
851.27	17.650
851.56	17.291
851.86	16.559
852.16	17.743
852.45	18.170
852.75	19.705
853.04	20.139
853.34	20.639
853.64	20.649
853.93	20.138
854.23	20.922
854.52	20.957
854.82	21.126
855.11	21.385
855.41	20.108
855.70	19.395
856.00	18.893
856.30	18.209
856.59	16.040
856.89	14.778
857.18	14.724
857.48	13.470
857.77	14.624
858.07	14.827
858.36	14.951
858.66	15.676
858.95	16.346
859.25	17.374
859.54	18.299
859.84	19.707
860.13	20.852
860.42	20.841
860.72	22.014
861.01	20.880
861.31	20.744
861.60	21.493
861.90	21.357
862.19	20.348
862.49	19.839
862.78	20.443
863.07	19.103
863.37	19.502
863.66	19.958
863.96	19.383
864.25	19.320
864.54	19.143
864.84	18.721
865.13	18.485
865.43	18.829
865.72	14.060
866.01	16.337
866.31	25.213
866.60	15.008
866.89	17.645
>>>>>End Spectral Data<<<<<
