OOIBase32 Version 2.0.0.6 Data File
++++++++++++++++++++++++++++++++++++
Date: 01-22-2012, 20:56:51
User: Valued Ocean Optics Customer
Spectrometer Serial Number: USB2E2917
Spectrometer Channel: Master
Integration Time (msec): 4
Spectra Averaged: 10
Boxcar Smoothing: 5
Correct for Electrical Dark: Enabled
Time Normalized: Disabled
Dual-beam Reference: Disabled
Reference Channel: Master
Temperature: Not acquired
Spectrometer Type: S2000
ADC Type: USB2000
Number of Pixels in File: 2048
Graph Title: 
>>>>>Begin Spectral Data<<<<<
180.30	0.000
180.67	0.000
181.03	-143.499
181.40	-29.109
181.77	-80.526
182.14	-56.068
182.51	448.020
182.88	136.352
183.25	-19.639
183.62	283.576
183.99	17.503
184.36	-88.736
184.73	-19.642
185.10	199.004
185.46	95.286
185.83	11.941
186.20	-3.578
186.57	86.947
186.94	129.148
187.31	62.023
187.68	-4261.279
188.05	260.586
188.42	214.113
188.78	-85.376
189.15	44.270
189.52	38.392
189.89	21.239
190.26	45.311
190.63	42.429
191.00	63.072
191.37	91.021
191.73	132.454
192.10	137.992
192.47	111.871
192.84	248.286
193.21	352.858
193.58	450.432
193.94	298.856
194.31	136.886
194.68	79.904
195.05	82.502
195.42	89.913
195.79	73.920
196.15	61.415
196.52	43.965
196.89	31.906
197.26	8.755
197.63	-9.121
198.00	9.085
198.36	25.774
198.73	27.451
199.10	14.389
199.47	32.686
199.84	19.664
200.20	-19.512
200.57	15.775
200.94	35.874
201.31	47.601
201.68	46.331
202.04	49.140
202.41	42.585
202.78	40.360
203.15	35.646
203.51	30.914
203.88	38.094
204.25	45.301
204.62	33.263
204.98	24.505
205.35	10.323
205.72	-3.123
206.09	-50.774
206.46	-14.115
206.82	-39.209
207.19	-41.011
207.56	-36.556
207.92	-90.579
208.29	-76.653
208.66	-74.851
209.03	-92.788
209.39	-42.426
209.76	-30.885
210.13	-10.520
210.50	-24.893
210.86	-26.327
211.23	-42.961
211.60	-79.777
211.96	-68.215
212.33	-140.909
212.70	4320.687
213.07	354.822
213.43	321.315
213.80	1241.061
214.17	312.771
214.53	1806.120
214.90	-231.393
215.27	-102.756
215.63	-120.636
216.00	-92.900
216.37	-45.288
216.74	-31.635
217.10	-19.476
217.47	-24.882
217.84	-17.052
218.20	-2.267
218.57	4.922
218.94	-9.777
219.30	-11.720
219.67	-6.070
220.04	13.976
220.40	14.302
220.77	13.074
221.13	11.624
221.50	20.546
221.87	19.773
222.23	21.246
222.60	15.083
222.97	15.747
223.33	13.604
223.70	6.456
224.07	-6.797
224.43	-7.984
224.80	-3.150
225.16	-3.929
225.53	-5.620
225.90	-3.601
226.26	-3.954
226.63	-3.037
226.99	-3.210
227.36	-1.864
227.73	0.783
228.09	2.054
228.46	3.984
228.82	2.009
229.19	4.390
229.56	3.187
229.92	4.455
230.29	5.566
230.65	6.622
231.02	4.783
231.38	4.908
231.75	4.037
232.12	4.837
232.48	5.055
232.85	6.951
233.21	4.132
233.58	5.743
233.94	4.192
234.31	6.201
234.68	4.209
235.04	8.425
235.41	7.180
235.77	5.646
236.14	5.474
236.50	5.362
236.87	5.574
237.23	5.823
237.60	4.499
237.96	3.783
238.33	2.528
238.69	3.771
239.06	3.057
239.42	3.084
239.79	3.469
240.15	3.665
240.52	3.814
240.88	3.143
241.25	2.611
241.61	2.166
241.98	2.453
242.34	2.152
242.71	1.931
243.07	1.762
243.44	2.403
243.80	2.748
244.17	2.241
244.53	1.853
244.90	2.096
245.26	2.641
245.63	2.988
245.99	2.915
246.36	3.477
246.72	3.409
247.09	3.592
247.45	3.683
247.81	3.316
248.18	3.770
248.54	3.867
248.91	3.703
249.27	3.295
249.64	3.455
250.00	3.692
250.36	3.070
250.73	2.873
251.09	2.328
251.46	1.591
251.82	2.151
252.19	2.053
252.55	2.230
252.91	2.353
253.28	2.333
253.64	2.562
254.01	2.422
254.37	2.366
254.73	2.747
255.10	2.996
255.46	3.305
255.83	3.311
256.19	3.470
256.55	3.584
256.92	3.829
257.28	3.994
257.65	3.785
258.01	3.480
258.37	3.355
258.74	3.345
259.10	3.441
259.46	3.345
259.83	3.291
260.19	3.045
260.55	2.819
260.92	2.392
261.28	2.177
261.64	2.198
262.01	2.277
262.37	2.256
262.73	2.011
263.10	1.544
263.46	1.665
263.82	1.363
264.19	1.102
264.55	1.288
264.91	1.800
265.28	2.054
265.64	1.797
266.00	1.969
266.37	2.536
266.73	2.936
267.09	2.998
267.46	2.598
267.82	2.812
268.18	3.106
268.54	3.009
268.91	3.072
269.27	2.975
269.63	2.913
270.00	2.783
270.36	2.404
270.72	2.148
271.08	2.172
271.45	2.218
271.81	2.224
272.17	2.376
272.53	2.563
272.90	2.506
273.26	2.354
273.62	2.641
273.98	2.930
274.35	3.218
274.71	3.036
275.07	3.233
275.43	3.245
275.80	3.212
276.16	2.945
276.52	2.894
276.88	3.014
277.25	2.858
277.61	2.690
277.97	2.463
278.33	2.239
278.69	2.351
279.06	2.009
279.42	2.283
279.78	2.288
280.14	2.451
280.50	2.395
280.87	2.408
281.23	2.531
281.59	2.777
281.95	2.947
282.31	2.806
282.68	2.877
283.04	2.889
283.40	2.655
283.76	2.590
284.12	2.525
284.48	2.547
284.85	2.506
285.21	2.600
285.57	2.485
285.93	2.470
286.29	2.507
286.65	2.562
287.02	2.829
287.38	3.053
287.74	3.062
288.10	2.992
288.46	2.783
288.82	2.629
289.18	2.369
289.54	2.236
289.91	2.058
290.27	2.191
290.63	2.320
290.99	2.118
291.35	2.062
291.71	2.153
292.07	2.212
292.43	2.381
292.79	2.570
293.16	2.881
293.52	3.091
293.88	3.204
294.24	3.088
294.60	3.003
294.96	3.052
295.32	3.186
295.68	3.099
296.04	3.146
296.40	3.090
296.76	2.971
297.12	2.929
297.49	2.888
297.85	3.067
298.21	3.114
298.57	3.024
298.93	3.227
299.29	3.102
299.65	3.410
300.01	3.434
300.37	3.657
300.73	3.764
301.09	3.818
301.45	3.734
301.81	3.618
302.17	3.734
302.53	3.654
302.89	3.410
303.25	3.374
303.61	3.277
303.97	3.406
304.33	3.395
304.69	3.573
305.05	3.590
305.41	3.683
305.77	3.589
306.13	3.618
306.49	3.833
306.85	4.016
307.21	3.930
307.57	3.663
307.93	3.617
308.29	3.645
308.65	3.325
309.01	3.285
309.37	3.289
309.73	3.500
310.09	3.430
310.45	3.412
310.81	3.415
311.17	3.475
311.53	3.628
311.89	3.597
312.25	3.587
312.61	3.833
312.96	3.972
313.32	3.935
313.68	3.717
314.04	3.846
314.40	3.803
314.76	3.765
315.12	3.910
315.48	3.971
315.84	3.763
316.20	3.588
316.56	3.502
316.92	3.279
317.27	3.371
317.63	3.440
317.99	3.391
318.35	3.540
318.71	3.540
319.07	3.591
319.43	3.530
319.79	3.693
320.15	3.875
320.50	4.007
320.86	4.125
321.22	4.203
321.58	4.076
321.94	4.095
322.30	4.087
322.66	4.098
323.01	3.995
323.37	4.167
323.73	4.161
324.09	4.260
324.45	4.192
324.81	4.288
325.17	4.303
325.52	4.464
325.88	4.470
326.24	4.473
326.60	4.546
326.96	4.661
327.31	4.487
327.67	4.658
328.03	4.528
328.39	4.462
328.75	4.500
329.11	4.464
329.46	4.570
329.82	4.589
330.18	4.586
330.54	4.436
330.90	4.497
331.25	4.622
331.61	4.586
331.97	4.701
332.33	4.824
332.68	4.852
333.04	4.855
333.40	4.855
333.76	4.768
334.11	4.710
334.47	4.940
334.83	4.935
335.19	4.875
335.54	4.769
335.90	4.696
336.26	4.657
336.62	4.572
336.97	4.463
337.33	4.422
337.69	4.454
338.05	4.580
338.40	4.469
338.76	4.475
339.12	4.511
339.48	4.505
339.83	4.530
340.19	4.632
340.55	4.726
340.90	4.883
341.26	4.852
341.62	4.836
341.97	4.780
342.33	4.784
342.69	4.775
343.04	4.803
343.40	4.874
343.76	4.841
344.12	4.788
344.47	4.718
344.83	4.706
345.19	4.810
345.54	4.882
345.90	4.887
346.26	4.926
346.61	4.838
346.97	4.842
347.32	4.828
347.68	4.887
348.04	4.863
348.39	4.869
348.75	4.837
349.11	4.762
349.46	4.767
349.82	4.704
350.18	4.721
350.53	4.778
350.89	4.719
351.24	4.682
351.60	4.734
351.96	4.788
352.31	4.819
352.67	4.826
353.02	4.864
353.38	4.906
353.74	4.950
354.09	4.925
354.45	4.878
354.80	4.896
355.16	5.051
355.52	5.044
355.87	4.947
356.23	4.940
356.58	4.957
356.94	4.979
357.29	4.955
357.65	5.019
358.00	5.032
358.36	5.111
358.72	5.113
359.07	5.013
359.43	4.984
359.78	5.127
360.14	5.159
360.49	5.139
360.85	5.049
361.20	5.068
361.56	5.031
361.91	5.013
362.27	4.976
362.62	4.989
362.98	5.058
363.33	5.089
363.69	5.036
364.04	5.042
364.40	5.046
364.75	5.065
365.11	5.019
365.46	5.008
365.82	5.001
366.17	4.982
366.53	4.981
366.88	4.958
367.24	4.976
367.59	5.002
367.95	4.998
368.30	5.019
368.66	5.095
369.01	5.166
369.37	5.167
369.72	5.189
370.08	5.248
370.43	5.305
370.78	5.347
371.14	5.332
371.49	5.336
371.85	5.344
372.20	5.380
372.56	5.395
372.91	5.350
373.26	5.415
373.62	5.395
373.97	5.418
374.33	5.410
374.68	5.379
375.03	5.394
375.39	5.374
375.74	5.406
376.10	5.446
376.45	5.473
376.80	5.556
377.16	5.512
377.51	5.552
377.87	5.553
378.22	5.607
378.57	5.629
378.93	5.613
379.28	5.628
379.63	5.621
379.99	5.561
380.34	5.544
380.70	5.547
381.05	5.594
381.40	5.593
381.76	5.628
382.11	5.575
382.46	5.586
382.82	5.582
383.17	5.610
383.52	5.621
383.88	5.724
384.23	5.793
384.58	5.799
384.94	5.887
385.29	5.982
385.64	5.980
385.99	6.034
386.35	6.092
386.70	6.152
387.05	6.190
387.41	6.240
387.76	6.173
388.11	6.116
388.47	6.114
388.82	6.092
389.17	6.104
389.52	6.086
389.88	6.103
390.23	6.108
390.58	6.097
390.93	6.120
391.29	6.147
391.64	6.222
391.99	6.273
392.34	6.309
392.70	6.331
393.05	6.333
393.40	6.380
393.75	6.402
394.11	6.367
394.46	6.412
394.81	6.428
395.16	6.404
395.52	6.424
395.87	6.415
396.22	6.437
396.57	6.409
396.92	6.370
397.28	6.367
397.63	6.358
397.98	6.439
398.33	6.474
398.68	6.494
399.04	6.516
399.39	6.488
399.74	6.535
400.09	6.532
400.44	6.552
400.80	6.577
401.15	6.579
401.50	6.591
401.85	6.555
402.20	6.550
402.55	6.556
402.90	6.576
403.26	6.599
403.61	6.603
403.96	6.621
404.31	6.662
404.66	6.680
405.01	6.693
405.36	6.697
405.72	6.718
406.07	6.713
406.42	6.742
406.77	6.731
407.12	6.792
407.47	6.815
407.82	6.826
408.17	6.779
408.53	6.797
408.88	6.820
409.23	6.828
409.58	6.856
409.93	6.857
410.28	6.828
410.63	6.833
410.98	6.790
411.33	6.763
411.68	6.751
412.03	6.748
412.38	6.729
412.73	6.698
413.09	6.662
413.44	6.603
413.79	6.589
414.14	6.576
414.49	6.542
414.84	6.500
415.19	6.481
415.54	6.447
415.89	6.414
416.24	6.406
416.59	6.383
416.94	6.372
417.29	6.342
417.64	6.323
417.99	6.288
418.34	6.265
418.69	6.233
419.04	6.195
419.39	6.188
419.74	6.182
420.09	6.148
420.44	6.127
420.79	6.093
421.14	6.084
421.49	6.070
421.84	6.046
422.19	6.023
422.54	6.027
422.89	6.009
423.24	5.984
423.59	5.967
423.94	5.970
424.29	5.976
424.64	5.979
424.99	6.001
425.34	5.998
425.68	6.000
426.03	6.018
426.38	6.011
426.73	6.022
427.08	6.007
427.43	6.025
427.78	6.022
428.13	6.024
428.48	6.055
428.83	6.053
429.18	6.056
429.53	6.072
429.87	6.074
430.22	6.081
430.57	6.096
430.92	6.099
431.27	6.071
431.62	6.063
431.97	6.036
432.32	6.013
432.67	6.016
433.01	6.028
433.36	6.024
433.71	6.023
434.06	6.047
434.41	6.048
434.76	6.074
435.11	6.101
435.45	6.098
435.80	6.114
436.15	6.111
436.50	6.088
436.85	6.061
437.20	6.055
437.54	6.037
437.89	6.021
438.24	5.991
438.59	5.968
438.94	5.953
439.29	5.948
439.63	5.931
439.98	5.917
440.33	5.898
440.68	5.860
441.03	5.846
441.37	5.824
441.72	5.794
442.07	5.797
442.42	5.768
442.76	5.755
443.11	5.716
443.46	5.696
443.81	5.687
444.16	5.670
444.50	5.659
444.85	5.633
445.20	5.633
445.55	5.601
445.89	5.561
446.24	5.549
446.59	5.525
446.94	5.512
447.28	5.509
447.63	5.487
447.98	5.456
448.32	5.441
448.67	5.410
449.02	5.385
449.37	5.380
449.71	5.388
450.06	5.389
450.41	5.365
450.75	5.360
451.10	5.346
451.45	5.337
451.79	5.355
452.14	5.377
452.49	5.383
452.84	5.373
453.18	5.371
453.53	5.361
453.88	5.348
454.22	5.346
454.57	5.351
454.92	5.345
455.26	5.347
455.61	5.352
455.95	5.353
456.30	5.371
456.65	5.382
456.99	5.406
457.34	5.411
457.69	5.429
458.03	5.441
458.38	5.472
458.73	5.504
459.07	5.526
459.42	5.540
459.76	5.566
460.11	5.594
460.46	5.609
460.80	5.616
461.15	5.646
461.49	5.664
461.84	5.717
462.19	5.739
462.53	5.755
462.88	5.786
463.22	5.822
463.57	5.851
463.91	5.885
464.26	5.955
464.61	6.004
464.95	6.072
465.30	6.119
465.64	6.161
465.99	6.182
466.33	6.214
466.68	6.232
467.02	6.253
467.37	6.284
467.71	6.296
468.06	6.280
468.41	6.273
468.75	6.261
469.10	6.268
469.44	6.272
469.79	6.275
470.13	6.271
470.48	6.289
470.82	6.314
471.17	6.322
471.51	6.328
471.86	6.330
472.20	6.318
472.55	6.320
472.89	6.304
473.23	6.273
473.58	6.254
473.92	6.245
474.27	6.224
474.61	6.188
474.96	6.142
475.30	6.125
475.65	6.116
475.99	6.119
476.34	6.086
476.68	6.056
477.02	6.050
477.37	6.045
477.71	6.036
478.06	6.024
478.40	6.016
478.75	6.024
479.09	6.037
479.43	6.069
479.78	6.111
480.12	6.168
480.47	6.233
480.81	6.289
481.15	6.347
481.50	6.410
481.84	6.498
482.19	6.585
482.53	6.647
482.87	6.672
483.22	6.644
483.56	6.576
483.90	6.492
484.25	6.441
484.59	6.417
484.94	6.386
485.28	6.346
485.62	6.280
485.97	6.212
486.31	6.174
486.65	6.177
487.00	6.232
487.34	6.337
487.68	6.451
488.03	6.530
488.37	6.570
488.71	6.616
489.06	6.665
489.40	6.715
489.74	6.769
490.09	6.815
490.43	6.864
490.77	6.907
491.11	6.963
491.46	7.029
491.80	7.095
492.14	7.165
492.49	7.244
492.83	7.317
493.17	7.412
493.51	7.511
493.86	7.645
494.20	7.775
494.54	7.917
494.88	8.061
495.23	8.200
495.57	8.310
495.91	8.456
496.25	8.602
496.60	8.762
496.94	8.934
497.28	9.105
497.62	9.263
497.97	9.438
498.31	9.645
498.65	9.835
498.99	10.070
499.33	10.321
499.68	10.552
500.02	10.801
500.36	11.061
500.70	11.308
501.04	11.600
501.39	11.886
501.73	12.160
502.07	12.418
502.41	12.736
502.75	13.018
503.09	13.340
503.44	13.657
503.78	13.975
504.12	14.323
504.46	14.666
504.80	15.006
505.14	15.348
505.49	15.708
505.83	16.065
506.17	16.384
506.51	16.724
506.85	17.036
507.19	17.374
507.53	17.725
507.87	18.073
508.22	18.424
508.56	18.780
508.90	19.142
509.24	19.514
509.58	19.877
509.92	20.239
510.26	20.600
510.60	21.006
510.94	21.393
511.28	21.788
511.63	22.174
511.97	22.580
512.31	22.972
512.65	23.354
512.99	23.757
513.33	24.181
513.67	24.637
514.01	25.096
514.35	25.522
514.69	25.938
515.03	26.317
515.37	26.664
515.71	26.987
516.05	27.309
516.39	27.623
516.73	27.924
517.07	28.241
517.41	28.514
517.75	28.809
518.09	29.069
518.43	29.351
518.77	29.640
519.11	29.936
519.45	30.240
519.79	30.553
520.13	30.905
520.47	31.283
520.81	31.627
521.15	31.962
521.49	32.275
521.83	32.585
522.17	32.853
522.51	33.104
522.85	33.418
523.19	33.743
523.53	34.079
523.87	34.477
524.21	34.836
524.55	35.210
524.89	35.559
525.23	35.874
525.57	36.200
525.91	36.493
526.25	36.800
526.58	37.055
526.92	37.272
527.26	37.471
527.60	37.618
527.94	37.756
528.28	37.861
528.62	37.953
528.96	38.065
529.30	38.152
529.64	38.248
529.97	38.317
530.31	38.382
530.65	38.478
530.99	38.600
531.33	38.707
531.67	38.814
532.01	38.932
532.35	39.086
532.68	39.187
533.02	39.294
533.36	39.375
533.70	39.486
534.04	39.604
534.38	39.720
534.71	39.827
535.05	39.916
535.39	40.028
535.73	40.170
536.07	40.221
536.41	40.345
536.74	40.461
537.08	40.608
537.42	40.748
537.76	40.872
538.10	41.042
538.43	41.181
538.77	41.354
539.11	41.469
539.45	41.561
539.79	41.667
540.12	41.751
540.46	41.830
540.80	41.881
541.14	41.922
541.47	41.981
541.81	41.993
542.15	42.027
542.49	42.047
542.82	42.081
543.16	42.101
543.50	42.187
543.84	42.227
544.17	42.278
544.51	42.360
544.85	42.399
545.18	42.450
545.52	42.508
545.86	42.577
546.20	42.637
546.53	42.705
546.87	42.792
547.21	42.829
547.54	42.918
547.88	43.022
548.22	43.132
548.55	43.242
548.89	43.270
549.23	43.358
549.56	43.394
549.90	43.445
550.24	43.458
550.57	43.457
550.91	43.527
551.25	43.561
551.58	43.553
551.92	43.517
552.26	43.579
552.59	43.686
552.93	43.739
553.27	43.768
553.60	43.770
553.94	43.843
554.27	43.918
554.61	43.942
554.95	44.014
555.28	44.028
555.62	44.068
555.95	44.080
556.29	44.087
556.63	44.086
556.96	44.115
557.30	44.215
557.63	44.221
557.97	44.232
558.31	44.213
558.64	44.191
558.98	44.232
559.31	44.274
559.65	44.232
559.98	44.230
560.32	44.239
560.65	44.243
560.99	44.176
561.33	44.165
561.66	44.134
562.00	44.131
562.33	44.132
562.67	44.105
563.00	44.069
563.34	44.086
563.67	44.057
564.01	44.017
564.34	44.013
564.68	44.040
565.01	44.026
565.35	44.048
565.68	44.053
566.02	44.055
566.35	44.054
566.69	44.041
567.02	44.009
567.36	44.058
567.69	44.035
568.03	43.998
568.36	43.959
568.69	43.958
569.03	43.937
569.36	43.946
569.70	43.874
570.03	43.875
570.37	43.845
570.70	43.858
571.04	43.797
571.37	43.808
571.70	43.821
572.04	43.805
572.37	43.821
572.71	43.826
573.04	43.781
573.37	43.804
573.71	43.800
574.04	43.811
574.38	43.838
574.71	43.859
575.04	43.913
575.38	43.928
575.71	43.981
576.05	44.002
576.38	44.028
576.71	44.072
577.05	44.149
577.38	44.133
577.71	44.182
578.05	44.174
578.38	44.170
578.71	44.136
579.05	44.107
579.38	44.061
579.71	44.045
580.05	44.045
580.38	43.995
580.71	43.918
581.05	43.917
581.38	43.875
581.71	43.844
582.05	43.832
582.38	43.795
582.71	43.793
583.04	43.776
583.38	43.759
583.71	43.662
584.04	43.654
584.38	43.657
584.71	43.636
585.04	43.566
585.37	43.515
585.71	43.463
586.04	43.395
586.37	43.360
586.70	43.332
587.04	43.240
587.37	43.212
587.70	43.132
588.03	42.996
588.37	42.910
588.70	42.868
589.03	42.821
589.36	42.769
589.69	42.696
590.03	42.619
590.36	42.578
590.69	42.521
591.02	42.447
591.35	42.410
591.69	42.314
592.02	42.253
592.35	42.195
592.68	42.080
593.01	41.963
593.35	41.924
593.68	41.844
594.01	41.723
594.34	41.638
594.67	41.555
595.00	41.466
595.34	41.451
595.67	41.421
596.00	41.362
596.33	41.353
596.66	41.338
596.99	41.284
597.32	41.258
597.65	41.169
597.99	41.115
598.32	41.075
598.65	41.026
598.98	40.943
599.31	40.786
599.64	40.662
599.97	40.576
600.30	40.462
600.63	40.365
600.96	40.251
601.30	40.171
601.63	40.094
601.96	40.000
602.29	39.947
602.62	39.902
602.95	39.872
603.28	39.838
603.61	39.729
603.94	39.684
604.27	39.640
604.60	39.564
604.93	39.570
605.26	39.473
605.59	39.434
605.92	39.376
606.25	39.282
606.58	39.239
606.91	39.148
607.24	39.103
607.57	39.024
607.90	38.973
608.23	38.939
608.56	38.818
608.89	38.808
609.22	38.704
609.55	38.659
609.88	38.659
610.21	38.612
610.54	38.560
610.87	38.490
611.20	38.475
611.53	38.375
611.86	38.291
612.19	38.275
612.52	38.217
612.85	38.246
613.18	38.134
613.51	37.997
613.84	37.908
614.17	37.901
614.49	37.818
614.82	37.750
615.15	37.682
615.48	37.631
615.81	37.566
616.14	37.493
616.47	37.376
616.80	37.342
617.13	37.299
617.46	37.238
617.78	37.132
618.11	37.098
618.44	37.022
618.77	36.944
619.10	36.868
619.43	36.800
619.76	36.661
620.09	36.601
620.41	36.485
620.74	36.417
621.07	36.317
621.40	36.287
621.73	36.194
622.06	36.122
622.38	36.037
622.71	35.892
623.04	35.709
623.37	35.706
623.70	35.622
624.02	35.500
624.35	35.428
624.68	35.349
625.01	35.237
625.34	35.180
625.66	35.101
625.99	35.037
626.32	35.057
626.65	35.069
626.98	35.015
627.30	34.966
627.63	34.991
627.96	34.928
628.29	34.896
628.61	34.835
628.94	34.725
629.27	34.612
629.60	34.519
629.92	34.465
630.25	34.394
630.58	34.267
630.91	34.169
631.23	34.056
631.56	33.956
631.89	33.883
632.21	33.802
632.54	33.771
632.87	33.765
633.19	33.753
633.52	33.641
633.85	33.560
634.18	33.515
634.50	33.449
634.83	33.397
635.16	33.356
635.48	33.276
635.81	33.202
636.14	33.109
636.46	33.012
636.79	32.923
637.11	32.837
637.44	32.767
637.77	32.722
638.09	32.682
638.42	32.623
638.75	32.556
639.07	32.517
639.40	32.506
639.73	32.447
640.05	32.371
640.38	32.355
640.70	32.318
641.03	32.305
641.36	32.239
641.68	32.196
642.01	32.119
642.33	32.084
642.66	31.980
642.98	31.902
643.31	31.851
643.64	31.821
643.96	31.708
644.29	31.700
644.61	31.621
644.94	31.576
645.26	31.561
645.59	31.541
645.91	31.505
646.24	31.495
646.56	31.452
646.89	31.453
647.22	31.409
647.54	31.377
647.87	31.284
648.19	31.214
648.52	31.124
648.84	30.990
649.17	30.949
649.49	30.890
649.82	30.815
650.14	30.750
650.47	30.640
650.79	30.603
651.11	30.525
651.44	30.475
651.76	30.471
652.09	30.490
652.41	30.410
652.74	30.381
653.06	30.251
653.39	30.134
653.71	30.093
654.04	30.096
654.36	30.001
654.68	29.960
655.01	29.899
655.33	29.841
655.66	29.709
655.98	29.683
656.30	29.573
656.63	29.524
656.95	29.548
657.28	29.440
657.60	29.330
657.92	29.284
658.25	29.238
658.57	29.150
658.90	29.089
659.22	29.077
659.54	28.970
659.87	28.896
660.19	28.883
660.51	28.820
660.84	28.728
661.16	28.721
661.48	28.649
661.81	28.622
662.13	28.625
662.45	28.565
662.78	28.561
663.10	28.565
663.42	28.514
663.75	28.496
664.07	28.394
664.39	28.471
664.72	28.396
665.04	28.425
665.36	28.310
665.69	28.235
666.01	28.158
666.33	28.009
666.65	27.965
666.98	27.929
667.30	27.878
667.62	27.874
667.94	27.752
668.27	27.703
668.59	27.570
668.91	27.531
669.23	27.499
669.56	27.483
669.88	27.450
670.20	27.383
670.52	27.367
670.85	27.310
671.17	27.233
671.49	27.217
671.81	27.140
672.13	27.119
672.46	27.110
672.78	27.007
673.10	26.914
673.42	26.913
673.74	26.865
674.07	26.811
674.39	26.760
674.71	26.739
675.03	26.705
675.35	26.684
675.67	26.648
676.00	26.603
676.32	26.590
676.64	26.575
676.96	26.564
677.28	26.646
677.60	26.586
677.92	26.544
678.25	26.487
678.57	26.432
678.89	26.420
679.21	26.358
679.53	26.291
679.85	26.306
680.17	26.291
680.49	26.211
680.81	26.099
681.13	26.119
681.46	25.974
681.78	25.960
682.10	26.013
682.42	25.996
682.74	26.001
683.06	25.995
683.38	25.941
683.70	25.946
684.02	25.936
684.34	25.898
684.66	25.846
684.98	25.974
685.30	26.015
685.62	26.002
685.94	25.997
686.26	25.977
686.58	25.931
686.90	25.889
687.22	25.896
687.54	25.868
687.86	25.885
688.18	25.896
688.50	25.874
688.82	25.809
689.14	25.637
689.46	25.570
689.78	25.511
690.10	25.574
690.42	25.513
690.74	25.343
691.06	25.255
691.38	25.149
691.70	25.040
692.02	24.908
692.34	24.809
692.66	24.848
692.98	24.802
693.30	24.768
693.62	24.611
693.94	24.559
694.26	24.525
694.57	24.478
694.89	24.439
695.21	24.381
695.53	24.409
695.85	24.386
696.17	24.394
696.49	24.333
696.81	24.315
697.13	24.318
697.44	24.335
697.76	24.357
698.08	24.371
698.40	24.341
698.72	24.292
699.04	24.252
699.36	24.185
699.67	24.053
699.99	23.972
700.31	23.917
700.63	23.812
700.95	23.692
701.27	23.594
701.58	23.467
701.90	23.370
702.22	23.305
702.54	23.257
702.86	23.180
703.17	23.108
703.49	23.016
703.81	22.977
704.13	22.960
704.45	22.952
704.76	22.857
705.08	22.837
705.40	22.817
705.72	22.822
706.03	22.812
706.35	22.869
706.67	22.857
706.99	22.914
707.30	22.824
707.62	22.811
707.94	22.856
708.26	22.835
708.57	22.785
708.89	22.854
709.21	22.892
709.53	22.828
709.84	22.841
710.16	22.848
710.48	22.806
710.79	22.782
711.11	22.799
711.43	22.749
711.74	22.794
712.06	22.888
712.38	22.908
712.69	22.876
713.01	22.807
713.33	22.715
713.64	22.776
713.96	22.882
714.28	22.984
714.59	23.064
714.91	23.065
715.23	23.121
715.54	23.031
715.86	22.960
716.17	22.970
716.49	22.997
716.81	23.006
717.12	22.944
717.44	22.789
717.76	22.731
718.07	22.508
718.39	22.438
718.70	22.299
719.02	22.342
719.33	22.279
719.65	22.178
719.97	22.140
720.28	22.123
720.60	22.082
720.91	22.123
721.23	21.973
721.54	21.995
721.86	22.053
722.17	22.175
722.49	22.112
722.81	22.157
723.12	22.197
723.44	22.242
723.75	22.266
724.07	22.196
724.38	22.286
724.70	22.401
725.01	22.436
725.33	22.431
725.64	22.303
725.96	22.298
726.27	22.249
726.59	22.234
726.90	22.226
727.22	22.234
727.53	22.319
727.84	22.175
728.16	22.112
728.47	22.251
728.79	22.118
729.10	22.041
729.42	21.983
729.73	21.923
730.05	21.816
730.36	21.733
730.67	21.694
730.99	21.602
731.30	21.517
731.62	21.434
731.93	21.275
732.24	21.144
732.56	21.108
732.87	20.965
733.19	21.013
733.50	21.068
733.81	20.928
734.13	20.694
734.44	20.693
734.76	20.713
735.07	20.541
735.38	20.449
735.70	20.416
736.01	20.498
736.32	20.567
736.64	20.269
736.95	19.983
737.26	19.955
737.58	19.934
737.89	19.859
738.20	19.758
738.52	19.752
738.83	19.631
739.14	19.607
739.45	19.400
739.77	19.190
740.08	19.155
740.39	19.126
740.71	19.065
741.02	18.963
741.33	18.714
741.64	18.574
741.96	18.475
742.27	18.412
742.58	18.453
742.90	18.229
743.21	18.211
743.52	18.326
743.83	18.357
744.14	18.189
744.46	18.115
744.77	18.121
745.08	18.167
745.39	18.374
745.71	18.285
746.02	18.095
746.33	18.264
746.64	18.376
746.95	18.200
747.27	18.037
747.58	18.160
747.89	18.279
748.20	18.143
748.51	18.151
748.82	17.986
749.14	18.028
749.45	18.143
749.76	18.153
750.07	18.200
750.38	18.198
750.69	18.462
751.01	18.527
751.32	18.372
751.63	18.334
751.94	18.284
752.25	18.154
752.56	18.001
752.87	17.902
753.18	17.757
753.49	17.703
753.81	17.777
754.12	17.639
754.43	17.553
754.74	17.703
755.05	17.902
755.36	17.972
755.67	18.291
755.98	18.635
756.29	18.925
756.60	19.063
756.91	19.285
757.22	19.543
757.53	19.737
757.84	19.971
758.15	20.182
758.46	20.381
758.77	20.612
759.09	20.697
759.40	20.766
759.71	20.752
760.02	21.000
760.33	20.927
760.64	20.943
760.95	21.005
761.26	21.062
761.57	21.077
761.88	21.075
762.18	20.955
762.49	21.033
762.80	21.036
763.11	21.033
763.42	20.876
763.73	20.754
764.04	20.515
764.35	20.289
764.66	19.961
764.97	19.549
765.28	19.296
765.59	19.004
765.90	18.466
766.21	18.044
766.52	17.606
766.83	17.173
767.14	16.974
767.44	16.659
767.75	16.517
768.06	16.230
768.37	16.267
768.68	15.988
768.99	16.053
769.30	15.904
769.61	15.589
769.91	15.602
770.22	15.668
770.53	15.392
770.84	15.456
771.15	15.329
771.46	15.579
771.77	15.457
772.07	15.488
772.38	15.321
772.69	15.133
773.00	15.099
773.31	14.987
773.61	14.800
773.92	15.049
774.23	15.058
774.54	14.869
774.85	14.705
775.15	14.792
775.46	14.601
775.77	14.458
776.08	14.611
776.39	14.660
776.69	14.515
777.00	14.662
777.31	14.579
777.62	14.411
777.92	14.676
778.23	14.537
778.54	14.357
778.85	14.518
779.15	14.683
779.46	14.869
779.77	14.790
780.07	14.849
780.38	14.917
780.69	14.961
781.00	15.080
781.30	14.952
781.61	15.054
781.92	15.131
782.22	15.029
782.53	15.093
782.84	14.835
783.14	14.915
783.45	14.878
783.76	15.030
784.06	14.942
784.37	15.225
784.68	15.322
784.98	15.376
785.29	15.613
785.60	15.814
785.90	15.949
786.21	16.086
786.51	16.351
786.82	16.402
787.13	16.356
787.43	16.376
787.74	16.230
788.04	16.159
788.35	16.249
788.66	15.995
788.96	15.802
789.27	15.563
789.57	15.683
789.88	15.651
790.19	15.711
790.49	15.529
790.80	15.343
791.10	15.339
791.41	15.348
791.71	15.187
792.02	15.222
792.32	15.134
792.63	14.998
792.93	14.937
793.24	14.842
793.54	15.104
793.85	15.198
794.15	15.310
794.46	15.427
794.76	15.332
795.07	15.261
795.37	15.361
795.68	15.749
795.98	15.950
796.29	16.075
796.59	16.036
796.90	15.706
797.20	15.877
797.51	15.893
797.81	15.831
798.12	16.030
798.42	16.502
798.72	16.542
799.03	16.335
799.33	16.408
799.64	16.304
799.94	16.317
800.25	16.418
800.55	16.153
800.85	16.281
801.16	16.296
801.46	16.288
801.77	16.140
802.07	16.089
802.37	15.984
802.68	16.123
802.98	16.149
803.28	16.104
803.59	16.318
803.89	16.312
804.20	16.344
804.50	16.293
804.80	16.301
805.11	15.927
805.41	15.829
805.71	16.064
806.02	15.473
806.32	15.147
806.62	15.130
806.93	14.968
807.23	15.227
807.53	15.257
807.83	15.518
808.14	15.682
808.44	16.177
808.74	16.383
809.05	16.314
809.35	16.993
809.65	17.569
809.95	17.731
810.26	18.102
810.56	17.946
810.86	18.148
811.16	17.749
811.47	17.887
811.77	17.807
812.07	17.794
812.37	17.986
812.68	18.090
812.98	17.979
813.28	17.910
813.58	17.846
813.88	17.473
814.19	17.717
814.49	18.379
814.79	18.508
815.09	18.357
815.39	18.420
815.70	18.796
816.00	18.604
816.30	18.619
816.60	18.693
816.90	18.699
817.20	19.608
817.50	19.525
817.81	19.411
818.11	19.389
818.41	19.611
818.71	19.763
819.01	19.848
819.31	20.017
819.61	20.177
819.92	20.334
820.22	20.417
820.52	20.327
820.82	20.371
821.12	20.397
821.42	20.418
821.72	20.510
822.02	20.573
822.32	20.583
822.62	20.589
822.92	20.545
823.22	20.472
823.52	20.449
823.83	20.510
824.13	20.531
824.43	20.506
824.73	20.533
825.03	20.453
825.33	20.415
825.63	20.295
825.93	20.221
826.23	20.096
826.53	20.145
826.83	20.015
827.13	19.797
827.43	19.604
827.73	19.528
828.03	19.452
828.33	19.492
828.63	19.352
828.93	19.547
829.23	19.478
829.53	19.523
829.83	19.393
830.13	19.553
830.42	19.690
830.72	19.849
831.02	19.896
831.32	19.915
831.62	19.509
831.92	19.467
832.22	19.308
832.52	19.232
832.82	19.361
833.12	19.221
833.42	19.221
833.72	19.261
834.01	19.034
834.31	19.028
834.61	18.810
834.91	18.951
835.21	18.779
835.51	18.427
835.81	17.867
836.11	17.633
836.40	17.734
836.70	17.198
837.00	16.855
837.30	16.995
837.60	17.173
837.90	17.431
838.19	17.579
838.49	17.677
838.79	17.858
839.09	18.860
839.39	18.876
839.68	18.305
839.98	18.770
840.28	18.685
840.58	18.585
840.88	18.133
841.17	17.886
841.47	17.753
841.77	17.191
842.07	17.317
842.36	16.652
842.66	15.968
842.96	15.756
843.26	14.859
843.55	14.226
843.85	14.293
844.15	14.202
844.45	13.484
844.74	12.595
845.04	14.066
845.34	13.093
845.63	13.941
845.93	14.707
846.23	17.143
846.53	17.648
846.82	17.202
847.12	16.306
847.42	15.369
847.71	15.658
848.01	15.313
848.31	14.677
848.60	15.528
848.90	15.094
849.19	15.336
849.49	12.885
849.79	12.143
850.08	13.191
850.38	13.047
850.68	13.279
850.97	13.963
851.27	13.572
851.56	14.295
851.86	13.078
852.16	12.971
852.45	13.066
852.75	14.509
853.04	13.885
853.34	13.825
853.64	13.642
853.93	14.167
854.23	14.183
854.52	15.065
854.82	12.489
855.11	12.648
855.41	11.135
855.70	8.862
856.00	7.320
856.30	8.227
856.59	7.877
856.89	8.466
857.18	8.086
857.48	7.629
857.77	8.429
858.07	10.121
858.36	11.006
858.66	13.292
858.95	14.957
859.25	16.414
859.54	17.115
859.84	17.573
860.13	17.915
860.42	19.544
860.72	19.827
861.01	18.485
861.31	17.873
861.60	18.385
861.90	17.835
862.19	17.021
862.49	16.619
862.78	17.089
863.07	16.226
863.37	16.313
863.66	16.545
863.96	16.339
864.25	17.276
864.54	18.409
864.84	17.985
865.13	18.026
865.43	18.434
865.72	21.076
866.01	19.496
866.31	16.018
866.60	16.093
866.89	10.217
>>>>>End Spectral Data<<<<<
