OOIBase32 Version 2.0.0.6 Data File
++++++++++++++++++++++++++++++++++++
Date: 01-23-2012, 23:23:04
User: Valued Ocean Optics Customer
Spectrometer Serial Number: USB2E2917
Spectrometer Channel: Master
Integration Time (msec): 5
Spectra Averaged: 10
Boxcar Smoothing: 5
Correct for Electrical Dark: Enabled
Time Normalized: Disabled
Dual-beam Reference: Disabled
Reference Channel: Master
Temperature: Not acquired
Spectrometer Type: S2000
ADC Type: USB2000
Number of Pixels in File: 2048
Graph Title: 
>>>>>Begin Spectral Data<<<<<
180.30	0.000
180.67	0.000
181.03	26.333
181.40	271.431
181.77	11894.266
182.14	55.091
182.51	-835.093
182.88	85.863
183.25	57.423
183.62	94.801
183.99	165.920
184.36	17.172
184.73	336.652
185.10	57.809
185.46	6.865
185.83	90.602
186.20	-651.983
186.57	-89.914
186.94	-45.499
187.31	-6.290
187.68	16.844
188.05	117.544
188.42	122.971
188.78	117.092
189.15	47.665
189.52	14.425
189.89	17.208
190.26	41.205
190.63	36.862
191.00	35.474
191.37	36.958
191.73	50.519
192.10	41.576
192.47	36.434
192.84	31.560
193.21	30.902
193.58	31.114
193.94	41.392
194.31	37.683
194.68	35.172
195.05	32.172
195.42	40.786
195.79	21.729
196.15	17.686
196.52	12.509
196.89	9.602
197.26	7.405
197.63	8.012
198.00	2.821
198.36	-15.515
198.73	-32.064
199.10	-37.532
199.47	-46.347
199.84	-48.294
200.20	-29.809
200.57	-16.649
200.94	-9.817
201.31	-15.902
201.68	-20.852
202.04	-25.666
202.41	-19.059
202.78	-25.086
203.15	-2.429
203.51	5.443
203.88	5.626
204.25	8.937
204.62	3.984
204.98	-1.946
205.35	-8.736
205.72	-15.874
206.09	-10.316
206.46	-65.608
206.82	-51.781
207.19	-60.674
207.56	-120.747
207.92	-112.129
208.29	-117.834
208.66	-68.515
209.03	-70.142
209.39	-37.080
209.76	-33.098
210.13	-72.290
210.50	-24.159
210.86	-18.823
211.23	-36.831
211.60	-7.766
211.96	-3.913
212.33	-2.150
212.70	-23.471
213.07	-47.739
213.43	-94.844
213.80	-82.388
214.17	-42.331
214.53	-35.300
214.90	-30.912
215.27	-22.019
215.63	-24.229
216.00	-20.015
216.37	-20.343
216.74	-30.513
217.10	-12.973
217.47	-5.200
217.84	-7.186
218.20	-16.803
218.57	-8.837
218.94	-0.693
219.30	-3.380
219.67	-10.036
220.04	-8.577
220.40	-8.126
220.77	-6.091
221.13	-2.099
221.50	-3.235
221.87	-4.231
222.23	-6.802
222.60	-17.355
222.97	-25.404
223.33	-26.016
223.70	-19.292
224.07	-23.422
224.43	-21.148
224.80	-13.516
225.16	-13.889
225.53	-12.045
225.90	-11.061
226.26	-5.714
226.63	-3.625
226.99	-1.409
227.36	1.390
227.73	2.784
228.09	3.679
228.46	4.408
228.82	4.838
229.19	6.025
229.56	6.412
229.92	7.821
230.29	6.897
230.65	7.054
231.02	5.423
231.38	3.933
231.75	3.220
232.12	1.849
232.48	-0.660
232.85	-2.240
233.21	-2.791
233.58	-4.705
233.94	-5.828
234.31	-5.714
234.68	-6.588
235.04	-6.412
235.41	-5.440
235.77	-5.369
236.14	-2.775
236.50	-0.430
236.87	-0.303
237.23	0.656
237.60	0.096
237.96	1.208
238.33	1.212
238.69	1.513
239.06	1.677
239.42	1.550
239.79	1.328
240.15	1.036
240.52	1.025
240.88	2.137
241.25	2.151
241.61	3.370
241.98	3.004
242.34	2.967
242.71	3.071
243.07	3.537
243.44	3.253
243.80	3.181
244.17	3.038
244.53	2.876
244.90	2.653
245.26	2.486
245.63	2.053
245.99	2.017
246.36	1.858
246.72	2.074
247.09	1.630
247.45	1.950
247.81	2.308
248.18	2.437
248.54	2.661
248.91	2.149
249.27	2.105
249.64	2.517
250.00	2.700
250.36	2.784
250.73	2.334
251.09	2.711
251.46	2.265
251.82	1.741
252.19	1.610
252.55	1.356
252.91	1.727
253.28	1.607
253.64	1.017
254.01	1.089
254.37	1.659
254.73	2.027
255.10	2.266
255.46	2.897
255.83	2.954
256.19	2.967
256.55	2.909
256.92	3.068
257.28	3.177
257.65	3.418
258.01	3.186
258.37	3.068
258.74	2.962
259.10	2.832
259.46	2.732
259.83	2.821
260.19	2.861
260.55	2.903
260.92	2.780
261.28	2.680
261.64	2.610
262.01	2.834
262.37	2.853
262.73	3.071
263.10	3.300
263.46	3.092
263.82	2.740
264.19	2.838
264.55	2.523
264.91	2.267
265.28	2.300
265.64	2.222
266.00	2.331
266.37	2.379
266.73	2.223
267.09	2.031
267.46	2.031
267.82	2.191
268.18	2.100
268.54	2.393
268.91	2.582
269.27	2.650
269.63	2.981
270.00	2.698
270.36	2.617
270.72	2.782
271.08	2.735
271.45	2.817
271.81	2.776
272.17	2.794
272.53	2.637
272.90	2.620
273.26	2.720
273.62	2.420
273.98	2.537
274.35	2.398
274.71	2.286
275.07	2.353
275.43	2.282
275.80	2.319
276.16	2.268
276.52	2.300
276.88	2.322
277.25	1.986
277.61	1.842
277.97	1.683
278.33	1.797
278.69	1.375
279.06	1.391
279.42	1.349
279.78	1.484
280.14	1.518
280.50	1.654
280.87	1.652
281.23	1.940
281.59	2.004
281.95	2.160
282.31	2.247
282.68	2.427
283.04	2.430
283.40	2.532
283.76	2.597
284.12	2.707
284.48	2.725
284.85	2.808
285.21	2.817
285.57	2.824
285.93	2.760
286.29	2.672
286.65	2.796
287.02	3.073
287.38	3.042
287.74	2.898
288.10	2.812
288.46	2.795
288.82	2.594
289.18	2.438
289.54	2.553
289.91	2.689
290.27	2.741
290.63	2.793
290.99	2.616
291.35	2.624
291.71	2.812
292.07	2.825
292.43	2.807
292.79	2.921
293.16	2.986
293.52	2.971
293.88	3.178
294.24	3.165
294.60	2.965
294.96	2.941
295.32	2.908
295.68	2.768
296.04	2.846
296.40	2.810
296.76	2.884
297.12	2.772
297.49	2.611
297.85	2.333
298.21	2.309
298.57	2.293
298.93	2.256
299.29	2.194
299.65	2.264
300.01	2.134
300.37	2.211
300.73	2.246
301.09	2.347
301.45	2.498
301.81	2.509
302.17	2.689
302.53	2.691
302.89	2.656
303.25	2.859
303.61	2.860
303.97	2.784
304.33	2.729
304.69	2.697
305.05	2.746
305.41	2.814
305.77	2.928
306.13	2.756
306.49	2.776
306.85	2.933
307.21	2.958
307.57	3.048
307.93	3.142
308.29	3.212
308.65	3.156
309.01	3.038
309.37	3.031
309.73	2.942
310.09	3.041
310.45	3.170
310.81	3.104
311.17	3.007
311.53	2.934
311.89	2.997
312.25	3.007
312.61	3.144
312.96	3.292
313.32	3.310
313.68	3.336
314.04	3.397
314.40	3.387
314.76	3.364
315.12	3.354
315.48	3.342
315.84	3.269
316.20	3.226
316.56	3.145
316.92	3.055
317.27	2.998
317.63	3.093
317.99	2.886
318.35	2.899
318.71	2.856
319.07	2.961
319.43	3.025
319.79	3.089
320.15	3.047
320.50	3.057
320.86	3.058
321.22	3.033
321.58	2.915
321.94	2.959
322.30	2.881
322.66	2.901
323.01	2.797
323.37	2.716
323.73	2.591
324.09	2.545
324.45	2.524
324.81	2.465
325.17	2.546
325.52	2.571
325.88	2.547
326.24	2.631
326.60	2.630
326.96	2.611
327.31	2.619
327.67	2.668
328.03	2.746
328.39	2.770
328.75	2.907
329.11	2.930
329.46	3.002
329.82	3.138
330.18	3.077
330.54	3.127
330.90	3.130
331.25	3.145
331.61	3.201
331.97	3.181
332.33	3.213
332.68	3.186
333.04	3.089
333.40	2.962
333.76	2.868
334.11	2.912
334.47	2.909
334.83	2.885
335.19	2.769
335.54	2.784
335.90	2.813
336.26	2.787
336.62	2.701
336.97	2.706
337.33	2.698
337.69	2.722
338.05	2.623
338.40	2.559
338.76	2.633
339.12	2.866
339.48	2.783
339.83	2.816
340.19	2.762
340.55	2.882
340.90	2.843
341.26	2.805
341.62	2.743
341.97	2.818
342.33	2.883
342.69	2.868
343.04	2.735
343.40	2.677
343.76	2.595
344.12	2.638
344.47	2.630
344.83	2.699
345.19	2.842
345.54	2.922
345.90	2.891
346.26	2.866
346.61	2.881
346.97	2.925
347.32	3.062
347.68	3.032
348.04	2.998
348.39	2.899
348.75	2.885
349.11	2.799
349.46	2.794
349.82	2.868
350.18	2.869
350.53	2.931
350.89	2.890
351.24	2.852
351.60	2.888
351.96	2.943
352.31	2.979
352.67	3.006
353.02	3.083
353.38	3.062
353.74	2.993
354.09	2.964
354.45	2.927
354.80	2.992
355.16	3.019
355.52	3.028
355.87	2.954
356.23	2.994
356.58	3.008
356.94	3.014
357.29	3.056
357.65	3.086
358.00	3.115
358.36	3.096
358.72	3.083
359.07	3.072
359.43	3.100
359.78	3.174
360.14	3.192
360.49	3.160
360.85	3.181
361.20	3.127
361.56	3.177
361.91	3.192
362.27	3.216
362.62	3.214
362.98	3.258
363.33	3.247
363.69	3.246
364.04	3.247
364.40	3.266
364.75	3.241
365.11	3.301
365.46	3.217
365.82	3.233
366.17	3.184
366.53	3.172
366.88	3.142
367.24	3.188
367.59	3.150
367.95	3.152
368.30	3.126
368.66	3.172
369.01	3.149
369.37	3.198
369.72	3.244
370.08	3.339
370.43	3.338
370.78	3.364
371.14	3.312
371.49	3.360
371.85	3.361
372.20	3.400
372.56	3.364
372.91	3.395
373.26	3.390
373.62	3.305
373.97	3.303
374.33	3.316
374.68	3.310
375.03	3.374
375.39	3.334
375.74	3.338
376.10	3.305
376.45	3.343
376.80	3.343
377.16	3.319
377.51	3.372
377.87	3.372
378.22	3.347
378.57	3.323
378.93	3.325
379.28	3.379
379.63	3.366
379.99	3.409
380.34	3.417
380.70	3.408
381.05	3.451
381.40	3.429
381.76	3.440
382.11	3.480
382.46	3.545
382.82	3.550
383.17	3.544
383.52	3.548
383.88	3.553
384.23	3.543
384.58	3.597
384.94	3.570
385.29	3.597
385.64	3.580
385.99	3.588
386.35	3.571
386.70	3.570
387.05	3.511
387.41	3.549
387.76	3.544
388.11	3.533
388.47	3.500
388.82	3.547
389.17	3.563
389.52	3.575
389.88	3.592
390.23	3.610
390.58	3.601
390.93	3.665
391.29	3.678
391.64	3.710
391.99	3.747
392.34	3.753
392.70	3.765
393.05	3.749
393.40	3.724
393.75	3.714
394.11	3.718
394.46	3.720
394.81	3.739
395.16	3.693
395.52	3.669
395.87	3.649
396.22	3.644
396.57	3.610
396.92	3.610
397.28	3.614
397.63	3.588
397.98	3.581
398.33	3.563
398.68	3.562
399.04	3.562
399.39	3.571
399.74	3.595
400.09	3.591
400.44	3.612
400.80	3.611
401.15	3.610
401.50	3.625
401.85	3.618
402.20	3.626
402.55	3.630
402.90	3.630
403.26	3.604
403.61	3.569
403.96	3.559
404.31	3.542
404.66	3.537
405.01	3.541
405.36	3.565
405.72	3.561
406.07	3.544
406.42	3.494
406.77	3.510
407.12	3.532
407.47	3.550
407.82	3.576
408.17	3.579
408.53	3.570
408.88	3.569
409.23	3.548
409.58	3.538
409.93	3.582
410.28	3.609
410.63	3.598
410.98	3.623
411.33	3.630
411.68	3.651
412.03	3.697
412.38	3.709
412.73	3.741
413.09	3.751
413.44	3.763
413.79	3.766
414.14	3.806
414.49	3.849
414.84	3.862
415.19	3.875
415.54	3.896
415.89	3.890
416.24	3.927
416.59	3.940
416.94	3.976
417.29	4.001
417.64	4.009
417.99	4.009
418.34	4.015
418.69	4.025
419.04	4.030
419.39	4.036
419.74	4.038
420.09	4.055
420.44	4.058
420.79	4.054
421.14	4.061
421.49	4.077
421.84	4.074
422.19	4.100
422.54	4.094
422.89	4.104
423.24	4.111
423.59	4.117
423.94	4.101
424.29	4.109
424.64	4.113
424.99	4.123
425.34	4.105
425.68	4.121
426.03	4.086
426.38	4.065
426.73	4.071
427.08	4.040
427.43	4.057
427.78	4.071
428.13	4.078
428.48	4.095
428.83	4.096
429.18	4.126
429.53	4.109
429.87	4.125
430.22	4.165
430.57	4.182
430.92	4.202
431.27	4.204
431.62	4.203
431.97	4.211
432.32	4.187
432.67	4.170
433.01	4.154
433.36	4.158
433.71	4.145
434.06	4.129
434.41	4.099
434.76	4.117
435.11	4.131
435.45	4.136
435.80	4.133
436.15	4.171
436.50	4.191
436.85	4.216
437.20	4.217
437.54	4.240
437.89	4.264
438.24	4.290
438.59	4.284
438.94	4.267
439.29	4.266
439.63	4.295
439.98	4.293
440.33	4.293
440.68	4.308
441.03	4.331
441.37	4.351
441.72	4.371
442.07	4.379
442.42	4.415
442.76	4.440
443.11	4.468
443.46	4.467
443.81	4.477
444.16	4.502
444.50	4.508
444.85	4.516
445.20	4.512
445.55	4.497
445.89	4.506
446.24	4.492
446.59	4.484
446.94	4.482
447.28	4.484
447.63	4.491
447.98	4.486
448.32	4.457
448.67	4.456
449.02	4.441
449.37	4.435
449.71	4.436
450.06	4.441
450.41	4.470
450.75	4.469
451.10	4.463
451.45	4.444
451.79	4.438
452.14	4.455
452.49	4.469
452.84	4.488
453.18	4.514
453.53	4.511
453.88	4.498
454.22	4.494
454.57	4.524
454.92	4.555
455.26	4.583
455.61	4.634
455.95	4.658
456.30	4.687
456.65	4.715
456.99	4.728
457.34	4.750
457.69	4.783
458.03	4.802
458.38	4.805
458.73	4.806
459.07	4.822
459.42	4.792
459.76	4.791
460.11	4.775
460.46	4.764
460.80	4.765
461.15	4.742
461.49	4.726
461.84	4.727
462.19	4.711
462.53	4.716
462.88	4.711
463.22	4.735
463.57	4.742
463.91	4.758
464.26	4.768
464.61	4.772
464.95	4.783
465.30	4.784
465.64	4.806
465.99	4.842
466.33	4.855
466.68	4.861
467.02	4.858
467.37	4.846
467.71	4.823
468.06	4.821
468.41	4.813
468.75	4.812
469.10	4.826
469.44	4.798
469.79	4.762
470.13	4.732
470.48	4.708
470.82	4.703
471.17	4.724
471.51	4.726
471.86	4.724
472.20	4.729
472.55	4.752
472.89	4.754
473.23	4.748
473.58	4.763
473.92	4.783
474.27	4.797
474.61	4.797
474.96	4.793
475.30	4.811
475.65	4.811
475.99	4.825
476.34	4.832
476.68	4.827
477.02	4.853
477.37	4.868
477.71	4.891
478.06	4.926
478.40	5.008
478.75	5.108
479.09	5.215
479.43	5.334
479.78	5.458
480.12	5.594
480.47	5.735
480.81	5.862
481.15	5.995
481.50	6.122
481.84	6.280
482.19	6.420
482.53	6.533
482.87	6.608
483.22	6.608
483.56	6.545
483.90	6.436
484.25	6.311
484.59	6.173
484.94	6.049
485.28	5.939
485.62	5.799
485.97	5.648
486.31	5.527
486.65	5.440
487.00	5.424
487.34	5.449
487.68	5.493
488.03	5.542
488.37	5.599
488.71	5.636
489.06	5.647
489.40	5.650
489.74	5.660
490.09	5.651
490.43	5.636
490.77	5.606
491.11	5.576
491.46	5.554
491.80	5.541
492.14	5.515
492.49	5.484
492.83	5.457
493.17	5.428
493.51	5.400
493.86	5.389
494.20	5.379
494.54	5.385
494.88	5.401
495.23	5.417
495.57	5.433
495.91	5.464
496.25	5.502
496.60	5.516
496.94	5.530
497.28	5.549
497.62	5.562
497.97	5.567
498.31	5.574
498.65	5.572
498.99	5.583
499.33	5.603
499.68	5.627
500.02	5.634
500.36	5.656
500.70	5.674
501.04	5.677
501.39	5.683
501.73	5.714
502.07	5.754
502.41	5.796
502.75	5.843
503.09	5.875
503.44	5.901
503.78	5.921
504.12	5.939
504.46	5.976
504.80	6.026
505.14	6.072
505.49	6.105
505.83	6.124
506.17	6.160
506.51	6.191
506.85	6.220
507.19	6.244
507.53	6.272
507.87	6.312
508.22	6.338
508.56	6.359
508.90	6.383
509.24	6.405
509.58	6.426
509.92	6.456
510.26	6.475
510.60	6.501
510.94	6.522
511.28	6.538
511.63	6.565
511.97	6.602
512.31	6.630
512.65	6.654
512.99	6.702
513.33	6.767
513.67	6.808
514.01	6.860
514.35	6.901
514.69	6.958
515.03	7.022
515.37	7.085
515.71	7.140
516.05	7.181
516.39	7.218
516.73	7.242
517.07	7.255
517.41	7.272
517.75	7.272
518.09	7.279
518.43	7.288
518.77	7.277
519.11	7.264
519.45	7.234
519.79	7.242
520.13	7.256
520.47	7.282
520.81	7.311
521.15	7.341
521.49	7.387
521.83	7.437
522.17	7.486
522.51	7.557
522.85	7.619
523.19	7.719
523.53	7.812
523.87	7.936
524.21	8.042
524.55	8.150
524.89	8.239
525.23	8.334
525.57	8.400
525.91	8.473
526.25	8.538
526.58	8.602
526.92	8.636
527.26	8.662
527.60	8.644
527.94	8.634
528.28	8.611
528.62	8.589
528.96	8.556
529.30	8.531
529.64	8.492
529.97	8.449
530.31	8.403
530.65	8.363
530.99	8.347
531.33	8.350
531.67	8.341
532.01	8.346
532.35	8.342
532.68	8.341
533.02	8.330
533.36	8.326
533.70	8.320
534.04	8.304
534.38	8.305
534.71	8.290
535.05	8.280
535.39	8.277
535.73	8.264
536.07	8.275
536.41	8.294
536.74	8.334
537.08	8.357
537.42	8.411
537.76	8.460
538.10	8.514
538.43	8.557
538.77	8.607
539.11	8.649
539.45	8.690
539.79	8.748
540.12	8.768
540.46	8.775
540.80	8.784
541.14	8.775
541.47	8.767
541.81	8.748
542.15	8.738
542.49	8.712
542.82	8.678
543.16	8.651
543.50	8.605
543.84	8.584
544.17	8.569
544.51	8.571
544.85	8.551
545.18	8.549
545.52	8.551
545.86	8.516
546.20	8.507
546.53	8.508
546.87	8.503
547.21	8.494
547.54	8.469
547.88	8.472
548.22	8.450
548.55	8.451
548.89	8.457
549.23	8.450
549.56	8.473
549.90	8.504
550.24	8.517
550.57	8.532
550.91	8.538
551.25	8.577
551.58	8.564
551.92	8.568
552.26	8.578
552.59	8.584
552.93	8.592
553.27	8.596
553.60	8.574
553.94	8.573
554.27	8.572
554.61	8.574
554.95	8.567
555.28	8.593
555.62	8.604
555.95	8.630
556.29	8.641
556.63	8.641
556.96	8.665
557.30	8.695
557.63	8.708
557.97	8.712
558.31	8.710
558.64	8.716
558.98	8.743
559.31	8.775
559.65	8.775
559.98	8.788
560.32	8.798
560.65	8.797
560.99	8.813
561.33	8.832
561.66	8.863
562.00	8.905
562.33	8.924
562.67	8.944
563.00	8.950
563.34	8.970
563.67	8.993
564.01	9.019
564.34	9.034
564.68	9.036
565.01	9.043
565.35	9.052
565.68	9.050
566.02	9.062
566.35	9.049
566.69	9.038
567.02	9.066
567.36	9.058
567.69	9.065
568.03	9.106
568.36	9.110
568.69	9.125
569.03	9.121
569.36	9.128
569.70	9.147
570.03	9.181
570.37	9.200
570.70	9.190
571.04	9.196
571.37	9.200
571.70	9.174
572.04	9.205
572.37	9.217
572.71	9.223
573.04	9.223
573.37	9.221
573.71	9.210
574.04	9.217
574.38	9.219
574.71	9.227
575.04	9.228
575.38	9.250
575.71	9.228
576.05	9.219
576.38	9.228
576.71	9.225
577.05	9.217
577.38	9.213
577.71	9.191
578.05	9.193
578.38	9.181
578.71	9.185
579.05	9.141
579.38	9.122
579.71	9.107
580.05	9.097
580.38	9.095
580.71	9.089
581.05	9.081
581.38	9.098
581.71	9.090
582.05	9.093
582.38	9.092
582.71	9.124
583.04	9.156
583.38	9.155
583.71	9.178
584.04	9.202
584.38	9.216
584.71	9.220
585.04	9.258
585.37	9.283
585.71	9.317
586.04	9.335
586.37	9.356
586.70	9.361
587.04	9.387
587.37	9.390
587.70	9.383
588.03	9.387
588.37	9.418
588.70	9.407
589.03	9.397
589.36	9.355
589.69	9.332
590.03	9.331
590.36	9.337
590.69	9.312
591.02	9.309
591.35	9.311
591.69	9.307
592.02	9.298
592.35	9.309
592.68	9.334
593.01	9.347
593.35	9.375
593.68	9.363
594.01	9.369
594.34	9.388
594.67	9.373
595.00	9.376
595.34	9.365
595.67	9.330
596.00	9.328
596.33	9.276
596.66	9.260
596.99	9.218
597.32	9.201
597.65	9.159
597.99	9.125
598.32	9.110
598.65	9.064
598.98	9.038
599.31	9.071
599.64	9.061
599.97	9.073
600.30	9.101
600.63	9.154
600.96	9.175
601.30	9.211
601.63	9.240
601.96	9.250
602.29	9.287
602.62	9.302
602.95	9.311
603.28	9.314
603.61	9.297
603.94	9.274
604.27	9.264
604.60	9.254
604.93	9.250
605.26	9.237
605.59	9.253
605.92	9.248
606.25	9.260
606.58	9.240
606.91	9.204
607.24	9.255
607.57	9.274
607.90	9.252
608.23	9.224
608.56	9.196
608.89	9.184
609.22	9.170
609.55	9.164
609.88	9.128
610.21	9.123
610.54	9.121
610.87	9.086
611.20	9.063
611.53	9.022
611.86	9.036
612.19	9.015
612.52	9.000
612.85	9.004
613.18	8.996
613.51	9.003
613.84	8.953
614.17	8.959
614.49	8.977
614.82	8.966
615.15	8.991
615.48	9.009
615.81	9.009
616.14	9.038
616.47	9.005
616.80	8.973
617.13	8.946
617.46	8.948
617.78	8.927
618.11	8.876
618.44	8.867
618.77	8.868
619.10	8.843
619.43	8.856
619.76	8.792
620.09	8.830
620.41	8.822
620.74	8.870
621.07	8.933
621.40	8.962
621.73	9.003
622.06	9.042
622.38	9.065
622.71	9.070
623.04	9.080
623.37	9.154
623.70	9.143
624.02	9.209
624.35	9.271
624.68	9.274
625.01	9.298
625.34	9.339
625.66	9.353
625.99	9.355
626.32	9.381
626.65	9.403
626.98	9.410
627.30	9.429
627.63	9.424
627.96	9.353
628.29	9.326
628.61	9.310
628.94	9.246
629.27	9.212
629.60	9.180
629.92	9.174
630.25	9.149
630.58	9.123
630.91	9.111
631.23	9.072
631.56	9.078
631.89	9.057
632.21	9.060
632.54	9.082
632.87	9.079
633.19	9.090
633.52	9.049
633.85	9.041
634.18	9.010
634.50	8.964
634.83	8.947
635.16	8.911
635.48	8.871
635.81	8.779
636.14	8.710
636.46	8.682
636.79	8.652
637.11	8.648
637.44	8.573
637.77	8.510
638.09	8.473
638.42	8.408
638.75	8.355
639.07	8.345
639.40	8.346
639.73	8.321
640.05	8.261
640.38	8.225
640.70	8.173
641.03	8.199
641.36	8.203
641.68	8.190
642.01	8.190
642.33	8.197
642.66	8.201
642.98	8.173
643.31	8.158
643.64	8.177
643.96	8.173
644.29	8.170
644.61	8.143
644.94	8.133
645.26	8.129
645.59	8.158
645.91	8.166
646.24	8.176
646.56	8.179
646.89	8.203
647.22	8.184
647.54	8.162
647.87	8.172
648.19	8.156
648.52	8.177
648.84	8.158
649.17	8.112
649.49	8.117
649.82	8.120
650.14	8.148
650.47	8.150
650.79	8.171
651.11	8.199
651.44	8.184
651.76	8.222
652.09	8.251
652.41	8.300
652.74	8.318
653.06	8.298
653.39	8.267
653.71	8.288
654.04	8.280
654.36	8.297
654.68	8.309
655.01	8.352
655.33	8.327
655.66	8.283
655.98	8.292
656.30	8.295
656.63	8.324
656.95	8.350
657.28	8.306
657.60	8.287
657.92	8.252
658.25	8.204
658.57	8.169
658.90	8.127
659.22	8.138
659.54	8.079
659.87	8.019
660.19	7.935
660.51	7.880
660.84	7.848
661.16	7.812
661.48	7.756
661.81	7.728
662.13	7.657
662.45	7.662
662.78	7.600
663.10	7.604
663.42	7.653
663.75	7.667
664.07	7.636
664.39	7.668
664.72	7.654
665.04	7.716
665.36	7.737
665.69	7.750
666.01	7.806
666.33	7.868
666.65	7.854
666.98	7.887
667.30	7.973
667.62	8.004
667.94	7.980
668.27	8.030
668.59	8.039
668.91	8.108
669.23	8.151
669.56	8.160
669.88	8.203
670.20	8.263
670.52	8.284
670.85	8.292
671.17	8.331
671.49	8.422
671.81	8.489
672.13	8.517
672.46	8.585
672.78	8.648
673.10	8.668
673.42	8.704
673.74	8.762
674.07	8.838
674.39	8.930
674.71	9.009
675.03	9.097
675.35	9.177
675.67	9.291
676.00	9.305
676.32	9.398
676.64	9.489
676.96	9.589
677.28	9.697
677.60	9.793
677.92	9.830
678.25	9.926
678.57	9.981
678.89	10.011
679.21	10.076
679.53	10.184
679.85	10.277
680.17	10.361
680.49	10.401
680.81	10.462
681.13	10.506
681.46	10.558
681.78	10.637
682.10	10.783
682.42	10.875
682.74	10.968
683.06	11.048
683.38	11.155
683.70	11.343
684.02	11.570
684.34	11.733
684.66	11.867
684.98	12.105
685.30	12.292
685.62	12.415
685.94	12.545
686.26	12.673
686.58	12.766
686.90	12.856
687.22	12.870
687.54	12.835
687.86	12.827
688.18	12.867
688.50	12.880
688.82	12.833
689.14	12.779
689.46	12.865
689.78	12.852
690.10	12.874
690.42	12.944
690.74	13.024
691.06	13.086
691.38	13.079
691.70	13.080
692.02	13.016
692.34	13.066
692.66	13.128
692.98	13.136
693.30	13.250
693.62	13.286
693.94	13.242
694.26	13.249
694.57	13.291
694.89	13.428
695.21	13.538
695.53	13.630
695.85	13.630
696.17	13.658
696.49	13.716
696.81	13.741
697.13	13.802
697.44	13.867
697.76	13.834
698.08	13.870
698.40	13.858
698.72	13.820
699.04	13.804
699.36	13.860
699.67	13.851
699.99	13.752
700.31	13.658
700.63	13.596
700.95	13.506
701.27	13.528
701.58	13.429
701.90	13.313
702.22	13.326
702.54	13.318
702.86	13.330
703.17	13.363
703.49	13.473
703.81	13.581
704.13	13.553
704.45	13.627
704.76	13.746
705.08	13.834
705.40	13.953
705.72	14.018
706.03	14.150
706.35	14.135
706.67	14.193
706.99	14.201
707.30	14.235
707.62	14.342
707.94	14.392
708.26	14.381
708.57	14.456
708.89	14.570
709.21	14.617
709.53	14.591
709.84	14.704
710.16	14.778
710.48	14.892
710.79	14.945
711.11	14.948
711.43	14.988
711.74	14.993
712.06	15.013
712.38	15.025
712.69	15.069
713.01	15.210
713.33	15.299
713.64	15.424
713.96	15.472
714.28	15.566
714.59	15.763
714.91	15.894
715.23	16.101
715.54	16.159
715.86	16.302
716.17	16.342
716.49	16.371
716.81	16.394
717.12	16.358
717.44	16.406
717.76	16.469
718.07	16.493
718.39	16.485
718.70	16.313
719.02	16.237
719.33	16.196
719.65	16.219
719.97	16.143
720.28	16.116
720.60	16.143
720.91	16.188
721.23	16.167
721.54	16.124
721.86	16.062
722.17	16.209
722.49	16.393
722.81	16.334
723.12	16.445
723.44	16.538
723.75	16.631
724.07	16.646
724.38	16.633
724.70	16.703
725.01	16.791
725.33	16.853
725.64	16.814
725.96	16.784
726.27	16.768
726.59	16.770
726.90	16.786
727.22	16.681
727.53	16.704
727.84	16.737
728.16	16.643
728.47	16.611
728.79	16.632
729.10	16.640
729.42	16.536
729.73	16.551
730.05	16.479
730.36	16.329
730.67	16.461
730.99	16.317
731.30	16.185
731.62	16.163
731.93	16.138
732.24	16.081
732.56	16.120
732.87	16.200
733.19	16.064
733.50	15.971
733.81	15.934
734.13	15.848
734.44	15.872
734.76	15.811
735.07	15.716
735.38	15.581
735.70	15.674
736.01	15.516
736.32	15.511
736.64	15.672
736.95	15.633
737.26	15.644
737.58	15.557
737.89	15.604
738.20	15.618
738.52	15.657
738.83	15.475
739.14	15.254
739.45	15.188
739.77	14.994
740.08	14.816
740.39	14.848
740.71	14.793
741.02	14.577
741.33	14.182
741.64	14.024
741.96	13.868
742.27	13.950
742.58	13.991
742.90	13.989
743.21	13.908
743.52	13.991
743.83	13.888
744.14	13.868
744.46	13.846
744.77	14.025
745.08	14.082
745.39	14.118
745.71	14.101
746.02	14.092
746.33	14.217
746.64	14.313
746.95	14.345
747.27	14.445
747.58	14.497
747.89	14.592
748.20	14.670
748.51	14.850
748.82	14.694
749.14	14.855
749.45	14.750
749.76	14.762
750.07	14.870
750.38	14.732
750.69	14.570
751.01	14.578
751.32	14.508
751.63	14.464
751.94	14.278
752.25	14.523
752.56	14.551
752.87	14.563
753.18	14.502
753.49	14.412
753.81	14.534
754.12	14.593
754.43	14.587
754.74	14.872
755.05	15.143
755.36	15.431
755.67	15.545
755.98	15.715
756.29	16.053
756.60	16.334
756.91	16.844
757.22	17.164
757.53	17.696
757.84	18.145
758.15	18.561
758.46	18.940
758.77	19.259
759.09	19.466
759.40	19.697
759.71	19.909
760.02	20.013
760.33	20.019
760.64	20.061
760.95	20.082
761.26	20.050
761.57	20.011
761.88	19.891
762.18	19.842
762.49	19.766
762.80	19.659
763.11	19.517
763.42	19.249
763.73	19.090
764.04	18.892
764.35	18.636
764.66	18.376
764.97	17.944
765.28	17.641
765.59	17.177
765.90	16.795
766.21	16.346
766.52	15.858
766.83	15.666
767.14	15.450
767.44	15.168
767.75	14.686
768.06	14.518
768.37	14.304
768.68	14.216
768.99	14.066
769.30	14.064
769.61	13.844
769.91	13.984
770.22	13.766
770.53	13.414
770.84	13.456
771.15	13.697
771.46	13.452
771.77	13.365
772.07	13.210
772.38	13.260
772.69	13.063
773.00	13.349
773.31	13.133
773.61	13.513
773.92	13.513
774.23	13.551
774.54	13.350
774.85	13.452
775.15	13.453
775.46	13.258
775.77	13.302
776.08	13.326
776.39	13.056
776.69	13.442
777.00	13.154
777.31	13.112
777.62	12.934
777.92	12.913
778.23	12.802
778.54	13.025
778.85	13.069
779.15	12.813
779.46	13.088
779.77	13.425
780.07	13.115
780.38	13.379
780.69	13.332
781.00	13.431
781.30	13.320
781.61	13.370
781.92	13.130
782.22	13.129
782.53	13.116
782.84	13.145
783.14	12.947
783.45	12.743
783.76	12.610
784.06	12.970
784.37	12.808
784.68	13.098
784.98	13.191
785.29	13.511
785.60	13.815
785.90	14.268
786.21	14.217
786.51	14.487
786.82	14.961
787.13	15.209
787.43	15.302
787.74	15.781
788.04	16.231
788.35	16.426
788.66	16.219
788.96	15.988
789.27	15.823
789.57	15.716
789.88	15.546
790.19	15.435
790.49	15.266
790.80	15.222
791.10	14.933
791.41	14.456
791.71	14.393
792.02	14.592
792.32	14.679
792.63	14.923
792.93	15.075
793.24	14.875
793.54	14.936
793.85	14.995
794.15	14.843
794.46	14.789
794.76	14.926
795.07	14.982
795.37	15.062
795.68	15.277
795.98	15.286
796.29	15.363
796.59	15.657
796.90	15.656
797.20	15.663
797.51	15.671
797.81	15.655
798.12	15.733
798.42	15.873
798.72	15.923
799.03	15.952
799.33	15.601
799.64	15.457
799.94	15.622
800.25	15.507
800.55	15.314
800.85	15.842
801.16	16.010
801.46	16.123
801.77	15.853
802.07	15.798
802.37	15.915
802.68	15.891
802.98	15.993
803.28	15.922
803.59	16.050
803.89	16.302
804.20	16.130
804.50	16.086
804.80	15.854
805.11	16.084
805.41	15.966
805.71	15.858
806.02	16.103
806.32	15.863
806.62	15.870
806.93	15.962
807.23	15.935
807.53	15.757
807.83	15.757
808.14	16.192
808.44	16.080
808.74	16.177
809.05	16.405
809.35	16.464
809.65	17.251
809.95	17.570
810.26	17.588
810.56	17.879
810.86	17.809
811.16	17.676
811.47	17.967
811.77	18.560
812.07	18.920
812.37	18.481
812.68	18.346
812.98	18.381
813.28	18.442
813.58	18.594
813.88	18.461
814.19	19.148
814.49	19.965
814.79	19.978
815.09	20.249
815.39	20.286
815.70	20.846
816.00	21.225
816.30	20.938
816.60	20.771
816.90	20.845
817.20	21.344
817.50	21.480
817.81	21.507
818.11	21.793
818.41	22.061
818.71	22.220
819.01	22.463
819.31	22.738
819.61	22.991
819.92	23.129
820.22	23.271
820.52	23.329
820.82	23.404
821.12	23.545
821.42	23.559
821.72	23.477
822.02	23.613
822.32	23.632
822.62	23.630
822.92	23.586
823.22	23.652
823.52	23.675
823.83	23.627
824.13	23.559
824.43	23.365
824.73	23.339
825.03	23.437
825.33	23.277
825.63	23.238
825.93	23.006
826.23	22.975
826.53	22.843
826.83	22.714
827.13	22.728
827.43	22.677
827.73	22.738
828.03	22.595
828.33	22.449
828.63	22.385
828.93	22.304
829.23	22.521
829.53	22.469
829.83	22.474
830.13	22.587
830.42	22.334
830.72	22.082
831.02	22.156
831.32	22.264
831.62	22.431
831.92	22.477
832.22	22.461
832.52	22.452
832.82	22.332
833.12	22.372
833.42	22.184
833.72	22.110
834.01	22.428
834.31	22.468
834.61	22.451
834.91	22.214
835.21	22.219
835.51	21.893
835.81	21.516
836.11	21.522
836.40	20.985
836.70	20.968
837.00	21.077
837.30	20.508
837.60	20.370
837.90	20.023
838.19	19.721
838.49	19.864
838.79	20.440
839.09	21.018
839.39	20.887
839.68	20.916
839.98	20.236
840.28	20.117
840.58	19.679
840.88	19.440
841.17	19.076
841.47	19.580
841.77	18.360
842.07	17.752
842.36	16.232
842.66	15.756
842.96	14.995
843.26	14.816
843.55	14.049
843.85	15.012
844.15	13.996
844.45	13.530
844.74	11.979
845.04	12.094
845.34	11.341
845.63	11.596
845.93	12.665
846.23	13.758
846.53	14.759
846.82	15.317
847.12	15.031
847.42	15.891
847.71	15.236
848.01	15.524
848.31	15.611
848.60	15.497
848.90	14.504
849.19	13.570
849.49	11.481
849.79	10.226
850.08	9.840
850.38	8.960
850.68	7.402
850.97	9.250
851.27	8.736
851.56	9.276
851.86	8.256
852.16	9.992
852.45	9.310
852.75	9.820
853.04	10.871
853.34	11.478
853.64	12.801
853.93	12.643
854.23	12.384
854.52	12.368
854.82	13.090
855.11	14.121
855.41	14.975
855.70	15.002
856.00	14.947
856.30	12.344
856.59	12.158
856.89	10.296
857.18	12.511
857.48	12.184
857.77	13.632
858.07	12.765
858.36	11.980
858.66	12.210
858.95	14.379
859.25	15.421
859.54	16.614
859.84	15.097
860.13	16.310
860.42	15.654
860.72	15.666
861.01	15.303
861.31	17.240
861.60	19.185
861.90	17.404
862.19	15.435
862.49	15.466
862.78	15.611
863.07	17.264
863.37	16.405
863.66	15.884
863.96	17.444
864.25	18.054
864.54	15.994
864.84	15.843
865.13	16.744
865.43	15.541
865.72	22.515
866.01	15.121
866.31	23.860
866.60	17.074
866.89	-2.273
>>>>>End Spectral Data<<<<<
