OOIBase32 Version 2.0.0.6 Data File
++++++++++++++++++++++++++++++++++++
Date: 01-23-2012, 23:24:05
User: Valued Ocean Optics Customer
Spectrometer Serial Number: USB2E2917
Spectrometer Channel: Master
Integration Time (msec): 5
Spectra Averaged: 10
Boxcar Smoothing: 5
Correct for Electrical Dark: Enabled
Time Normalized: Disabled
Dual-beam Reference: Disabled
Reference Channel: Master
Temperature: Not acquired
Spectrometer Type: S2000
ADC Type: USB2000
Number of Pixels in File: 2048
Graph Title: 
>>>>>Begin Spectral Data<<<<<
180.30	0.000
180.67	0.000
181.03	118.843
181.40	276.927
181.77	-11586.468
182.14	42.604
182.51	-970.230
182.88	-108.062
183.25	72.718
183.62	93.733
183.99	358.401
184.36	41.725
184.73	116.975
185.10	-32.551
185.46	29.597
185.83	313.107
186.20	-381.847
186.57	198.243
186.94	112.884
187.31	82.715
187.68	148.091
188.05	48.313
188.42	64.095
188.78	153.997
189.15	580.227
189.52	-52.760
189.89	30.171
190.26	35.127
190.63	13.169
191.00	16.530
191.37	20.441
191.73	36.494
192.10	31.906
192.47	36.348
192.84	32.221
193.21	43.337
193.58	46.331
193.94	47.459
194.31	43.731
194.68	55.250
195.05	50.975
195.42	59.803
195.79	49.078
196.15	57.482
196.52	66.975
196.89	102.001
197.26	70.963
197.63	50.884
198.00	54.751
198.36	54.291
198.73	39.595
199.10	45.035
199.47	43.784
199.84	50.884
200.20	31.272
200.57	33.834
200.94	17.142
201.31	33.241
201.68	30.681
202.04	31.423
202.41	33.515
202.78	44.589
203.15	59.104
203.51	52.900
203.88	49.913
204.25	63.807
204.62	55.955
204.98	54.801
205.35	29.057
205.72	35.909
206.09	25.155
206.46	18.305
206.82	-7.672
207.19	-21.350
207.56	-37.175
207.92	-21.054
208.29	-31.656
208.66	6.649
209.03	3.912
209.39	29.392
209.76	23.536
210.13	16.889
210.50	-4.094
210.86	13.144
211.23	5.539
211.60	2.744
211.96	-9.053
212.33	-14.824
212.70	-36.499
213.07	-39.894
213.43	-86.600
213.80	-74.193
214.17	-39.251
214.53	-12.784
214.90	-7.464
215.27	-4.701
215.63	-8.650
216.00	-1.630
216.37	2.800
216.74	-14.100
217.10	-1.666
217.47	5.368
217.84	8.279
218.20	6.544
218.57	7.387
218.94	5.998
219.30	3.578
219.67	4.687
220.04	1.483
220.40	-2.583
220.77	3.298
221.13	2.957
221.50	4.784
221.87	1.473
222.23	-2.152
222.60	-6.416
222.97	-7.417
223.33	-1.187
223.70	-4.832
224.07	-4.723
224.43	-3.007
224.80	-1.450
225.16	-5.488
225.53	-5.530
225.90	-5.779
226.26	-2.057
226.63	-1.038
226.99	0.200
227.36	1.412
227.73	5.365
228.09	6.420
228.46	9.181
228.82	10.764
229.19	12.096
229.56	11.873
229.92	13.148
230.29	12.479
230.65	11.667
231.02	10.072
231.38	6.066
231.75	3.551
232.12	1.730
232.48	-2.392
232.85	-4.833
233.21	-5.824
233.58	-6.734
233.94	-6.392
234.31	-6.918
234.68	-5.793
235.04	-4.345
235.41	-1.363
235.77	-0.506
236.14	1.200
236.50	2.852
236.87	4.697
237.23	7.045
237.60	7.233
237.96	6.572
238.33	5.752
238.69	5.098
239.06	4.865
239.42	4.625
239.79	3.731
240.15	3.223
240.52	3.074
240.88	3.643
241.25	2.539
241.61	3.035
241.98	3.272
242.34	3.579
242.71	3.605
243.07	3.512
243.44	3.640
243.80	3.982
244.17	3.975
244.53	4.002
244.90	3.475
245.26	3.785
245.63	3.675
245.99	3.521
246.36	3.408
246.72	3.691
247.09	3.509
247.45	3.337
247.81	3.501
248.18	3.725
248.54	3.707
248.91	3.637
249.27	3.929
249.64	4.148
250.00	4.272
250.36	4.280
250.73	4.160
251.09	4.488
251.46	4.639
251.82	4.375
252.19	4.156
252.55	4.001
252.91	4.274
253.28	3.518
253.64	2.971
254.01	3.429
254.37	4.019
254.73	4.205
255.10	4.566
255.46	4.930
255.83	4.697
256.19	4.330
256.55	4.208
256.92	4.181
257.28	4.311
257.65	4.448
258.01	4.220
258.37	4.106
258.74	3.797
259.10	3.568
259.46	3.284
259.83	3.394
260.19	3.430
260.55	3.518
260.92	3.339
261.28	3.247
261.64	3.220
262.01	3.473
262.37	3.254
262.73	3.495
263.10	3.868
263.46	4.011
263.82	4.004
264.19	4.172
264.55	4.082
264.91	4.173
265.28	4.051
265.64	4.023
266.00	3.583
266.37	3.514
266.73	3.572
267.09	3.463
267.46	3.296
267.82	3.101
268.18	3.090
268.54	3.308
268.91	3.232
269.27	3.269
269.63	3.397
270.00	3.554
270.36	3.490
270.72	3.698
271.08	3.532
271.45	3.642
271.81	3.717
272.17	3.773
272.53	3.560
272.90	3.592
273.26	3.734
273.62	3.523
273.98	3.272
274.35	3.291
274.71	3.168
275.07	3.249
275.43	3.292
275.80	3.377
276.16	3.227
276.52	3.453
276.88	3.591
277.25	3.305
277.61	3.379
277.97	3.571
278.33	3.844
278.69	3.659
279.06	3.617
279.42	3.518
279.78	3.578
280.14	3.651
280.50	3.617
280.87	3.759
281.23	3.885
281.59	3.995
281.95	4.106
282.31	4.138
282.68	4.082
283.04	4.061
283.40	4.301
283.76	4.295
284.12	4.393
284.48	4.379
284.85	4.178
285.21	4.289
285.57	4.129
285.93	4.097
286.29	3.928
286.65	4.121
287.02	4.315
287.38	4.158
287.74	4.226
288.10	4.129
288.46	4.004
288.82	4.034
289.18	3.952
289.54	3.927
289.91	3.762
290.27	3.813
290.63	3.880
290.99	3.870
291.35	4.001
291.71	4.040
292.07	3.998
292.43	4.125
292.79	4.182
293.16	4.149
293.52	4.387
293.88	4.660
294.24	4.787
294.60	4.819
294.96	4.630
295.32	4.498
295.68	4.364
296.04	4.453
296.40	4.396
296.76	4.418
297.12	4.381
297.49	4.315
297.85	4.085
298.21	3.991
298.57	3.676
298.93	3.700
299.29	3.565
299.65	3.658
300.01	3.668
300.37	3.861
300.73	3.932
301.09	4.088
301.45	4.149
301.81	4.211
302.17	4.225
302.53	4.276
302.89	4.327
303.25	4.525
303.61	4.482
303.97	4.293
304.33	4.097
304.69	4.092
305.05	4.091
305.41	3.864
305.77	4.042
306.13	4.074
306.49	4.136
306.85	4.219
307.21	4.221
307.57	4.220
307.93	4.325
308.29	4.466
308.65	4.430
309.01	4.385
309.37	4.482
309.73	4.412
310.09	4.413
310.45	4.515
310.81	4.486
311.17	4.480
311.53	4.419
311.89	4.551
312.25	4.643
312.61	4.638
312.96	4.663
313.32	4.745
313.68	4.630
314.04	4.565
314.40	4.564
314.76	4.544
315.12	4.509
315.48	4.573
315.84	4.493
316.20	4.347
316.56	4.337
316.92	4.334
317.27	4.225
317.63	4.290
317.99	4.383
318.35	4.359
318.71	4.350
319.07	4.392
319.43	4.385
319.79	4.390
320.15	4.379
320.50	4.470
320.86	4.453
321.22	4.504
321.58	4.483
321.94	4.314
322.30	4.302
322.66	4.282
323.01	4.181
323.37	4.245
323.73	4.263
324.09	4.219
324.45	4.275
324.81	4.243
325.17	4.343
325.52	4.341
325.88	4.442
326.24	4.450
326.60	4.452
326.96	4.480
327.31	4.520
327.67	4.429
328.03	4.435
328.39	4.220
328.75	4.279
329.11	4.219
329.46	4.300
329.82	4.369
330.18	4.310
330.54	4.347
330.90	4.372
331.25	4.294
331.61	4.399
331.97	4.448
332.33	4.500
332.68	4.454
333.04	4.429
333.40	4.364
333.76	4.260
334.11	4.299
334.47	4.243
334.83	4.224
335.19	4.177
335.54	4.093
335.90	4.063
336.26	4.096
336.62	4.093
336.97	4.021
337.33	4.016
337.69	4.082
338.05	3.970
338.40	3.980
338.76	4.040
339.12	4.176
339.48	4.157
339.83	4.135
340.19	4.061
340.55	4.203
340.90	4.202
341.26	4.192
341.62	4.173
341.97	4.203
342.33	4.301
342.69	4.345
343.04	4.258
343.40	4.232
343.76	4.207
344.12	4.293
344.47	4.191
344.83	4.285
345.19	4.353
345.54	4.332
345.90	4.401
346.26	4.356
346.61	4.362
346.97	4.419
347.32	4.484
347.68	4.502
348.04	4.474
348.39	4.464
348.75	4.469
349.11	4.393
349.46	4.448
349.82	4.428
350.18	4.395
350.53	4.392
350.89	4.360
351.24	4.360
351.60	4.396
351.96	4.458
352.31	4.446
352.67	4.443
353.02	4.467
353.38	4.415
353.74	4.491
354.09	4.484
354.45	4.460
354.80	4.395
355.16	4.401
355.52	4.456
355.87	4.368
356.23	4.397
356.58	4.384
356.94	4.482
357.29	4.529
357.65	4.506
358.00	4.562
358.36	4.532
358.72	4.570
359.07	4.587
359.43	4.551
359.78	4.610
360.14	4.597
360.49	4.578
360.85	4.536
361.20	4.507
361.56	4.441
361.91	4.411
362.27	4.422
362.62	4.461
362.98	4.489
363.33	4.459
363.69	4.400
364.04	4.494
364.40	4.540
364.75	4.520
365.11	4.545
365.46	4.537
365.82	4.521
366.17	4.564
366.53	4.565
366.88	4.523
367.24	4.576
367.59	4.618
367.95	4.549
368.30	4.530
368.66	4.516
369.01	4.468
369.37	4.530
369.72	4.591
370.08	4.575
370.43	4.605
370.78	4.641
371.14	4.588
371.49	4.619
371.85	4.616
372.20	4.633
372.56	4.635
372.91	4.686
373.26	4.698
373.62	4.643
373.97	4.671
374.33	4.628
374.68	4.619
375.03	4.665
375.39	4.676
375.74	4.675
376.10	4.660
376.45	4.681
376.80	4.707
377.16	4.664
377.51	4.720
377.87	4.730
378.22	4.727
378.57	4.720
378.93	4.759
379.28	4.794
379.63	4.802
379.99	4.850
380.34	4.886
380.70	4.909
381.05	5.014
381.40	4.980
381.76	5.024
382.11	5.044
382.46	5.102
382.82	5.110
383.17	5.091
383.52	5.089
383.88	5.073
384.23	5.026
384.58	5.012
384.94	4.945
385.29	4.960
385.64	4.895
385.99	4.903
386.35	4.882
386.70	4.849
387.05	4.828
387.41	4.816
387.76	4.805
388.11	4.846
388.47	4.834
388.82	4.850
389.17	4.853
389.52	4.875
389.88	4.866
390.23	4.853
390.58	4.888
390.93	4.917
391.29	4.962
391.64	5.011
391.99	5.066
392.34	5.099
392.70	5.084
393.05	5.106
393.40	5.109
393.75	5.110
394.11	5.135
394.46	5.101
394.81	5.084
395.16	5.073
395.52	5.053
395.87	5.021
396.22	5.023
396.57	5.019
396.92	4.988
397.28	4.972
397.63	4.988
397.98	4.969
398.33	4.942
398.68	4.924
399.04	4.922
399.39	4.913
399.74	4.918
400.09	4.881
400.44	4.891
400.80	4.877
401.15	4.853
401.50	4.848
401.85	4.876
402.20	4.908
402.55	4.950
402.90	4.937
403.26	4.904
403.61	4.865
403.96	4.855
404.31	4.860
404.66	4.906
405.01	4.921
405.36	4.932
405.72	4.916
406.07	4.903
406.42	4.849
406.77	4.836
407.12	4.849
407.47	4.874
407.82	4.881
408.17	4.861
408.53	4.843
408.88	4.861
409.23	4.853
409.58	4.817
409.93	4.834
410.28	4.861
410.63	4.887
410.98	4.881
411.33	4.897
411.68	4.908
412.03	4.957
412.38	4.948
412.73	4.967
413.09	4.965
413.44	4.998
413.79	4.990
414.14	5.013
414.49	5.059
414.84	5.102
415.19	5.095
415.54	5.130
415.89	5.117
416.24	5.156
416.59	5.166
416.94	5.193
417.29	5.219
417.64	5.230
417.99	5.252
418.34	5.257
418.69	5.268
419.04	5.272
419.39	5.271
419.74	5.305
420.09	5.316
420.44	5.315
420.79	5.332
421.14	5.345
421.49	5.367
421.84	5.357
422.19	5.356
422.54	5.352
422.89	5.358
423.24	5.363
423.59	5.347
423.94	5.343
424.29	5.361
424.64	5.338
424.99	5.320
425.34	5.292
425.68	5.288
426.03	5.273
426.38	5.278
426.73	5.262
427.08	5.252
427.43	5.255
427.78	5.235
428.13	5.232
428.48	5.231
428.83	5.230
429.18	5.250
429.53	5.252
429.87	5.252
430.22	5.220
430.57	5.240
430.92	5.237
431.27	5.246
431.62	5.259
431.97	5.256
432.32	5.265
432.67	5.265
433.01	5.268
433.36	5.255
433.71	5.251
434.06	5.258
434.41	5.250
434.76	5.272
435.11	5.271
435.45	5.265
435.80	5.263
436.15	5.258
436.50	5.268
436.85	5.284
437.20	5.281
437.54	5.274
437.89	5.293
438.24	5.306
438.59	5.299
438.94	5.292
439.29	5.300
439.63	5.291
439.98	5.286
440.33	5.267
440.68	5.269
441.03	5.304
441.37	5.319
441.72	5.338
442.07	5.347
442.42	5.357
442.76	5.366
443.11	5.364
443.46	5.393
443.81	5.421
444.16	5.454
444.50	5.458
444.85	5.453
445.20	5.456
445.55	5.461
445.89	5.468
446.24	5.468
446.59	5.463
446.94	5.466
447.28	5.451
447.63	5.433
447.98	5.430
448.32	5.406
448.67	5.401
449.02	5.408
449.37	5.385
449.71	5.391
450.06	5.382
450.41	5.396
450.75	5.408
451.10	5.407
451.45	5.403
451.79	5.395
452.14	5.405
452.49	5.424
452.84	5.415
453.18	5.407
453.53	5.381
453.88	5.380
454.22	5.382
454.57	5.385
454.92	5.403
455.26	5.436
455.61	5.466
455.95	5.497
456.30	5.510
456.65	5.540
456.99	5.555
457.34	5.591
457.69	5.602
458.03	5.621
458.38	5.648
458.73	5.656
459.07	5.653
459.42	5.640
459.76	5.630
460.11	5.603
460.46	5.591
460.80	5.587
461.15	5.558
461.49	5.552
461.84	5.546
462.19	5.514
462.53	5.505
462.88	5.512
463.22	5.505
463.57	5.487
463.91	5.509
464.26	5.528
464.61	5.539
464.95	5.548
465.30	5.556
465.64	5.559
465.99	5.589
466.33	5.605
466.68	5.599
467.02	5.600
467.37	5.613
467.71	5.597
468.06	5.578
468.41	5.571
468.75	5.569
469.10	5.585
469.44	5.561
469.79	5.534
470.13	5.496
470.48	5.483
470.82	5.491
471.17	5.491
471.51	5.504
471.86	5.505
472.20	5.513
472.55	5.514
472.89	5.510
473.23	5.503
473.58	5.496
473.92	5.523
474.27	5.532
474.61	5.517
474.96	5.526
475.30	5.527
475.65	5.504
475.99	5.497
476.34	5.505
476.68	5.500
477.02	5.522
477.37	5.538
477.71	5.582
478.06	5.623
478.40	5.705
478.75	5.802
479.09	5.907
479.43	6.046
479.78	6.197
480.12	6.345
480.47	6.504
480.81	6.660
481.15	6.814
481.50	6.955
481.84	7.130
482.19	7.296
482.53	7.435
482.87	7.534
483.22	7.556
483.56	7.500
483.90	7.392
484.25	7.249
484.59	7.094
484.94	6.954
485.28	6.823
485.62	6.671
485.97	6.505
486.31	6.366
486.65	6.258
487.00	6.216
487.34	6.227
487.68	6.273
488.03	6.329
488.37	6.391
488.71	6.422
489.06	6.422
489.40	6.415
489.74	6.406
490.09	6.394
490.43	6.373
490.77	6.345
491.11	6.310
491.46	6.282
491.80	6.247
492.14	6.214
492.49	6.196
492.83	6.164
493.17	6.121
493.51	6.095
493.86	6.060
494.20	6.042
494.54	6.033
494.88	6.045
495.23	6.050
495.57	6.077
495.91	6.097
496.25	6.108
496.60	6.122
496.94	6.139
497.28	6.151
497.62	6.153
497.97	6.164
498.31	6.172
498.65	6.172
498.99	6.167
499.33	6.186
499.68	6.203
500.02	6.228
500.36	6.238
500.70	6.244
501.04	6.246
501.39	6.259
501.73	6.280
502.07	6.312
502.41	6.339
502.75	6.404
503.09	6.412
503.44	6.437
503.78	6.437
504.12	6.463
504.46	6.510
504.80	6.553
505.14	6.606
505.49	6.647
505.83	6.679
506.17	6.718
506.51	6.727
506.85	6.773
507.19	6.801
507.53	6.831
507.87	6.856
508.22	6.866
508.56	6.883
508.90	6.893
509.24	6.907
509.58	6.911
509.92	6.919
510.26	6.934
510.60	6.933
510.94	6.947
511.28	6.964
511.63	6.981
511.97	7.003
512.31	7.035
512.65	7.056
512.99	7.091
513.33	7.150
513.67	7.198
514.01	7.263
514.35	7.332
514.69	7.387
515.03	7.442
515.37	7.516
515.71	7.570
516.05	7.610
516.39	7.662
516.73	7.696
517.07	7.724
517.41	7.739
517.75	7.736
518.09	7.736
518.43	7.736
518.77	7.724
519.11	7.712
519.45	7.701
519.79	7.713
520.13	7.696
520.47	7.702
520.81	7.719
521.15	7.761
521.49	7.804
521.83	7.844
522.17	7.882
522.51	7.959
522.85	8.037
523.19	8.137
523.53	8.237
523.87	8.379
524.21	8.515
524.55	8.621
524.89	8.733
525.23	8.844
525.57	8.957
525.91	9.051
526.25	9.124
526.58	9.185
526.92	9.244
527.26	9.289
527.60	9.288
527.94	9.290
528.28	9.289
528.62	9.263
528.96	9.235
529.30	9.185
529.64	9.155
529.97	9.133
530.31	9.113
530.65	9.078
530.99	9.045
531.33	9.044
531.67	9.037
532.01	9.041
532.35	9.048
532.68	9.056
533.02	9.063
533.36	9.048
533.70	9.027
534.04	9.002
534.38	8.998
534.71	8.984
535.05	8.981
535.39	8.978
535.73	8.967
536.07	8.971
536.41	8.976
536.74	9.003
537.08	9.040
537.42	9.107
537.76	9.157
538.10	9.209
538.43	9.273
538.77	9.326
539.11	9.380
539.45	9.421
539.79	9.470
540.12	9.510
540.46	9.536
540.80	9.552
541.14	9.545
541.47	9.540
541.81	9.528
542.15	9.512
542.49	9.482
542.82	9.439
543.16	9.421
543.50	9.387
543.84	9.346
544.17	9.308
544.51	9.292
544.85	9.275
545.18	9.279
545.52	9.267
545.86	9.249
546.20	9.250
546.53	9.239
546.87	9.212
547.21	9.196
547.54	9.174
547.88	9.182
548.22	9.167
548.55	9.160
548.89	9.157
549.23	9.148
549.56	9.174
549.90	9.194
550.24	9.233
550.57	9.259
550.91	9.257
551.25	9.278
551.58	9.283
551.92	9.299
552.26	9.307
552.59	9.294
552.93	9.305
553.27	9.312
553.60	9.317
553.94	9.308
554.27	9.300
554.61	9.327
554.95	9.353
555.28	9.360
555.62	9.365
555.95	9.378
556.29	9.406
556.63	9.417
556.96	9.412
557.30	9.416
557.63	9.422
557.97	9.448
558.31	9.427
558.64	9.439
558.98	9.460
559.31	9.490
559.65	9.518
559.98	9.543
560.32	9.580
560.65	9.591
560.99	9.615
561.33	9.642
561.66	9.677
562.00	9.732
562.33	9.749
562.67	9.775
563.00	9.784
563.34	9.799
563.67	9.797
564.01	9.805
564.34	9.829
564.68	9.832
565.01	9.851
565.35	9.847
565.68	9.867
566.02	9.873
566.35	9.886
566.69	9.904
567.02	9.939
567.36	9.973
567.69	9.993
568.03	10.022
568.36	10.036
568.69	10.038
569.03	10.070
569.36	10.088
569.70	10.113
570.03	10.143
570.37	10.159
570.70	10.168
571.04	10.180
571.37	10.178
571.70	10.184
572.04	10.206
572.37	10.215
572.71	10.197
573.04	10.193
573.37	10.202
573.71	10.190
574.04	10.194
574.38	10.167
574.71	10.165
575.04	10.178
575.38	10.163
575.71	10.149
576.05	10.141
576.38	10.168
576.71	10.163
577.05	10.142
577.38	10.136
577.71	10.135
578.05	10.118
578.38	10.112
578.71	10.086
579.05	10.080
579.38	10.075
579.71	10.069
580.05	10.021
580.38	10.021
580.71	10.019
581.05	10.010
581.38	10.001
581.71	10.043
582.05	10.058
582.38	10.091
582.71	10.099
583.04	10.132
583.38	10.154
583.71	10.201
584.04	10.207
584.38	10.237
584.71	10.271
585.04	10.283
585.37	10.281
585.71	10.285
586.04	10.278
586.37	10.324
586.70	10.324
587.04	10.372
587.37	10.370
587.70	10.391
588.03	10.399
588.37	10.421
588.70	10.458
589.03	10.488
589.36	10.537
589.69	10.566
590.03	10.563
590.36	10.553
590.69	10.503
591.02	10.527
591.35	10.534
591.69	10.547
592.02	10.552
592.35	10.562
592.68	10.569
593.01	10.541
593.35	10.572
593.68	10.621
594.01	10.681
594.34	10.731
594.67	10.736
595.00	10.736
595.34	10.735
595.67	10.736
596.00	10.745
596.33	10.732
596.66	10.737
596.99	10.696
597.32	10.649
597.65	10.632
597.99	10.612
598.32	10.597
598.65	10.602
598.98	10.613
599.31	10.605
599.64	10.604
599.97	10.625
600.30	10.655
600.63	10.694
600.96	10.755
601.30	10.759
601.63	10.812
601.96	10.834
602.29	10.855
602.62	10.880
602.95	10.919
603.28	10.927
603.61	10.919
603.94	10.925
604.27	10.958
604.60	10.911
604.93	10.931
605.26	10.900
605.59	10.893
605.92	10.891
606.25	10.880
606.58	10.875
606.91	10.849
607.24	10.890
607.57	10.887
607.90	10.853
608.23	10.846
608.56	10.831
608.89	10.823
609.22	10.835
609.55	10.812
609.88	10.798
610.21	10.779
610.54	10.783
610.87	10.733
611.20	10.712
611.53	10.688
611.86	10.687
612.19	10.639
612.52	10.624
612.85	10.609
613.18	10.626
613.51	10.594
613.84	10.562
614.17	10.562
614.49	10.593
614.82	10.572
615.15	10.567
615.48	10.600
615.81	10.607
616.14	10.647
616.47	10.643
616.80	10.616
617.13	10.629
617.46	10.658
617.78	10.668
618.11	10.634
618.44	10.666
618.77	10.693
619.10	10.706
619.43	10.734
619.76	10.681
620.09	10.746
620.41	10.785
620.74	10.804
621.07	10.806
621.40	10.834
621.73	10.876
622.06	10.901
622.38	10.952
622.71	10.951
623.04	11.008
623.37	11.096
623.70	11.100
624.02	11.126
624.35	11.209
624.68	11.258
625.01	11.311
625.34	11.389
625.66	11.430
625.99	11.455
626.32	11.495
626.65	11.541
626.98	11.545
627.30	11.574
627.63	11.569
627.96	11.539
628.29	11.525
628.61	11.517
628.94	11.467
629.27	11.470
629.60	11.430
629.92	11.438
630.25	11.378
630.58	11.380
630.91	11.380
631.23	11.400
631.56	11.427
631.89	11.425
632.21	11.443
632.54	11.471
632.87	11.445
633.19	11.466
633.52	11.469
633.85	11.484
634.18	11.476
634.50	11.434
634.83	11.439
635.16	11.404
635.48	11.375
635.81	11.327
636.14	11.309
636.46	11.299
636.79	11.281
637.11	11.231
637.44	11.199
637.77	11.173
638.09	11.156
638.42	11.134
638.75	11.133
639.07	11.176
639.40	11.167
639.73	11.127
640.05	11.104
640.38	11.113
640.70	11.110
641.03	11.105
641.36	11.076
641.68	11.084
642.01	11.081
642.33	11.081
642.66	11.081
642.98	11.084
643.31	11.097
643.64	11.125
643.96	11.132
644.29	11.150
644.61	11.194
644.94	11.242
645.26	11.260
645.59	11.312
645.91	11.338
646.24	11.353
646.56	11.353
646.89	11.369
647.22	11.376
647.54	11.356
647.87	11.400
648.19	11.390
648.52	11.400
648.84	11.431
649.17	11.379
649.49	11.379
649.82	11.380
650.14	11.414
650.47	11.415
650.79	11.398
651.11	11.466
651.44	11.473
651.76	11.445
652.09	11.501
652.41	11.543
652.74	11.598
653.06	11.629
653.39	11.638
653.71	11.713
654.04	11.760
654.36	11.831
654.68	11.872
655.01	11.941
655.33	11.976
655.66	11.962
655.98	11.981
656.30	11.950
656.63	11.979
656.95	11.969
657.28	11.895
657.60	11.865
657.92	11.813
658.25	11.747
658.57	11.707
658.90	11.683
659.22	11.655
659.54	11.595
659.87	11.601
660.19	11.523
660.51	11.494
660.84	11.491
661.16	11.469
661.48	11.469
661.81	11.438
662.13	11.389
662.45	11.440
662.78	11.405
663.10	11.418
663.42	11.448
663.75	11.484
664.07	11.547
664.39	11.562
664.72	11.563
665.04	11.576
665.36	11.627
665.69	11.613
666.01	11.615
666.33	11.646
666.65	11.612
666.98	11.620
667.30	11.656
667.62	11.639
667.94	11.686
668.27	11.751
668.59	11.785
668.91	11.792
669.23	11.868
669.56	11.916
669.88	12.005
670.20	12.083
670.52	12.169
670.85	12.132
671.17	12.225
671.49	12.282
671.81	12.364
672.13	12.453
672.46	12.571
672.78	12.642
673.10	12.678
673.42	12.732
673.74	12.846
674.07	12.935
674.39	13.090
674.71	13.174
675.03	13.331
675.35	13.414
675.67	13.505
676.00	13.624
676.32	13.667
676.64	13.779
676.96	13.935
677.28	14.047
677.60	14.128
677.92	14.249
678.25	14.345
678.57	14.391
678.89	14.486
679.21	14.612
679.53	14.689
679.85	14.843
680.17	14.958
680.49	15.034
680.81	15.100
681.13	15.214
681.46	15.291
681.78	15.454
682.10	15.556
682.42	15.705
682.74	15.855
683.06	15.967
683.38	16.167
683.70	16.450
684.02	16.624
684.34	16.890
684.66	17.124
684.98	17.362
685.30	17.523
685.62	17.742
685.94	17.937
686.26	18.050
686.58	18.207
686.90	18.265
687.22	18.289
687.54	18.408
687.86	18.417
688.18	18.447
688.50	18.542
688.82	18.662
689.14	18.734
689.46	18.843
689.78	18.895
690.10	19.005
690.42	19.128
690.74	19.201
691.06	19.210
691.38	19.317
691.70	19.406
692.02	19.430
692.34	19.455
692.66	19.500
692.98	19.499
693.30	19.650
693.62	19.754
693.94	19.841
694.26	19.948
694.57	20.058
694.89	20.199
695.21	20.278
695.53	20.408
695.85	20.488
696.17	20.589
696.49	20.710
696.81	20.784
697.13	20.828
697.44	20.876
697.76	20.962
698.08	21.127
698.40	21.184
698.72	21.295
699.04	21.333
699.36	21.434
699.67	21.526
699.99	21.580
700.31	21.648
700.63	21.708
700.95	21.805
701.27	21.799
701.58	21.688
701.90	21.657
702.22	21.679
702.54	21.708
702.86	21.705
703.17	21.659
703.49	21.708
703.81	21.832
704.13	21.838
704.45	21.873
704.76	22.020
705.08	22.238
705.40	22.319
705.72	22.388
706.03	22.508
706.35	22.649
706.67	22.757
706.99	22.832
707.30	22.877
707.62	23.049
707.94	23.172
708.26	23.248
708.57	23.247
708.89	23.350
709.21	23.439
709.53	23.503
709.84	23.567
710.16	23.666
710.48	23.743
710.79	23.846
711.11	23.853
711.43	23.867
711.74	23.941
712.06	24.033
712.38	24.216
712.69	24.291
713.01	24.487
713.33	24.555
713.64	24.794
713.96	24.883
714.28	25.130
714.59	25.434
714.91	25.697
715.23	25.845
715.54	25.946
715.86	26.053
716.17	26.221
716.49	26.305
716.81	26.438
717.12	26.412
717.44	26.602
717.76	26.521
718.07	26.533
718.39	26.516
718.70	26.484
719.02	26.572
719.33	26.644
719.65	26.681
719.97	26.669
720.28	26.772
720.60	26.991
720.91	27.027
721.23	27.187
721.54	27.246
721.86	27.358
722.17	27.514
722.49	27.695
722.81	27.718
723.12	27.886
723.44	28.024
723.75	28.177
724.07	28.249
724.38	28.427
724.70	28.508
725.01	28.594
725.33	28.639
725.64	28.828
725.96	28.951
726.27	28.950
726.59	29.048
726.90	29.174
727.22	29.096
727.53	29.127
727.84	29.170
728.16	29.221
728.47	29.318
728.79	29.510
729.10	29.466
729.42	29.388
729.73	29.589
730.05	29.622
730.36	29.624
730.67	29.769
730.99	29.817
731.30	29.911
731.62	29.886
731.93	30.000
732.24	30.011
732.56	30.079
732.87	30.222
733.19	30.304
733.50	30.267
733.81	30.411
734.13	30.447
734.44	30.497
734.76	30.435
735.07	30.592
735.38	30.424
735.70	30.550
736.01	30.670
736.32	30.714
736.64	30.816
736.95	30.823
737.26	30.791
737.58	30.933
737.89	31.036
738.20	31.130
738.52	31.122
738.83	31.219
739.14	31.145
739.45	31.189
739.77	31.280
740.08	31.218
740.39	31.358
740.71	31.363
741.02	31.358
741.33	31.357
741.64	31.455
741.96	31.558
742.27	31.539
742.58	31.618
742.90	31.598
743.21	31.713
743.52	31.717
743.83	31.856
744.14	31.825
744.46	32.037
744.77	32.210
745.08	32.036
745.39	31.973
745.71	32.279
746.02	32.362
746.33	32.642
746.64	32.560
746.95	32.813
747.27	32.857
747.58	33.227
747.89	33.225
748.20	33.078
748.51	33.427
748.82	33.431
749.14	33.445
749.45	33.362
749.76	33.243
750.07	33.411
750.38	33.317
750.69	33.364
751.01	33.182
751.32	33.069
751.63	33.281
751.94	33.094
752.25	33.089
752.56	33.134
752.87	33.342
753.18	33.346
753.49	33.441
753.81	33.432
754.12	33.405
754.43	33.656
754.74	33.810
755.05	33.916
755.36	34.207
755.67	34.579
755.98	34.879
756.29	34.975
756.60	35.260
756.91	35.377
757.22	35.617
757.53	35.967
757.84	36.256
758.15	36.530
758.46	36.735
758.77	36.989
759.09	37.175
759.40	37.245
759.71	37.366
760.02	37.459
760.33	37.543
760.64	37.626
760.95	37.628
761.26	37.695
761.57	37.632
761.88	37.627
762.18	37.560
762.49	37.570
762.80	37.527
763.11	37.597
763.42	37.566
763.73	37.582
764.04	37.549
764.35	37.440
764.66	37.161
764.97	37.141
765.28	37.016
765.59	36.951
765.90	36.553
766.21	36.250
766.52	35.964
766.83	35.780
767.14	35.625
767.44	35.433
767.75	35.507
768.06	35.716
768.37	35.420
768.68	35.440
768.99	35.320
769.30	35.621
769.61	35.620
769.91	35.575
770.22	35.549
770.53	35.522
770.84	35.545
771.15	35.501
771.46	35.036
771.77	35.345
772.07	35.339
772.38	35.391
772.69	35.023
773.00	35.476
773.31	35.605
773.61	35.659
773.92	35.359
774.23	35.458
774.54	35.294
774.85	35.273
775.15	35.084
775.46	35.052
775.77	35.067
776.08	35.515
776.39	35.162
776.69	35.254
777.00	35.247
777.31	35.535
777.62	35.398
777.92	35.509
778.23	35.627
778.54	35.503
778.85	35.489
779.15	35.404
779.46	35.404
779.77	35.686
780.07	35.774
780.38	36.046
780.69	36.019
781.00	36.214
781.30	36.098
781.61	36.021
781.92	36.506
782.22	36.576
782.53	36.526
782.84	36.508
783.14	36.502
783.45	36.529
783.76	36.507
784.06	36.878
784.37	36.932
784.68	37.252
784.98	37.830
785.29	37.701
785.60	38.012
785.90	38.412
786.21	38.544
786.51	38.425
786.82	38.711
787.13	38.722
787.43	38.773
787.74	39.004
788.04	39.223
788.35	39.292
788.66	39.467
788.96	39.477
789.27	39.625
789.57	39.589
789.88	40.008
790.19	39.698
790.49	39.999
790.80	39.789
791.10	39.802
791.41	39.681
791.71	39.631
792.02	39.627
792.32	39.604
792.63	39.688
792.93	39.874
793.24	39.949
793.54	40.432
793.85	40.376
794.15	40.053
794.46	40.145
794.76	40.186
795.07	40.090
795.37	40.291
795.68	40.299
795.98	40.165
796.29	40.201
796.59	40.061
796.90	39.938
797.20	39.988
797.51	40.448
797.81	40.262
798.12	40.532
798.42	40.784
798.72	40.995
799.03	41.030
799.33	41.014
799.64	41.001
799.94	41.197
800.25	40.963
800.55	40.848
800.85	40.970
801.16	41.335
801.46	41.082
801.77	41.181
802.07	40.947
802.37	40.950
802.68	40.950
802.98	40.929
803.28	40.882
803.59	41.310
803.89	41.510
804.20	41.535
804.50	41.433
804.80	41.597
805.11	41.457
805.41	41.418
805.71	41.635
806.02	41.800
806.32	42.139
806.62	42.081
806.93	42.193
807.23	42.460
807.53	42.749
807.83	42.784
808.14	42.779
808.44	42.965
808.74	42.848
809.05	42.857
809.35	42.973
809.65	43.476
809.95	43.968
810.26	43.950
810.56	43.765
810.86	43.669
811.16	43.868
811.47	44.372
811.77	44.707
812.07	45.243
812.37	45.001
812.68	45.440
812.98	45.185
813.28	45.382
813.58	45.460
813.88	45.455
814.19	46.146
814.49	46.525
814.79	46.537
815.09	46.950
815.39	46.698
815.70	47.296
816.00	46.964
816.30	46.840
816.60	46.778
816.90	46.909
817.20	47.004
817.50	46.757
817.81	46.476
818.11	46.369
818.41	46.149
818.71	46.119
819.01	46.146
819.31	46.401
819.61	46.786
819.92	47.005
820.22	47.207
820.52	47.441
820.82	47.673
821.12	48.061
821.42	48.344
821.72	48.646
822.02	49.039
822.32	49.386
822.62	49.719
822.92	49.887
823.22	50.133
823.52	50.377
823.83	50.526
824.13	50.633
824.43	50.526
824.73	50.605
825.03	50.621
825.33	50.591
825.63	50.578
825.93	50.475
826.23	50.427
826.53	50.426
826.83	50.377
827.13	50.652
827.43	50.802
827.73	51.197
828.03	51.331
828.33	51.694
828.63	51.963
828.93	52.012
829.23	52.018
829.53	51.923
829.83	51.460
830.13	51.337
830.42	50.842
830.72	50.641
831.02	50.253
831.32	50.127
831.62	49.851
831.92	49.788
832.22	49.753
832.52	49.631
832.82	49.829
833.12	49.993
833.42	49.912
833.72	49.914
834.01	50.370
834.31	50.464
834.61	50.733
834.91	51.023
835.21	51.020
835.51	51.241
835.81	51.134
836.11	51.128
836.40	51.372
836.70	51.660
837.00	51.764
837.30	50.753
837.60	50.702
837.90	50.247
838.19	49.961
838.49	50.232
838.79	50.253
839.09	51.211
839.39	51.466
839.68	51.502
839.98	50.954
840.28	50.644
840.58	51.477
840.88	52.127
841.17	52.054
841.47	51.913
841.77	51.490
842.07	51.434
842.36	50.657
842.66	49.714
842.96	49.384
843.26	50.279
843.55	51.037
843.85	50.496
844.15	48.970
844.45	48.934
844.74	49.850
845.04	50.345
845.34	49.258
845.63	49.518
845.93	50.057
846.23	50.626
846.53	51.037
846.82	50.462
847.12	51.308
847.42	52.091
847.71	51.358
848.01	50.319
848.31	50.096
848.60	50.571
848.90	49.244
849.19	49.126
849.49	48.460
849.79	47.908
850.08	48.447
850.38	47.550
850.68	47.542
850.97	50.810
851.27	50.705
851.56	51.217
851.86	51.113
852.16	53.068
852.45	52.056
852.75	51.905
853.04	53.469
853.34	54.054
853.64	52.760
853.93	51.838
854.23	47.937
854.52	47.132
854.82	47.126
855.11	46.985
855.41	47.676
855.70	50.341
856.00	49.914
856.30	50.185
856.59	50.195
856.89	52.121
857.18	54.201
857.48	55.941
857.77	57.795
858.07	57.398
858.36	55.318
858.66	53.563
858.95	52.279
859.25	53.065
859.54	51.048
859.84	50.291
860.13	47.790
860.42	46.911
860.72	46.468
861.01	45.778
861.31	45.887
861.60	48.309
861.90	49.914
862.19	49.703
862.49	48.715
862.78	49.153
863.07	49.915
863.37	51.121
863.66	48.823
863.96	50.335
864.25	51.903
864.54	52.673
864.84	52.925
865.13	51.968
865.43	52.666
865.72	74.485
866.01	62.187
866.31	54.968
866.60	52.216
866.89	55.647
>>>>>End Spectral Data<<<<<
