OOIBase32 Version 2.0.0.6 Data File
++++++++++++++++++++++++++++++++++++
Date: 01-23-2012, 23:24:15
User: Valued Ocean Optics Customer
Spectrometer Serial Number: USB2E2917
Spectrometer Channel: Master
Integration Time (msec): 5
Spectra Averaged: 10
Boxcar Smoothing: 5
Correct for Electrical Dark: Enabled
Time Normalized: Disabled
Dual-beam Reference: Disabled
Reference Channel: Master
Temperature: Not acquired
Spectrometer Type: S2000
ADC Type: USB2000
Number of Pixels in File: 2048
Graph Title: 
>>>>>Begin Spectral Data<<<<<
180.30	0.000
180.67	0.000
181.03	-51.050
181.40	618.065
181.77	-1627.752
182.14	92.314
182.51	-598.607
182.88	151.106
183.25	60.530
183.62	76.644
183.99	237.222
184.36	69.478
184.73	400.595
185.10	106.010
185.46	32.861
185.83	-177.597
186.20	69.356
186.57	95.512
186.94	74.606
187.31	63.495
187.68	165.551
188.05	-2.737
188.42	-26.556
188.78	-83.909
189.15	-149.303
189.52	134.200
189.89	111.934
190.26	109.801
190.63	68.712
191.00	58.238
191.37	58.100
191.73	66.084
192.10	54.450
192.47	51.283
192.84	53.244
193.21	61.681
193.58	55.803
193.94	52.411
194.31	46.814
194.68	45.295
195.05	39.737
195.42	46.178
195.79	39.508
196.15	55.647
196.52	64.284
196.89	61.260
197.26	54.780
197.63	67.676
198.00	79.198
198.36	80.493
198.73	83.093
199.10	51.194
199.47	35.322
199.84	48.907
200.20	30.992
200.57	23.360
200.94	26.386
201.31	21.777
201.68	3.065
202.04	-6.037
202.41	-16.743
202.78	-12.832
203.15	-0.425
203.51	-2.798
203.88	-15.430
204.25	-1.643
204.62	-7.057
204.98	-18.645
205.35	-22.329
205.72	-13.516
206.09	-12.557
206.46	-12.715
206.82	-28.051
207.19	-41.435
207.56	-65.345
207.92	-61.795
208.29	-77.836
208.66	-44.446
209.03	-33.784
209.39	-2.400
209.76	5.080
210.13	-14.952
210.50	-29.150
210.86	-7.735
211.23	-7.298
211.60	-7.730
211.96	-3.946
212.33	4.937
212.70	-1.998
213.07	-9.506
213.43	-44.836
213.80	-56.188
214.17	-13.354
214.53	1.405
214.90	0.332
215.27	10.707
215.63	11.197
216.00	9.687
216.37	3.786
216.74	-2.773
217.10	-3.414
217.47	-7.601
217.84	-1.499
218.20	-14.183
218.57	-18.774
218.94	-18.564
219.30	-18.723
219.67	-18.895
220.04	-17.407
220.40	-24.554
220.77	-26.557
221.13	-23.285
221.50	-16.355
221.87	-20.067
222.23	-14.887
222.60	-16.960
222.97	-20.503
223.33	-22.969
223.70	-19.049
224.07	-18.431
224.43	-12.857
224.80	-7.094
225.16	-5.695
225.53	-6.354
225.90	-6.968
226.26	-5.709
226.63	-3.219
226.99	-1.214
227.36	0.853
227.73	2.704
228.09	3.593
228.46	5.129
228.82	4.516
229.19	3.432
229.56	5.572
229.92	7.486
230.29	7.749
230.65	7.948
231.02	5.420
231.38	1.983
231.75	0.263
232.12	-0.172
232.48	-1.181
232.85	-1.103
233.21	0.671
233.58	-3.191
233.94	-4.163
234.31	-4.225
234.68	-3.412
235.04	-1.297
235.41	1.764
235.77	3.448
236.14	3.276
236.50	4.066
236.87	3.847
237.23	3.155
237.60	3.892
237.96	3.978
238.33	2.588
238.69	1.742
239.06	1.675
239.42	1.590
239.79	0.565
240.15	-0.024
240.52	0.019
240.88	0.534
241.25	0.689
241.61	1.221
241.98	1.430
242.34	2.006
242.71	2.197
243.07	2.311
243.44	1.944
243.80	2.416
244.17	2.791
244.53	2.428
244.90	2.542
245.26	2.592
245.63	2.332
245.99	2.206
246.36	2.060
246.72	2.279
247.09	2.169
247.45	2.398
247.81	2.548
248.18	2.555
248.54	2.978
248.91	2.597
249.27	2.887
249.64	3.315
250.00	3.588
250.36	3.844
250.73	3.790
251.09	3.938
251.46	3.946
251.82	3.427
252.19	3.252
252.55	2.784
252.91	3.152
253.28	2.500
253.64	1.805
254.01	1.914
254.37	2.050
254.73	2.258
255.10	3.044
255.46	3.469
255.83	3.574
256.19	3.728
256.55	3.978
256.92	4.030
257.28	4.096
257.65	4.319
258.01	4.311
258.37	4.330
258.74	4.102
259.10	3.789
259.46	3.667
259.83	3.584
260.19	3.645
260.55	3.543
260.92	3.336
261.28	3.249
261.64	3.174
262.01	3.038
262.37	2.913
262.73	3.309
263.10	3.396
263.46	3.222
263.82	3.386
264.19	3.252
264.55	2.962
264.91	2.868
265.28	2.872
265.64	2.976
266.00	2.984
266.37	3.048
266.73	2.699
267.09	2.721
267.46	2.750
267.82	2.446
268.18	2.521
268.54	2.781
268.91	2.874
269.27	2.899
269.63	2.969
270.00	2.865
270.36	2.629
270.72	2.957
271.08	2.734
271.45	2.668
271.81	2.764
272.17	2.668
272.53	2.660
272.90	2.773
273.26	2.922
273.62	2.566
273.98	2.500
274.35	2.512
274.71	2.273
275.07	2.315
275.43	2.462
275.80	2.565
276.16	2.410
276.52	2.185
276.88	2.219
277.25	1.923
277.61	1.930
277.97	1.980
278.33	2.259
278.69	2.158
279.06	2.325
279.42	2.302
279.78	2.302
280.14	2.492
280.50	2.655
280.87	2.561
281.23	2.678
281.59	2.966
281.95	3.160
282.31	3.324
282.68	3.411
283.04	3.233
283.40	3.161
283.76	3.189
284.12	3.340
284.48	3.329
284.85	3.393
285.21	3.386
285.57	3.129
285.93	3.009
286.29	2.763
286.65	2.805
287.02	3.206
287.38	3.330
287.74	3.436
288.10	3.298
288.46	3.355
288.82	3.355
289.18	3.404
289.54	3.531
289.91	3.586
290.27	3.722
290.63	3.756
290.99	3.523
291.35	3.619
291.71	3.512
292.07	3.396
292.43	3.416
292.79	3.383
293.16	3.383
293.52	3.579
293.88	3.711
294.24	3.886
294.60	3.768
294.96	3.815
295.32	3.783
295.68	3.789
296.04	3.785
296.40	3.700
296.76	3.797
297.12	3.780
297.49	3.620
297.85	3.482
298.21	3.383
298.57	3.379
298.93	3.317
299.29	3.117
299.65	3.195
300.01	3.311
300.37	3.482
300.73	3.471
301.09	3.536
301.45	3.701
301.81	3.866
302.17	3.941
302.53	3.928
302.89	3.884
303.25	3.963
303.61	3.901
303.97	3.771
304.33	3.772
304.69	3.765
305.05	3.855
305.41	3.754
305.77	3.642
306.13	3.426
306.49	3.451
306.85	3.474
307.21	3.522
307.57	3.570
307.93	3.723
308.29	3.809
308.65	3.751
309.01	3.610
309.37	3.675
309.73	3.632
310.09	3.862
310.45	4.010
310.81	4.135
311.17	4.122
311.53	4.088
311.89	4.283
312.25	4.174
312.61	4.225
312.96	4.393
313.32	4.449
313.68	4.436
314.04	4.250
314.40	4.250
314.76	4.078
315.12	4.001
315.48	4.036
315.84	3.877
316.20	3.994
316.56	3.988
316.92	3.930
317.27	3.870
317.63	4.075
317.99	4.139
318.35	4.075
318.71	4.266
319.07	4.375
319.43	4.408
319.79	4.471
320.15	4.432
320.50	4.544
320.86	4.594
321.22	4.599
321.58	4.476
321.94	4.384
322.30	4.357
322.66	4.166
323.01	4.097
323.37	4.060
323.73	4.001
324.09	3.919
324.45	3.899
324.81	3.841
325.17	3.881
325.52	3.892
325.88	3.917
326.24	3.970
326.60	4.153
326.96	4.172
327.31	4.224
327.67	4.152
328.03	4.225
328.39	4.194
328.75	4.256
329.11	4.263
329.46	4.315
329.82	4.344
330.18	4.277
330.54	4.201
330.90	4.267
331.25	4.295
331.61	4.449
331.97	4.465
332.33	4.534
332.68	4.564
333.04	4.639
333.40	4.599
333.76	4.656
334.11	4.704
334.47	4.718
334.83	4.704
335.19	4.665
335.54	4.669
335.90	4.718
336.26	4.691
336.62	4.628
336.97	4.479
337.33	4.474
337.69	4.448
338.05	4.401
338.40	4.411
338.76	4.415
339.12	4.502
339.48	4.433
339.83	4.377
340.19	4.406
340.55	4.526
340.90	4.592
341.26	4.576
341.62	4.534
341.97	4.538
342.33	4.610
342.69	4.622
343.04	4.594
343.40	4.554
343.76	4.517
344.12	4.501
344.47	4.473
344.83	4.494
345.19	4.614
345.54	4.676
345.90	4.804
346.26	4.767
346.61	4.780
346.97	4.814
347.32	4.819
347.68	4.836
348.04	4.858
348.39	4.834
348.75	4.842
349.11	4.796
349.46	4.792
349.82	4.727
350.18	4.681
350.53	4.726
350.89	4.657
351.24	4.679
351.60	4.769
351.96	4.822
352.31	4.820
352.67	4.871
353.02	4.845
353.38	4.856
353.74	4.904
354.09	4.934
354.45	5.010
354.80	5.073
355.16	5.166
355.52	5.133
355.87	5.045
356.23	5.081
356.58	5.072
356.94	5.167
357.29	5.224
357.65	5.177
358.00	5.266
358.36	5.275
358.72	5.251
359.07	5.255
359.43	5.279
359.78	5.373
360.14	5.383
360.49	5.366
360.85	5.368
361.20	5.294
361.56	5.355
361.91	5.349
362.27	5.303
362.62	5.324
362.98	5.317
363.33	5.318
363.69	5.314
364.04	5.366
364.40	5.387
364.75	5.423
365.11	5.482
365.46	5.467
365.82	5.526
366.17	5.552
366.53	5.615
366.88	5.620
367.24	5.619
367.59	5.608
367.95	5.602
368.30	5.591
368.66	5.549
369.01	5.579
369.37	5.646
369.72	5.680
370.08	5.713
370.43	5.762
370.78	5.786
371.14	5.817
371.49	5.876
371.85	5.841
372.20	5.893
372.56	5.917
372.91	5.915
373.26	5.948
373.62	5.855
373.97	5.887
374.33	5.832
374.68	5.829
375.03	5.925
375.39	5.876
375.74	5.901
376.10	5.965
376.45	6.039
376.80	6.084
377.16	6.055
377.51	6.106
377.87	6.113
378.22	6.103
378.57	6.193
378.93	6.192
379.28	6.239
379.63	6.288
379.99	6.304
380.34	6.292
380.70	6.331
381.05	6.394
381.40	6.418
381.76	6.447
382.11	6.527
382.46	6.518
382.82	6.530
383.17	6.599
383.52	6.610
383.88	6.617
384.23	6.629
384.58	6.617
384.94	6.589
385.29	6.666
385.64	6.663
385.99	6.672
386.35	6.709
386.70	6.671
387.05	6.650
387.41	6.700
387.76	6.710
388.11	6.716
388.47	6.702
388.82	6.728
389.17	6.714
389.52	6.776
389.88	6.809
390.23	6.777
390.58	6.829
390.93	6.837
391.29	6.832
391.64	6.880
391.99	6.952
392.34	7.015
392.70	7.046
393.05	7.020
393.40	7.035
393.75	7.011
394.11	7.044
394.46	7.023
394.81	7.054
395.16	7.020
395.52	7.003
395.87	6.952
396.22	6.953
396.57	6.926
396.92	6.924
397.28	6.875
397.63	6.881
397.98	6.891
398.33	6.916
398.68	6.906
399.04	6.960
399.39	6.969
399.74	6.986
400.09	6.973
400.44	6.996
400.80	7.008
401.15	7.011
401.50	7.004
401.85	7.004
402.20	7.014
402.55	7.032
402.90	6.998
403.26	6.983
403.61	6.961
403.96	6.968
404.31	6.985
404.66	6.993
405.01	6.990
405.36	7.052
405.72	7.052
406.07	7.071
406.42	7.062
406.77	7.088
407.12	7.122
407.47	7.206
407.82	7.210
408.17	7.211
408.53	7.241
408.88	7.285
409.23	7.252
409.58	7.247
409.93	7.258
410.28	7.262
410.63	7.254
410.98	7.228
411.33	7.211
411.68	7.226
412.03	7.283
412.38	7.302
412.73	7.316
413.09	7.346
413.44	7.395
413.79	7.407
414.14	7.450
414.49	7.499
414.84	7.532
415.19	7.542
415.54	7.593
415.89	7.574
416.24	7.589
416.59	7.617
416.94	7.649
417.29	7.684
417.64	7.688
417.99	7.728
418.34	7.751
418.69	7.786
419.04	7.800
419.39	7.800
419.74	7.830
420.09	7.868
420.44	7.880
420.79	7.902
421.14	7.912
421.49	7.962
421.84	7.962
422.19	7.990
422.54	7.986
422.89	8.005
423.24	8.037
423.59	8.057
423.94	8.053
424.29	8.079
424.64	8.083
424.99	8.098
425.34	8.070
425.68	8.076
426.03	8.054
426.38	8.067
426.73	8.070
427.08	8.054
427.43	8.064
427.78	8.069
428.13	8.061
428.48	8.079
428.83	8.076
429.18	8.102
429.53	8.099
429.87	8.119
430.22	8.126
430.57	8.150
430.92	8.167
431.27	8.189
431.62	8.180
431.97	8.198
432.32	8.212
432.67	8.210
433.01	8.209
433.36	8.216
433.71	8.216
434.06	8.226
434.41	8.233
434.76	8.257
435.11	8.264
435.45	8.303
435.80	8.317
436.15	8.317
436.50	8.343
436.85	8.389
437.20	8.422
437.54	8.446
437.89	8.483
438.24	8.506
438.59	8.526
438.94	8.521
439.29	8.523
439.63	8.545
439.98	8.578
440.33	8.587
440.68	8.587
441.03	8.612
441.37	8.650
441.72	8.657
442.07	8.675
442.42	8.699
442.76	8.739
443.11	8.783
443.46	8.815
443.81	8.850
444.16	8.896
444.50	8.924
444.85	8.945
445.20	8.959
445.55	8.991
445.89	9.015
446.24	9.037
446.59	9.042
446.94	9.049
447.28	9.049
447.63	9.046
447.98	9.050
448.32	9.053
448.67	9.057
449.02	9.066
449.37	9.071
449.71	9.090
450.06	9.100
450.41	9.137
450.75	9.160
451.10	9.185
451.45	9.185
451.79	9.202
452.14	9.230
452.49	9.247
452.84	9.272
453.18	9.290
453.53	9.273
453.88	9.279
454.22	9.286
454.57	9.288
454.92	9.310
455.26	9.358
455.61	9.404
455.95	9.448
456.30	9.489
456.65	9.518
456.99	9.550
457.34	9.615
457.69	9.640
458.03	9.664
458.38	9.703
458.73	9.723
459.07	9.732
459.42	9.731
459.76	9.717
460.11	9.708
460.46	9.697
460.80	9.705
461.15	9.703
461.49	9.705
461.84	9.731
462.19	9.729
462.53	9.732
462.88	9.741
463.22	9.744
463.57	9.780
463.91	9.809
464.26	9.836
464.61	9.844
464.95	9.837
465.30	9.846
465.64	9.859
465.99	9.899
466.33	9.927
466.68	9.948
467.02	9.976
467.37	9.976
467.71	9.976
468.06	9.977
468.41	9.975
468.75	9.996
469.10	10.010
469.44	9.995
469.79	9.993
470.13	9.987
470.48	9.997
470.82	9.993
471.17	10.014
471.51	10.015
471.86	10.029
472.20	10.060
472.55	10.081
472.89	10.115
473.23	10.118
473.58	10.118
473.92	10.127
474.27	10.124
474.61	10.127
474.96	10.107
475.30	10.145
475.65	10.156
475.99	10.165
476.34	10.188
476.68	10.186
477.02	10.222
477.37	10.233
477.71	10.291
478.06	10.337
478.40	10.433
478.75	10.559
479.09	10.695
479.43	10.868
479.78	11.086
480.12	11.309
480.47	11.569
480.81	11.808
481.15	12.064
481.50	12.301
481.84	12.601
482.19	12.878
482.53	13.140
482.87	13.310
483.22	13.349
483.56	13.244
483.90	13.063
484.25	12.825
484.59	12.567
484.94	12.331
485.28	12.127
485.62	11.873
485.97	11.617
486.31	11.370
486.65	11.213
487.00	11.164
487.34	11.209
487.68	11.299
488.03	11.412
488.37	11.543
488.71	11.630
489.06	11.657
489.40	11.665
489.74	11.660
490.09	11.673
490.43	11.663
490.77	11.644
491.11	11.632
491.46	11.618
491.80	11.592
492.14	11.580
492.49	11.564
492.83	11.540
493.17	11.519
493.51	11.504
493.86	11.475
494.20	11.466
494.54	11.487
494.88	11.519
495.23	11.568
495.57	11.618
495.91	11.649
496.25	11.677
496.60	11.707
496.94	11.732
497.28	11.782
497.62	11.824
497.97	11.850
498.31	11.870
498.65	11.883
498.99	11.896
499.33	11.939
499.68	11.984
500.02	12.029
500.36	12.082
500.70	12.126
501.04	12.147
501.39	12.193
501.73	12.243
502.07	12.292
502.41	12.330
502.75	12.390
503.09	12.423
503.44	12.463
503.78	12.497
504.12	12.537
504.46	12.598
504.80	12.679
505.14	12.738
505.49	12.783
505.83	12.837
506.17	12.903
506.51	12.947
506.85	13.013
507.19	13.078
507.53	13.133
507.87	13.208
508.22	13.256
508.56	13.296
508.90	13.336
509.24	13.392
509.58	13.470
509.92	13.543
510.26	13.610
510.60	13.659
510.94	13.712
511.28	13.767
511.63	13.802
511.97	13.861
512.31	13.916
512.65	13.983
512.99	14.064
513.33	14.166
513.67	14.254
514.01	14.368
514.35	14.459
514.69	14.564
515.03	14.684
515.37	14.780
515.71	14.879
516.05	14.970
516.39	15.053
516.73	15.134
517.07	15.184
517.41	15.226
517.75	15.252
518.09	15.319
518.43	15.349
518.77	15.362
519.11	15.389
519.45	15.417
519.79	15.465
520.13	15.510
520.47	15.557
520.81	15.601
521.15	15.672
521.49	15.759
521.83	15.824
522.17	15.919
522.51	16.045
522.85	16.176
523.19	16.338
523.53	16.549
523.87	16.757
524.21	16.986
524.55	17.196
524.89	17.389
525.23	17.577
525.57	17.756
525.91	17.924
526.25	18.068
526.58	18.233
526.92	18.345
527.26	18.399
527.60	18.428
527.94	18.438
528.28	18.447
528.62	18.449
528.96	18.434
529.30	18.413
529.64	18.387
529.97	18.351
530.31	18.285
530.65	18.255
530.99	18.262
531.33	18.293
531.67	18.332
532.01	18.355
532.35	18.373
532.68	18.411
533.02	18.415
533.36	18.426
533.70	18.448
534.04	18.467
534.38	18.476
534.71	18.478
535.05	18.497
535.39	18.500
535.73	18.504
536.07	18.546
536.41	18.560
536.74	18.639
537.08	18.706
537.42	18.821
537.76	18.919
538.10	19.030
538.43	19.139
538.77	19.240
539.11	19.342
539.45	19.439
539.79	19.519
540.12	19.596
540.46	19.638
540.80	19.683
541.14	19.666
541.47	19.657
541.81	19.649
542.15	19.638
542.49	19.609
542.82	19.568
543.16	19.539
543.50	19.506
543.84	19.491
544.17	19.486
544.51	19.470
544.85	19.493
545.18	19.522
545.52	19.524
545.86	19.541
546.20	19.568
546.53	19.598
546.87	19.613
547.21	19.612
547.54	19.609
547.88	19.599
548.22	19.606
548.55	19.576
548.89	19.597
549.23	19.633
549.56	19.607
549.90	19.624
550.24	19.656
550.57	19.686
550.91	19.722
551.25	19.754
551.58	19.794
551.92	19.810
552.26	19.853
552.59	19.884
552.93	19.895
553.27	19.976
553.60	20.019
553.94	20.037
554.27	20.063
554.61	20.111
554.95	20.135
555.28	20.176
555.62	20.216
555.95	20.278
556.29	20.286
556.63	20.330
556.96	20.337
557.30	20.345
557.63	20.357
557.97	20.380
558.31	20.381
558.64	20.395
558.98	20.411
559.31	20.462
559.65	20.450
559.98	20.464
560.32	20.464
560.65	20.488
560.99	20.514
561.33	20.532
561.66	20.527
562.00	20.548
562.33	20.575
562.67	20.596
563.00	20.600
563.34	20.650
563.67	20.650
564.01	20.675
564.34	20.679
564.68	20.687
565.01	20.717
565.35	20.737
565.68	20.748
566.02	20.745
566.35	20.745
566.69	20.739
567.02	20.725
567.36	20.731
567.69	20.740
568.03	20.749
568.36	20.753
568.69	20.735
569.03	20.761
569.36	20.776
569.70	20.776
570.03	20.813
570.37	20.836
570.70	20.872
571.04	20.894
571.37	20.903
571.70	20.934
572.04	20.946
572.37	20.959
572.71	20.954
573.04	20.967
573.37	21.001
573.71	20.995
574.04	20.993
574.38	20.980
574.71	21.004
575.04	20.990
575.38	20.968
575.71	20.968
576.05	20.990
576.38	21.000
576.71	20.982
577.05	20.983
577.38	20.964
577.71	20.962
578.05	20.948
578.38	20.928
578.71	20.940
579.05	20.940
579.38	20.931
579.71	20.906
580.05	20.877
580.38	20.878
580.71	20.859
581.05	20.891
581.38	20.886
581.71	20.908
582.05	20.919
582.38	20.932
582.71	20.937
583.04	20.990
583.38	21.004
583.71	21.030
584.04	21.067
584.38	21.108
584.71	21.088
585.04	21.131
585.37	21.146
585.71	21.171
586.04	21.172
586.37	21.190
586.70	21.180
587.04	21.211
587.37	21.236
587.70	21.235
588.03	21.255
588.37	21.262
588.70	21.254
589.03	21.235
589.36	21.230
589.69	21.239
590.03	21.234
590.36	21.212
590.69	21.190
591.02	21.198
591.35	21.185
591.69	21.162
592.02	21.197
592.35	21.217
592.68	21.266
593.01	21.277
593.35	21.295
593.68	21.313
594.01	21.298
594.34	21.310
594.67	21.296
595.00	21.320
595.34	21.334
595.67	21.321
596.00	21.310
596.33	21.276
596.66	21.270
596.99	21.209
597.32	21.191
597.65	21.222
597.99	21.230
598.32	21.210
598.65	21.153
598.98	21.119
599.31	21.092
599.64	21.069
599.97	21.077
600.30	21.087
600.63	21.139
600.96	21.169
601.30	21.178
601.63	21.180
601.96	21.208
602.29	21.237
602.62	21.244
602.95	21.277
603.28	21.301
603.61	21.294
603.94	21.277
604.27	21.275
604.60	21.231
604.93	21.226
605.26	21.228
605.59	21.226
605.92	21.250
606.25	21.266
606.58	21.271
606.91	21.266
607.24	21.305
607.57	21.304
607.90	21.325
608.23	21.345
608.56	21.328
608.89	21.298
609.22	21.277
609.55	21.241
609.88	21.234
610.21	21.193
610.54	21.158
610.87	21.113
611.20	21.093
611.53	21.062
611.86	21.049
612.19	21.045
612.52	21.042
612.85	21.060
613.18	21.061
613.51	21.012
613.84	21.008
614.17	21.013
614.49	21.048
614.82	21.040
615.15	21.014
615.48	21.049
615.81	21.031
616.14	21.044
616.47	21.012
616.80	21.011
617.13	21.033
617.46	21.028
617.78	21.061
618.11	20.980
618.44	21.009
618.77	21.016
619.10	20.988
619.43	21.001
619.76	20.988
620.09	21.013
620.41	21.057
620.74	21.092
621.07	21.118
621.40	21.128
621.73	21.215
622.06	21.252
622.38	21.268
622.71	21.310
623.04	21.373
623.37	21.413
623.70	21.465
624.02	21.458
624.35	21.521
624.68	21.587
625.01	21.600
625.34	21.643
625.66	21.666
625.99	21.743
626.32	21.745
626.65	21.737
626.98	21.792
627.30	21.809
627.63	21.818
627.96	21.767
628.29	21.741
628.61	21.764
628.94	21.742
629.27	21.737
629.60	21.714
629.92	21.716
630.25	21.712
630.58	21.658
630.91	21.656
631.23	21.666
631.56	21.725
631.89	21.713
632.21	21.714
632.54	21.732
632.87	21.715
633.19	21.678
633.52	21.714
633.85	21.733
634.18	21.741
634.50	21.691
634.83	21.690
635.16	21.637
635.48	21.626
635.81	21.562
636.14	21.500
636.46	21.469
636.79	21.432
637.11	21.333
637.44	21.256
637.77	21.201
638.09	21.165
638.42	21.095
638.75	21.024
639.07	20.988
639.40	20.953
639.73	20.860
640.05	20.838
640.38	20.795
640.70	20.763
641.03	20.742
641.36	20.727
641.68	20.728
642.01	20.684
642.33	20.616
642.66	20.579
642.98	20.537
643.31	20.542
643.64	20.508
643.96	20.498
644.29	20.464
644.61	20.427
644.94	20.372
645.26	20.283
645.59	20.305
645.91	20.319
646.24	20.283
646.56	20.230
646.89	20.201
647.22	20.164
647.54	20.156
647.87	20.158
648.19	20.143
648.52	20.106
648.84	20.104
649.17	20.067
649.49	20.069
649.82	20.085
650.14	20.133
650.47	20.080
650.79	20.081
651.11	20.036
651.44	20.031
651.76	20.022
652.09	20.044
652.41	20.091
652.74	20.109
653.06	20.140
653.39	20.155
653.71	20.164
654.04	20.215
654.36	20.229
654.68	20.235
655.01	20.266
655.33	20.256
655.66	20.287
655.98	20.255
656.30	20.224
656.63	20.182
656.95	20.127
657.28	20.124
657.60	20.119
657.92	20.097
658.25	20.069
658.57	20.005
658.90	19.955
659.22	19.887
659.54	19.850
659.87	19.787
660.19	19.689
660.51	19.648
660.84	19.573
661.16	19.492
661.48	19.431
661.81	19.387
662.13	19.348
662.45	19.377
662.78	19.348
663.10	19.324
663.42	19.317
663.75	19.298
664.07	19.238
664.39	19.185
664.72	19.213
665.04	19.198
665.36	19.250
665.69	19.237
666.01	19.235
666.33	19.247
666.65	19.243
666.98	19.278
667.30	19.431
667.62	19.500
667.94	19.538
668.27	19.523
668.59	19.572
668.91	19.570
669.23	19.639
669.56	19.674
669.88	19.756
670.20	19.820
670.52	19.878
670.85	19.828
671.17	19.913
671.49	19.961
671.81	20.055
672.13	20.126
672.46	20.206
672.78	20.249
673.10	20.295
673.42	20.369
673.74	20.445
674.07	20.524
674.39	20.685
674.71	20.724
675.03	20.914
675.35	20.991
675.67	21.069
676.00	21.191
676.32	21.319
676.64	21.404
676.96	21.493
677.28	21.599
677.60	21.648
677.92	21.782
678.25	21.916
678.57	22.021
678.89	22.170
679.21	22.268
679.53	22.393
679.85	22.478
680.17	22.636
680.49	22.761
680.81	22.912
681.13	23.150
681.46	23.225
681.78	23.439
682.10	23.544
682.42	23.710
682.74	23.994
683.06	24.213
683.38	24.473
683.70	24.741
684.02	24.949
684.34	25.246
684.66	25.369
684.98	25.644
685.30	25.865
685.62	26.130
685.94	26.369
686.26	26.545
686.58	26.732
686.90	26.915
687.22	27.104
687.54	27.303
687.86	27.392
688.18	27.633
688.50	27.833
688.82	27.950
689.14	28.140
689.46	28.330
689.78	28.454
690.10	28.618
690.42	28.779
690.74	28.882
691.06	29.116
691.38	29.325
691.70	29.559
692.02	29.678
692.34	29.930
692.66	30.007
692.98	30.203
693.30	30.441
693.62	30.626
693.94	30.818
694.26	31.046
694.57	31.229
694.89	31.415
695.21	31.609
695.53	31.802
695.85	31.894
696.17	32.105
696.49	32.242
696.81	32.386
697.13	32.569
697.44	32.729
697.76	32.886
698.08	33.041
698.40	33.237
698.72	33.318
699.04	33.498
699.36	33.731
699.67	33.868
699.99	33.964
700.31	34.095
700.63	34.221
700.95	34.405
701.27	34.584
701.58	34.737
701.90	34.808
702.22	34.996
702.54	35.114
702.86	35.237
703.17	35.427
703.49	35.602
703.81	35.844
704.13	36.072
704.45	36.187
704.76	36.328
705.08	36.491
705.40	36.622
705.72	36.838
706.03	37.041
706.35	37.139
706.67	37.223
706.99	37.426
707.30	37.596
707.62	37.679
707.94	37.837
708.26	38.041
708.57	38.136
708.89	38.300
709.21	38.462
709.53	38.596
709.84	38.794
710.16	39.063
710.48	39.301
710.79	39.402
711.11	39.609
711.43	39.768
711.74	39.893
712.06	40.075
712.38	40.259
712.69	40.302
713.01	40.412
713.33	40.679
713.64	40.839
713.96	40.969
714.28	41.184
714.59	41.369
714.91	41.613
715.23	41.792
715.54	41.932
715.86	42.174
716.17	42.444
716.49	42.718
716.81	42.765
717.12	42.910
717.44	43.107
717.76	43.256
718.07	43.337
718.39	43.384
718.70	43.497
719.02	43.624
719.33	43.626
719.65	43.680
719.97	43.635
720.28	43.801
720.60	43.966
720.91	43.993
721.23	44.098
721.54	44.313
721.86	44.449
722.17	44.570
722.49	44.718
722.81	44.822
723.12	45.056
723.44	45.299
723.75	45.502
724.07	45.693
724.38	45.922
724.70	45.936
725.01	45.944
725.33	46.127
725.64	46.195
725.96	46.326
726.27	46.346
726.59	46.528
726.90	46.577
727.22	46.444
727.53	46.402
727.84	46.388
728.16	46.496
728.47	46.584
728.79	46.613
729.10	46.672
729.42	46.634
729.73	46.871
730.05	46.861
730.36	46.966
730.67	47.162
730.99	47.249
731.30	47.415
731.62	47.603
731.93	47.666
732.24	47.881
732.56	47.943
732.87	48.235
733.19	48.360
733.50	48.260
733.81	48.214
734.13	48.360
734.44	48.392
734.76	48.303
735.07	48.320
735.38	48.409
735.70	48.361
736.01	48.638
736.32	48.524
736.64	48.579
736.95	48.646
737.26	48.882
737.58	48.854
737.89	48.893
738.20	49.050
738.52	49.218
738.83	49.233
739.14	49.370
739.45	49.280
739.77	49.459
740.08	49.563
740.39	49.758
740.71	49.774
741.02	49.818
741.33	50.030
741.64	50.025
741.96	50.040
742.27	50.063
742.58	50.029
742.90	50.139
743.21	50.091
743.52	50.073
743.83	50.181
744.14	50.110
744.46	50.250
744.77	50.404
745.08	50.417
745.39	50.412
745.71	50.533
746.02	50.473
746.33	50.671
746.64	50.695
746.95	50.732
747.27	50.849
747.58	51.005
747.89	51.044
748.20	50.965
748.51	51.309
748.82	51.351
749.14	51.526
749.45	51.707
749.76	51.727
750.07	51.968
750.38	52.034
750.69	52.046
751.01	52.032
751.32	51.990
751.63	52.168
751.94	52.047
752.25	52.099
752.56	51.964
752.87	52.029
753.18	51.976
753.49	51.959
753.81	52.089
754.12	52.044
754.43	52.144
754.74	52.285
755.05	52.280
755.36	52.509
755.67	52.687
755.98	53.032
756.29	53.216
756.60	53.485
756.91	53.540
757.22	53.532
757.53	53.826
757.84	54.179
758.15	54.445
758.46	54.699
758.77	54.757
759.09	54.852
759.40	54.909
759.71	54.963
760.02	54.972
760.33	55.045
760.64	55.089
760.95	55.158
761.26	55.127
761.57	55.029
761.88	54.900
762.18	54.867
762.49	54.860
762.80	54.902
763.11	54.947
763.42	54.838
763.73	54.907
764.04	55.032
764.35	55.043
764.66	54.920
764.97	54.894
765.28	55.055
765.59	55.011
765.90	54.982
766.21	54.666
766.52	54.373
766.83	54.339
767.14	54.253
767.44	54.043
767.75	53.725
768.06	53.822
768.37	53.576
768.68	53.406
768.99	53.431
769.30	53.299
769.61	53.445
769.91	53.462
770.22	53.150
770.53	53.120
770.84	53.158
771.15	53.046
771.46	52.751
771.77	53.000
772.07	52.831
772.38	52.768
772.69	52.812
773.00	52.985
773.31	53.324
773.61	53.705
773.92	53.658
774.23	53.539
774.54	53.672
774.85	53.609
775.15	53.603
775.46	53.626
775.77	53.573
776.08	53.606
776.39	53.266
776.69	53.255
777.00	53.389
777.31	53.614
777.62	53.699
777.92	53.650
778.23	54.176
778.54	54.064
778.85	54.105
779.15	54.016
779.46	54.020
779.77	54.370
780.07	54.363
780.38	54.290
780.69	54.049
781.00	54.218
781.30	54.268
781.61	53.898
781.92	54.146
782.22	54.401
782.53	54.592
782.84	54.721
783.14	54.646
783.45	54.526
783.76	54.721
784.06	55.039
784.37	54.691
784.68	55.031
784.98	55.549
785.29	55.542
785.60	55.643
785.90	55.942
786.21	56.167
786.51	56.220
786.82	56.560
787.13	56.726
787.43	56.622
787.74	57.216
788.04	57.268
788.35	56.942
788.66	57.118
788.96	57.267
789.27	57.054
789.57	56.622
789.88	56.984
790.19	56.928
790.49	56.834
790.80	56.688
791.10	56.559
791.41	56.471
791.71	56.568
792.02	56.596
792.32	56.363
792.63	56.619
792.93	57.021
793.24	56.916
793.54	56.901
793.85	56.921
794.15	57.142
794.46	57.348
794.76	57.442
795.07	57.719
795.37	57.681
795.68	57.319
795.98	57.341
796.29	57.583
796.59	57.278
796.90	57.463
797.20	57.593
797.51	57.576
797.81	57.328
798.12	57.363
798.42	57.536
798.72	57.821
799.03	58.486
799.33	58.470
799.64	58.474
799.94	58.946
800.25	58.824
800.55	58.718
800.85	59.008
801.16	59.390
801.46	59.215
801.77	59.048
802.07	58.937
802.37	58.812
802.68	58.854
802.98	58.705
803.28	58.258
803.59	58.244
803.89	58.706
804.20	58.924
804.50	58.655
804.80	59.060
805.11	58.969
805.41	59.032
805.71	59.236
806.02	59.641
806.32	59.382
806.62	59.464
806.93	59.742
807.23	59.577
807.53	59.374
807.83	59.398
808.14	59.595
808.44	59.852
808.74	60.113
809.05	60.175
809.35	59.568
809.65	60.339
809.95	60.664
810.26	60.371
810.56	60.281
810.86	60.750
811.16	61.140
811.47	61.346
811.77	61.727
812.07	61.718
812.37	61.458
812.68	61.876
812.98	61.393
813.28	61.892
813.58	62.751
813.88	62.909
814.19	63.432
814.49	63.045
814.79	63.261
815.09	63.270
815.39	63.107
815.70	63.624
816.00	63.567
816.30	63.869
816.60	63.963
816.90	63.319
817.20	63.220
817.50	62.472
817.81	62.014
818.11	61.683
818.41	61.618
818.71	61.691
819.01	61.906
819.31	62.282
819.61	62.524
819.92	62.720
820.22	63.086
820.52	63.332
820.82	63.650
821.12	64.156
821.42	64.568
821.72	64.818
822.02	65.243
822.32	65.586
822.62	65.866
822.92	66.098
823.22	66.467
823.52	66.688
823.83	66.854
824.13	67.034
824.43	67.009
824.73	66.932
825.03	66.996
825.33	66.991
825.63	66.966
825.93	66.820
826.23	66.729
826.53	66.417
826.83	66.383
827.13	66.668
827.43	66.719
827.73	67.082
828.03	67.330
828.33	67.753
828.63	67.726
828.93	67.536
829.23	67.643
829.53	67.687
829.83	67.559
830.13	67.297
830.42	66.740
830.72	66.363
831.02	65.861
831.32	65.648
831.62	65.466
831.92	65.303
832.22	65.344
832.52	65.245
832.82	65.319
833.12	65.335
833.42	65.325
833.72	65.446
834.01	65.978
834.31	66.421
834.61	66.744
834.91	67.045
835.21	67.351
835.51	67.664
835.81	67.896
836.11	68.504
836.40	68.839
836.70	69.591
837.00	69.748
837.30	69.087
837.60	68.397
837.90	68.207
838.19	67.519
838.49	67.722
838.79	67.558
839.09	67.751
839.39	67.112
839.68	67.882
839.98	67.285
840.28	66.918
840.58	67.408
840.88	68.772
841.17	68.626
841.47	69.033
841.77	68.893
842.07	69.146
842.36	69.294
842.66	69.437
842.96	68.419
843.26	68.601
843.55	69.611
843.85	69.455
844.15	68.069
844.45	68.049
844.74	68.153
845.04	68.149
845.34	68.897
845.63	69.249
845.93	69.639
846.23	71.093
846.53	70.287
846.82	69.633
847.12	70.189
847.42	69.573
847.71	69.393
848.01	69.367
848.31	69.248
848.60	67.784
848.90	65.596
849.19	65.308
849.49	64.619
849.79	64.109
850.08	64.922
850.38	63.413
850.68	64.089
850.97	66.510
851.27	66.490
851.56	65.939
851.86	65.421
852.16	66.635
852.45	65.731
852.75	65.092
853.04	68.218
853.34	67.029
853.64	67.012
853.93	65.582
854.23	62.811
854.52	63.404
854.82	64.229
855.11	64.375
855.41	66.665
855.70	69.381
856.00	69.465
856.30	68.244
856.59	69.463
856.89	70.879
857.18	72.661
857.48	73.169
857.77	70.950
858.07	71.122
858.36	69.627
858.66	67.106
858.95	64.883
859.25	65.479
859.54	65.259
859.84	64.466
860.13	62.207
860.42	60.740
860.72	60.852
861.01	64.010
861.31	64.516
861.60	67.024
861.90	68.118
862.19	69.871
862.49	68.342
862.78	67.056
863.07	66.639
863.37	68.541
863.66	68.381
863.96	69.331
864.25	68.717
864.54	68.268
864.84	67.369
865.13	67.153
865.43	66.742
865.72	80.285
866.01	74.749
866.31	64.139
866.60	68.384
866.89	72.491
>>>>>End Spectral Data<<<<<
