OOIBase32 Version 2.0.0.6 Data File
++++++++++++++++++++++++++++++++++++
Date: 01-23-2012, 23:24:35
User: Valued Ocean Optics Customer
Spectrometer Serial Number: USB2E2917
Spectrometer Channel: Master
Integration Time (msec): 5
Spectra Averaged: 10
Boxcar Smoothing: 5
Correct for Electrical Dark: Enabled
Time Normalized: Disabled
Dual-beam Reference: Disabled
Reference Channel: Master
Temperature: Not acquired
Spectrometer Type: S2000
ADC Type: USB2000
Number of Pixels in File: 2048
Graph Title: 
>>>>>Begin Spectral Data<<<<<
180.30	0.000
180.67	0.000
181.03	-7.907
181.40	789.112
181.77	12464.526
182.14	111.290
182.51	-1391.264
182.88	41.659
183.25	66.423
183.62	29.370
183.99	-49.766
184.36	32.165
184.73	91.311
185.10	55.014
185.46	29.545
185.83	-259.716
186.20	-159.805
186.57	140.716
186.94	74.118
187.31	37.110
187.68	30.980
188.05	37.382
188.42	41.865
188.78	39.787
189.15	114.386
189.52	-34.230
189.89	-16.291
190.26	19.354
190.63	23.817
191.00	40.973
191.37	30.076
191.73	34.448
192.10	31.402
192.47	24.171
192.84	15.294
193.21	8.129
193.58	6.565
193.94	9.804
194.31	-7.264
194.68	-13.951
195.05	-33.888
195.42	-31.190
195.79	-40.800
196.15	-44.814
196.52	-47.235
196.89	-47.273
197.26	-38.345
197.63	-14.052
198.00	5.265
198.36	9.339
198.73	1.223
199.10	21.605
199.47	15.209
199.84	23.486
200.20	8.725
200.57	22.449
200.94	22.337
201.31	28.924
201.68	11.882
202.04	-4.490
202.41	-1.648
202.78	-2.381
203.15	-20.538
203.51	-10.073
203.88	-9.117
204.25	-1.668
204.62	-0.119
204.98	-4.162
205.35	-20.966
205.72	-10.081
206.09	-11.119
206.46	-45.774
206.82	-51.443
207.19	-38.077
207.56	-100.304
207.92	-106.816
208.29	-101.713
208.66	-61.946
209.03	-59.759
209.39	-26.407
209.76	-18.295
210.13	-31.753
210.50	-19.927
210.86	1.278
211.23	7.839
211.60	14.454
211.96	23.136
212.33	33.135
212.70	24.722
213.07	20.672
213.43	-8.086
213.80	-5.993
214.17	12.248
214.53	25.842
214.90	16.992
215.27	28.628
215.63	33.669
216.00	38.791
216.37	27.538
216.74	9.596
217.10	10.586
217.47	14.170
217.84	8.289
218.20	3.154
218.57	-3.352
218.94	5.276
219.30	-10.531
219.67	-10.875
220.04	-12.306
220.40	-9.241
220.77	-11.196
221.13	-6.114
221.50	-3.142
221.87	-2.063
222.23	-9.164
222.60	-12.037
222.97	-16.885
223.33	-14.785
223.70	-14.677
224.07	-17.963
224.43	-19.601
224.80	-12.964
225.16	-13.203
225.53	-12.469
225.90	-13.716
226.26	-8.469
226.63	-5.852
226.99	-3.891
227.36	-1.789
227.73	0.441
228.09	0.980
228.46	3.213
228.82	3.743
229.19	3.267
229.56	2.083
229.92	5.025
230.29	4.439
230.65	4.563
231.02	2.210
231.38	-0.853
231.75	-1.844
232.12	-1.998
232.48	-4.148
232.85	-3.681
233.21	-2.152
233.58	-2.187
233.94	-2.660
234.31	-4.723
234.68	-5.213
235.04	-4.328
235.41	-1.992
235.77	-1.260
236.14	0.637
236.50	2.267
236.87	1.861
237.23	2.065
237.60	1.952
237.96	1.480
238.33	1.717
238.69	1.968
239.06	2.266
239.42	2.013
239.79	1.592
240.15	0.831
240.52	0.839
240.88	1.212
241.25	1.312
241.61	1.882
241.98	1.779
242.34	1.857
242.71	1.767
243.07	1.836
243.44	1.708
243.80	1.762
244.17	2.145
244.53	1.913
244.90	1.792
245.26	1.563
245.63	1.410
245.99	1.235
246.36	1.356
246.72	1.637
247.09	1.304
247.45	1.533
247.81	1.701
248.18	1.497
248.54	1.623
248.91	1.459
249.27	1.739
249.64	2.027
250.00	2.431
250.36	2.255
250.73	1.749
251.09	2.134
251.46	1.963
251.82	1.717
252.19	1.641
252.55	1.255
252.91	1.241
253.28	0.873
253.64	0.260
254.01	0.497
254.37	1.052
254.73	1.453
255.10	1.682
255.46	1.870
255.83	2.064
256.19	2.223
256.55	2.265
256.92	2.504
257.28	2.591
257.65	3.023
258.01	2.959
258.37	2.746
258.74	2.538
259.10	2.394
259.46	2.216
259.83	2.101
260.19	1.971
260.55	1.967
260.92	1.754
261.28	1.775
261.64	1.582
262.01	1.463
262.37	1.542
262.73	1.554
263.10	1.659
263.46	1.686
263.82	1.759
264.19	1.755
264.55	1.428
264.91	1.405
265.28	1.309
265.64	1.113
266.00	1.116
266.37	1.256
266.73	1.400
267.09	1.424
267.46	1.478
267.82	1.534
268.18	1.735
268.54	2.122
268.91	2.129
269.27	2.091
269.63	2.341
270.00	2.435
270.36	2.374
270.72	2.433
271.08	2.301
271.45	2.323
271.81	2.127
272.17	2.149
272.53	1.942
272.90	1.975
273.26	2.093
273.62	1.983
273.98	1.685
274.35	1.541
274.71	1.386
275.07	1.596
275.43	1.730
275.80	1.931
276.16	1.755
276.52	1.877
276.88	1.878
277.25	1.655
277.61	1.481
277.97	1.696
278.33	1.995
278.69	1.917
279.06	1.761
279.42	1.791
279.78	1.749
280.14	1.972
280.50	2.034
280.87	2.049
281.23	2.175
281.59	2.397
281.95	2.343
282.31	2.312
282.68	2.275
283.04	2.174
283.40	2.155
283.76	2.175
284.12	2.192
284.48	2.253
284.85	2.291
285.21	2.299
285.57	2.109
285.93	2.116
286.29	1.877
286.65	2.096
287.02	2.463
287.38	2.365
287.74	2.250
288.10	2.188
288.46	2.046
288.82	2.019
289.18	1.994
289.54	2.101
289.91	2.187
290.27	2.445
290.63	2.393
290.99	2.334
291.35	2.417
291.71	2.519
292.07	2.303
292.43	2.383
292.79	2.362
293.16	2.368
293.52	2.399
293.88	2.486
294.24	2.486
294.60	2.439
294.96	2.146
295.32	2.139
295.68	2.123
296.04	2.221
296.40	2.263
296.76	2.276
297.12	2.278
297.49	2.107
297.85	1.899
298.21	1.723
298.57	1.683
298.93	1.981
299.29	1.933
299.65	2.015
300.01	1.983
300.37	1.912
300.73	2.006
301.09	2.010
301.45	2.086
301.81	2.162
302.17	2.191
302.53	2.109
302.89	1.947
303.25	2.009
303.61	1.890
303.97	1.875
304.33	1.933
304.69	1.994
305.05	1.834
305.41	1.844
305.77	1.848
306.13	1.826
306.49	1.772
306.85	1.817
307.21	1.805
307.57	1.857
307.93	1.956
308.29	2.054
308.65	2.004
309.01	2.103
309.37	2.140
309.73	2.179
310.09	2.323
310.45	2.528
310.81	2.618
311.17	2.671
311.53	2.754
311.89	2.854
312.25	2.838
312.61	2.873
312.96	2.994
313.32	3.051
313.68	2.999
314.04	2.939
314.40	2.934
314.76	2.851
315.12	2.682
315.48	2.590
315.84	2.404
316.20	2.317
316.56	2.201
316.92	2.001
317.27	1.949
317.63	1.959
317.99	1.921
318.35	1.785
318.71	1.706
319.07	1.891
319.43	1.823
319.79	1.886
320.15	1.864
320.50	1.951
320.86	2.101
321.22	2.062
321.58	2.049
321.94	2.023
322.30	2.054
322.66	2.128
323.01	1.902
323.37	2.006
323.73	1.990
324.09	1.903
324.45	1.894
324.81	1.764
325.17	1.769
325.52	1.704
325.88	1.681
326.24	1.726
326.60	1.608
326.96	1.738
327.31	1.647
327.67	1.576
328.03	1.607
328.39	1.543
328.75	1.623
329.11	1.826
329.46	1.956
329.82	2.027
330.18	1.963
330.54	1.965
330.90	1.957
331.25	2.022
331.61	2.164
331.97	2.213
332.33	2.205
332.68	2.265
333.04	2.194
333.40	2.102
333.76	1.962
334.11	1.966
334.47	2.076
334.83	2.056
335.19	2.027
335.54	1.924
335.90	1.905
336.26	1.910
336.62	1.764
336.97	1.626
337.33	1.579
337.69	1.631
338.05	1.569
338.40	1.500
338.76	1.521
339.12	1.605
339.48	1.566
339.83	1.540
340.19	1.513
340.55	1.607
340.90	1.634
341.26	1.683
341.62	1.707
341.97	1.816
342.33	1.891
342.69	1.889
343.04	1.815
343.40	1.830
343.76	1.794
344.12	1.836
344.47	1.827
344.83	1.894
345.19	1.889
345.54	1.951
345.90	1.928
346.26	1.921
346.61	1.918
346.97	1.906
347.32	1.893
347.68	1.915
348.04	1.848
348.39	1.800
348.75	1.699
349.11	1.711
349.46	1.623
349.82	1.694
350.18	1.701
350.53	1.708
350.89	1.676
351.24	1.691
351.60	1.766
351.96	1.866
352.31	1.897
352.67	1.975
353.02	1.997
353.38	2.038
353.74	1.986
354.09	1.954
354.45	1.930
354.80	1.993
355.16	2.030
355.52	2.016
355.87	1.926
356.23	1.925
356.58	1.901
356.94	1.887
357.29	1.890
357.65	1.865
358.00	1.855
358.36	1.886
358.72	1.884
359.07	1.883
359.43	1.877
359.78	1.950
360.14	1.967
360.49	1.946
360.85	1.959
361.20	1.944
361.56	1.925
361.91	1.940
362.27	1.911
362.62	1.935
362.98	1.985
363.33	1.986
363.69	1.951
364.04	2.021
364.40	2.020
364.75	2.044
365.11	2.072
365.46	2.061
365.82	2.074
366.17	2.093
366.53	2.066
366.88	1.996
367.24	2.021
367.59	2.019
367.95	1.969
368.30	1.999
368.66	1.993
369.01	1.956
369.37	2.052
369.72	2.045
370.08	2.122
370.43	2.173
370.78	2.184
371.14	2.130
371.49	2.178
371.85	2.195
372.20	2.191
372.56	2.164
372.91	2.188
373.26	2.157
373.62	2.174
373.97	2.130
374.33	2.098
374.68	2.139
375.03	2.181
375.39	2.151
375.74	2.097
376.10	2.102
376.45	2.139
376.80	2.165
377.16	2.140
377.51	2.152
377.87	2.195
378.22	2.175
378.57	2.174
378.93	2.200
379.28	2.280
379.63	2.315
379.99	2.390
380.34	2.417
380.70	2.433
381.05	2.470
381.40	2.478
381.76	2.474
382.11	2.500
382.46	2.544
382.82	2.529
383.17	2.460
383.52	2.481
383.88	2.403
384.23	2.379
384.58	2.366
384.94	2.353
385.29	2.356
385.64	2.357
385.99	2.368
386.35	2.363
386.70	2.390
387.05	2.392
387.41	2.387
387.76	2.409
388.11	2.414
388.47	2.410
388.82	2.422
389.17	2.414
389.52	2.414
389.88	2.458
390.23	2.437
390.58	2.448
390.93	2.474
391.29	2.491
391.64	2.529
391.99	2.574
392.34	2.617
392.70	2.631
393.05	2.628
393.40	2.635
393.75	2.612
394.11	2.624
394.46	2.589
394.81	2.563
395.16	2.530
395.52	2.497
395.87	2.459
396.22	2.462
396.57	2.436
396.92	2.439
397.28	2.422
397.63	2.401
397.98	2.383
398.33	2.394
398.68	2.413
399.04	2.436
399.39	2.429
399.74	2.431
400.09	2.415
400.44	2.422
400.80	2.440
401.15	2.451
401.50	2.482
401.85	2.511
402.20	2.530
402.55	2.548
402.90	2.533
403.26	2.541
403.61	2.535
403.96	2.522
404.31	2.539
404.66	2.548
405.01	2.538
405.36	2.527
405.72	2.487
406.07	2.450
406.42	2.442
406.77	2.480
407.12	2.460
407.47	2.494
407.82	2.509
408.17	2.511
408.53	2.515
408.88	2.502
409.23	2.499
409.58	2.511
409.93	2.557
410.28	2.575
410.63	2.537
410.98	2.559
411.33	2.554
411.68	2.575
412.03	2.618
412.38	2.604
412.73	2.654
413.09	2.671
413.44	2.716
413.79	2.719
414.14	2.756
414.49	2.804
414.84	2.859
415.19	2.867
415.54	2.891
415.89	2.903
416.24	2.943
416.59	2.958
416.94	2.981
417.29	3.013
417.64	3.022
417.99	3.026
418.34	3.057
418.69	3.071
419.04	3.089
419.39	3.098
419.74	3.109
420.09	3.128
420.44	3.148
420.79	3.168
421.14	3.176
421.49	3.209
421.84	3.214
422.19	3.222
422.54	3.220
422.89	3.224
423.24	3.236
423.59	3.237
423.94	3.227
424.29	3.228
424.64	3.227
424.99	3.217
425.34	3.186
425.68	3.201
426.03	3.163
426.38	3.158
426.73	3.164
427.08	3.151
427.43	3.152
427.78	3.165
428.13	3.155
428.48	3.153
428.83	3.144
429.18	3.171
429.53	3.175
429.87	3.191
430.22	3.196
430.57	3.223
430.92	3.226
431.27	3.227
431.62	3.209
431.97	3.224
432.32	3.220
432.67	3.234
433.01	3.223
433.36	3.195
433.71	3.189
434.06	3.189
434.41	3.166
434.76	3.180
435.11	3.186
435.45	3.219
435.80	3.226
436.15	3.243
436.50	3.269
436.85	3.298
437.20	3.326
437.54	3.341
437.89	3.356
438.24	3.370
438.59	3.384
438.94	3.398
439.29	3.380
439.63	3.390
439.98	3.398
440.33	3.399
440.68	3.403
441.03	3.422
441.37	3.439
441.72	3.445
442.07	3.466
442.42	3.472
442.76	3.494
443.11	3.532
443.46	3.551
443.81	3.569
444.16	3.575
444.50	3.573
444.85	3.569
445.20	3.579
445.55	3.590
445.89	3.589
446.24	3.592
446.59	3.567
446.94	3.551
447.28	3.533
447.63	3.518
447.98	3.524
448.32	3.530
448.67	3.536
449.02	3.524
449.37	3.502
449.71	3.502
450.06	3.491
450.41	3.508
450.75	3.514
451.10	3.530
451.45	3.527
451.79	3.505
452.14	3.505
452.49	3.493
452.84	3.500
453.18	3.510
453.53	3.505
453.88	3.508
454.22	3.515
454.57	3.543
454.92	3.569
455.26	3.611
455.61	3.662
455.95	3.693
456.30	3.719
456.65	3.765
456.99	3.808
457.34	3.833
457.69	3.864
458.03	3.875
458.38	3.887
458.73	3.879
459.07	3.869
459.42	3.839
459.76	3.823
460.11	3.819
460.46	3.783
460.80	3.747
461.15	3.750
461.49	3.728
461.84	3.733
462.19	3.715
462.53	3.722
462.88	3.741
463.22	3.746
463.57	3.764
463.91	3.763
464.26	3.800
464.61	3.821
464.95	3.806
465.30	3.829
465.64	3.850
465.99	3.872
466.33	3.889
466.68	3.889
467.02	3.910
467.37	3.897
467.71	3.915
468.06	3.897
468.41	3.898
468.75	3.905
469.10	3.911
469.44	3.889
469.79	3.870
470.13	3.834
470.48	3.819
470.82	3.829
471.17	3.856
471.51	3.849
471.86	3.847
472.20	3.846
472.55	3.853
472.89	3.839
473.23	3.839
473.58	3.853
473.92	3.874
474.27	3.886
474.61	3.880
474.96	3.883
475.30	3.895
475.65	3.900
475.99	3.898
476.34	3.909
476.68	3.914
477.02	3.943
477.37	3.961
477.71	4.005
478.06	4.055
478.40	4.124
478.75	4.207
479.09	4.314
479.43	4.434
479.78	4.580
480.12	4.716
480.47	4.854
480.81	4.981
481.15	5.100
481.50	5.216
481.84	5.357
482.19	5.494
482.53	5.615
482.87	5.692
483.22	5.708
483.56	5.663
483.90	5.577
484.25	5.473
484.59	5.348
484.94	5.240
485.28	5.146
485.62	5.026
485.97	4.897
486.31	4.792
486.65	4.710
487.00	4.679
487.34	4.692
487.68	4.721
488.03	4.754
488.37	4.808
488.71	4.842
489.06	4.841
489.40	4.839
489.74	4.832
490.09	4.813
490.43	4.807
490.77	4.781
491.11	4.746
491.46	4.735
491.80	4.720
492.14	4.685
492.49	4.663
492.83	4.637
493.17	4.606
493.51	4.576
493.86	4.555
494.20	4.532
494.54	4.531
494.88	4.538
495.23	4.534
495.57	4.551
495.91	4.600
496.25	4.616
496.60	4.646
496.94	4.647
497.28	4.665
497.62	4.684
497.97	4.693
498.31	4.719
498.65	4.740
498.99	4.743
499.33	4.767
499.68	4.760
500.02	4.793
500.36	4.796
500.70	4.820
501.04	4.832
501.39	4.829
501.73	4.851
502.07	4.879
502.41	4.890
502.75	4.935
503.09	4.946
503.44	4.978
503.78	4.976
504.12	5.000
504.46	5.047
504.80	5.096
505.14	5.144
505.49	5.171
505.83	5.187
506.17	5.228
506.51	5.250
506.85	5.289
507.19	5.302
507.53	5.332
507.87	5.360
508.22	5.373
508.56	5.384
508.90	5.389
509.24	5.407
509.58	5.426
509.92	5.433
510.26	5.448
510.60	5.469
510.94	5.496
511.28	5.500
511.63	5.530
511.97	5.559
512.31	5.588
512.65	5.615
512.99	5.647
513.33	5.705
513.67	5.756
514.01	5.817
514.35	5.853
514.69	5.916
515.03	5.983
515.37	6.029
515.71	6.089
516.05	6.140
516.39	6.187
516.73	6.241
517.07	6.266
517.41	6.280
517.75	6.299
518.09	6.324
518.43	6.321
518.77	6.311
519.11	6.315
519.45	6.292
519.79	6.303
520.13	6.305
520.47	6.319
520.81	6.334
521.15	6.393
521.49	6.430
521.83	6.480
522.17	6.527
522.51	6.620
522.85	6.695
523.19	6.815
523.53	6.927
523.87	7.064
524.21	7.192
524.55	7.323
524.89	7.429
525.23	7.533
525.57	7.622
525.91	7.725
526.25	7.792
526.58	7.868
526.92	7.927
527.26	7.969
527.60	7.989
527.94	7.998
528.28	7.986
528.62	7.971
528.96	7.965
529.30	7.958
529.64	7.939
529.97	7.933
530.31	7.912
530.65	7.892
530.99	7.883
531.33	7.890
531.67	7.887
532.01	7.909
532.35	7.934
532.68	7.938
533.02	7.937
533.36	7.937
533.70	7.941
534.04	7.945
534.38	7.942
534.71	7.936
535.05	7.931
535.39	7.947
535.73	7.959
536.07	7.975
536.41	8.021
536.74	8.073
537.08	8.127
537.42	8.190
537.76	8.253
538.10	8.322
538.43	8.398
538.77	8.456
539.11	8.519
539.45	8.578
539.79	8.629
540.12	8.670
540.46	8.692
540.80	8.706
541.14	8.703
541.47	8.697
541.81	8.691
542.15	8.680
542.49	8.677
542.82	8.660
543.16	8.636
543.50	8.622
543.84	8.591
544.17	8.580
544.51	8.585
544.85	8.588
545.18	8.607
545.52	8.615
545.86	8.620
546.20	8.623
546.53	8.618
546.87	8.611
547.21	8.590
547.54	8.593
547.88	8.611
548.22	8.616
548.55	8.621
548.89	8.620
549.23	8.647
549.56	8.673
549.90	8.716
550.24	8.743
550.57	8.781
550.91	8.819
551.25	8.862
551.58	8.873
551.92	8.878
552.26	8.902
552.59	8.934
552.93	8.929
553.27	8.942
553.60	8.966
553.94	8.974
554.27	9.003
554.61	9.045
554.95	9.055
555.28	9.094
555.62	9.134
555.95	9.181
556.29	9.233
556.63	9.276
556.96	9.309
557.30	9.329
557.63	9.382
557.97	9.397
558.31	9.408
558.64	9.427
558.98	9.454
559.31	9.503
559.65	9.511
559.98	9.510
560.32	9.548
560.65	9.578
560.99	9.606
561.33	9.647
561.66	9.678
562.00	9.713
562.33	9.754
562.67	9.801
563.00	9.841
563.34	9.904
563.67	9.953
564.01	9.974
564.34	9.993
564.68	10.040
565.01	10.077
565.35	10.107
565.68	10.129
566.02	10.169
566.35	10.174
566.69	10.187
567.02	10.210
567.36	10.236
567.69	10.266
568.03	10.305
568.36	10.324
568.69	10.321
569.03	10.377
569.36	10.423
569.70	10.445
570.03	10.505
570.37	10.539
570.70	10.561
571.04	10.569
571.37	10.589
571.70	10.634
572.04	10.658
572.37	10.696
572.71	10.692
573.04	10.719
573.37	10.751
573.71	10.759
574.04	10.772
574.38	10.781
574.71	10.822
575.04	10.853
575.38	10.851
575.71	10.872
576.05	10.875
576.38	10.902
576.71	10.885
577.05	10.906
577.38	10.919
577.71	10.954
578.05	10.960
578.38	10.959
578.71	10.963
579.05	10.958
579.38	10.948
579.71	10.979
580.05	10.991
580.38	11.020
580.71	11.014
581.05	11.014
581.38	11.010
581.71	11.038
582.05	11.067
582.38	11.073
582.71	11.091
583.04	11.140
583.38	11.153
583.71	11.166
584.04	11.219
584.38	11.270
584.71	11.298
585.04	11.352
585.37	11.395
585.71	11.428
586.04	11.492
586.37	11.554
586.70	11.582
587.04	11.627
587.37	11.691
587.70	11.697
588.03	11.704
588.37	11.759
588.70	11.780
589.03	11.792
589.36	11.825
589.69	11.831
590.03	11.857
590.36	11.887
590.69	11.883
591.02	11.894
591.35	11.931
591.69	11.947
592.02	11.952
592.35	11.981
592.68	12.025
593.01	12.044
593.35	12.090
593.68	12.103
594.01	12.135
594.34	12.181
594.67	12.178
595.00	12.192
595.34	12.230
595.67	12.254
596.00	12.260
596.33	12.270
596.66	12.286
596.99	12.279
597.32	12.282
597.65	12.266
597.99	12.271
598.32	12.303
598.65	12.318
598.98	12.320
599.31	12.352
599.64	12.385
599.97	12.405
600.30	12.431
600.63	12.487
600.96	12.550
601.30	12.596
601.63	12.654
601.96	12.714
602.29	12.731
602.62	12.788
602.95	12.801
603.28	12.853
603.61	12.873
603.94	12.895
604.27	12.933
604.60	12.946
604.93	12.973
605.26	12.971
605.59	12.964
605.92	13.025
606.25	13.023
606.58	13.068
606.91	13.059
607.24	13.139
607.57	13.185
607.90	13.212
608.23	13.215
608.56	13.211
608.89	13.220
609.22	13.260
609.55	13.261
609.88	13.257
610.21	13.275
610.54	13.274
610.87	13.224
611.20	13.212
611.53	13.192
611.86	13.206
612.19	13.209
612.52	13.217
612.85	13.239
613.18	13.279
613.51	13.324
613.84	13.313
614.17	13.355
614.49	13.442
614.82	13.444
615.15	13.482
615.48	13.533
615.81	13.565
616.14	13.613
616.47	13.603
616.80	13.600
617.13	13.608
617.46	13.634
617.78	13.665
618.11	13.652
618.44	13.710
618.77	13.681
619.10	13.675
619.43	13.757
619.76	13.797
620.09	13.852
620.41	13.906
620.74	13.972
621.07	14.042
621.40	14.089
621.73	14.136
622.06	14.188
622.38	14.277
622.71	14.345
623.04	14.406
623.37	14.473
623.70	14.524
624.02	14.589
624.35	14.653
624.68	14.723
625.01	14.774
625.34	14.837
625.66	14.876
625.99	14.941
626.32	14.991
626.65	15.027
626.98	15.070
627.30	15.128
627.63	15.152
627.96	15.138
628.29	15.094
628.61	15.113
628.94	15.121
629.27	15.123
629.60	15.118
629.92	15.140
630.25	15.134
630.58	15.144
630.91	15.166
631.23	15.170
631.56	15.221
631.89	15.297
632.21	15.326
632.54	15.388
632.87	15.437
633.19	15.468
633.52	15.474
633.85	15.502
634.18	15.482
634.50	15.458
634.83	15.515
635.16	15.541
635.48	15.543
635.81	15.542
636.14	15.497
636.46	15.492
636.79	15.492
637.11	15.507
637.44	15.481
637.77	15.504
638.09	15.512
638.42	15.455
638.75	15.425
639.07	15.448
639.40	15.456
639.73	15.451
640.05	15.452
640.38	15.483
640.70	15.493
641.03	15.484
641.36	15.447
641.68	15.476
642.01	15.477
642.33	15.502
642.66	15.476
642.98	15.491
643.31	15.510
643.64	15.547
643.96	15.502
644.29	15.507
644.61	15.541
644.94	15.589
645.26	15.578
645.59	15.652
645.91	15.694
646.24	15.762
646.56	15.793
646.89	15.838
647.22	15.826
647.54	15.899
647.87	15.934
648.19	15.939
648.52	15.956
648.84	16.005
649.17	15.971
649.49	15.969
649.82	15.966
650.14	15.994
650.47	15.985
650.79	16.055
651.11	16.036
651.44	16.083
651.76	16.135
652.09	16.205
652.41	16.235
652.74	16.280
653.06	16.343
653.39	16.416
653.71	16.467
654.04	16.526
654.36	16.540
654.68	16.588
655.01	16.630
655.33	16.645
655.66	16.702
655.98	16.709
656.30	16.760
656.63	16.805
656.95	16.784
657.28	16.780
657.60	16.739
657.92	16.717
658.25	16.720
658.57	16.697
658.90	16.737
659.22	16.685
659.54	16.713
659.87	16.694
660.19	16.626
660.51	16.584
660.84	16.525
661.16	16.576
661.48	16.581
661.81	16.587
662.13	16.547
662.45	16.549
662.78	16.601
663.10	16.622
663.42	16.612
663.75	16.646
664.07	16.667
664.39	16.678
664.72	16.673
665.04	16.686
665.36	16.720
665.69	16.771
666.01	16.782
666.33	16.797
666.65	16.738
666.98	16.769
667.30	16.803
667.62	16.846
667.94	16.919
668.27	16.970
668.59	17.038
668.91	17.076
669.23	17.100
669.56	17.143
669.88	17.206
670.20	17.275
670.52	17.356
670.85	17.390
671.17	17.452
671.49	17.495
671.81	17.534
672.13	17.588
672.46	17.623
672.78	17.740
673.10	17.824
673.42	17.868
673.74	17.949
674.07	18.046
674.39	18.119
674.71	18.222
675.03	18.304
675.35	18.469
675.67	18.625
676.00	18.785
676.32	18.840
676.64	18.905
676.96	19.047
677.28	19.189
677.60	19.227
677.92	19.347
678.25	19.442
678.57	19.620
678.89	19.697
679.21	19.762
679.53	19.899
679.85	20.066
680.17	20.189
680.49	20.272
680.81	20.404
681.13	20.612
681.46	20.757
681.78	20.991
682.10	21.106
682.42	21.258
682.74	21.498
683.06	21.619
683.38	21.789
683.70	22.061
684.02	22.312
684.34	22.540
684.66	22.779
684.98	23.045
685.30	23.211
685.62	23.467
685.94	23.702
686.26	23.852
686.58	24.056
686.90	24.240
687.22	24.385
687.54	24.501
687.86	24.662
688.18	24.771
688.50	24.923
688.82	25.120
689.14	25.271
689.46	25.452
689.78	25.601
690.10	25.767
690.42	25.949
690.74	26.212
691.06	26.403
691.38	26.595
691.70	26.831
692.02	26.983
692.34	27.092
692.66	27.206
692.98	27.334
693.30	27.534
693.62	27.718
693.94	27.917
694.26	28.043
694.57	28.259
694.89	28.427
695.21	28.562
695.53	28.754
695.85	28.920
696.17	29.061
696.49	29.265
696.81	29.413
697.13	29.594
697.44	29.719
697.76	29.860
698.08	29.960
698.40	30.054
698.72	30.131
699.04	30.203
699.36	30.365
699.67	30.530
699.99	30.592
700.31	30.709
700.63	30.836
700.95	30.974
701.27	31.051
701.58	31.189
701.90	31.236
702.22	31.424
702.54	31.562
702.86	31.689
703.17	31.773
703.49	31.901
703.81	32.040
704.13	31.999
704.45	32.128
704.76	32.295
705.08	32.393
705.40	32.616
705.72	32.652
706.03	32.830
706.35	32.862
706.67	33.023
706.99	33.114
707.30	33.258
707.62	33.397
707.94	33.458
708.26	33.445
708.57	33.527
708.89	33.608
709.21	33.765
709.53	33.890
709.84	34.039
710.16	34.192
710.48	34.354
710.79	34.530
711.11	34.750
711.43	34.840
711.74	35.071
712.06	35.188
712.38	35.348
712.69	35.456
713.01	35.591
713.33	35.714
713.64	35.979
713.96	36.200
714.28	36.327
714.59	36.458
714.91	36.700
715.23	36.831
715.54	36.960
715.86	37.167
716.17	37.351
716.49	37.504
716.81	37.606
717.12	37.500
717.44	37.535
717.76	37.625
718.07	37.680
718.39	37.761
718.70	37.847
719.02	38.013
719.33	38.029
719.65	38.053
719.97	38.055
720.28	38.117
720.60	38.246
720.91	38.303
721.23	38.303
721.54	38.476
721.86	38.565
722.17	38.619
722.49	38.734
722.81	38.836
723.12	39.139
723.44	39.181
723.75	39.388
724.07	39.464
724.38	39.553
724.70	39.706
725.01	39.784
725.33	39.898
725.64	40.050
725.96	40.172
726.27	40.141
726.59	40.105
726.90	40.287
727.22	40.303
727.53	40.534
727.84	40.668
728.16	40.777
728.47	40.784
728.79	40.860
729.10	40.872
729.42	40.809
729.73	41.061
730.05	41.063
730.36	40.987
730.67	41.058
730.99	40.954
731.30	41.074
731.62	41.120
731.93	41.146
732.24	41.024
732.56	41.036
732.87	41.216
733.19	41.162
733.50	41.238
733.81	41.387
734.13	41.372
734.44	41.356
734.76	41.175
735.07	41.153
735.38	41.318
735.70	41.501
736.01	41.564
736.32	41.590
736.64	41.739
736.95	41.695
737.26	41.782
737.58	41.988
737.89	42.235
738.20	42.483
738.52	42.493
738.83	42.536
739.14	42.565
739.45	42.646
739.77	42.734
740.08	42.724
740.39	42.862
740.71	43.019
741.02	42.990
741.33	42.877
741.64	42.807
741.96	42.903
742.27	42.751
742.58	42.907
742.90	43.032
743.21	43.098
743.52	43.173
743.83	43.303
744.14	43.177
744.46	43.281
744.77	43.466
745.08	43.461
745.39	43.526
745.71	43.635
746.02	43.556
746.33	43.546
746.64	43.512
746.95	43.544
747.27	43.745
747.58	43.939
747.89	43.883
748.20	43.852
748.51	44.066
748.82	44.132
749.14	44.459
749.45	44.665
749.76	44.777
750.07	44.952
750.38	45.054
750.69	44.890
751.01	44.829
751.32	45.031
751.63	45.167
751.94	45.057
752.25	44.966
752.56	44.852
752.87	44.762
753.18	44.740
753.49	44.690
753.81	44.761
754.12	44.874
754.43	45.072
754.74	44.988
755.05	45.063
755.36	45.348
755.67	45.744
755.98	46.064
756.29	46.330
756.60	46.714
756.91	46.975
757.22	47.133
757.53	47.482
757.84	47.655
758.15	48.076
758.46	48.442
758.77	48.601
759.09	48.651
759.40	48.695
759.71	48.757
760.02	48.705
760.33	48.719
760.64	48.774
760.95	48.776
761.26	48.776
761.57	48.720
761.88	48.618
762.18	48.576
762.49	48.628
762.80	48.654
763.11	48.757
763.42	48.776
763.73	48.786
764.04	48.843
764.35	48.867
764.66	48.782
764.97	48.684
765.28	48.746
765.59	48.775
765.90	48.598
766.21	48.290
766.52	48.028
766.83	48.016
767.14	47.980
767.44	47.652
767.75	47.351
768.06	47.361
768.37	47.040
768.68	46.901
768.99	46.768
769.30	46.666
769.61	46.753
769.91	46.850
770.22	46.620
770.53	46.487
770.84	46.644
771.15	46.888
771.46	46.721
771.77	47.232
772.07	47.097
772.38	47.163
772.69	47.333
773.00	47.698
773.31	47.676
773.61	47.584
773.92	47.829
774.23	47.724
774.54	47.465
774.85	47.631
775.15	47.372
775.46	47.125
775.77	47.009
776.08	47.120
776.39	46.729
776.69	46.777
777.00	46.997
777.31	46.973
777.62	46.907
777.92	47.063
778.23	47.109
778.54	47.398
778.85	47.917
779.15	48.026
779.46	47.990
779.77	48.169
780.07	48.414
780.38	48.735
780.69	48.613
781.00	49.026
781.30	49.164
781.61	49.130
781.92	49.377
782.22	49.499
782.53	49.379
782.84	49.395
783.14	49.368
783.45	49.075
783.76	48.890
784.06	49.019
784.37	48.628
784.68	48.628
784.98	48.710
785.29	48.411
785.60	48.097
785.90	48.626
786.21	48.930
786.51	49.234
786.82	49.485
787.13	49.644
787.43	49.732
787.74	50.317
788.04	50.329
788.35	50.530
788.66	50.737
788.96	51.190
789.27	51.224
789.57	50.941
789.88	51.008
790.19	51.161
790.49	51.088
790.80	51.123
791.10	50.981
791.41	51.245
791.71	51.225
792.02	51.293
792.32	51.176
792.63	51.089
792.93	51.712
793.24	51.677
793.54	51.700
793.85	51.906
794.15	51.934
794.46	52.004
794.76	51.867
795.07	52.131
795.37	52.256
795.68	52.342
795.98	52.494
796.29	52.528
796.59	52.796
796.90	52.933
797.20	52.956
797.51	53.165
797.81	53.021
798.12	53.349
798.42	53.327
798.72	53.362
799.03	53.476
799.33	53.460
799.64	53.570
799.94	53.580
800.25	53.271
800.55	53.381
800.85	53.495
801.16	53.797
801.46	53.316
801.77	53.408
802.07	53.371
802.37	53.534
802.68	53.471
802.98	53.480
803.28	53.322
803.59	53.723
803.89	53.849
804.20	53.915
804.50	54.010
804.80	54.570
805.11	54.598
805.41	54.730
805.71	54.880
806.02	55.194
806.32	54.618
806.62	54.904
806.93	55.077
807.23	55.444
807.53	55.395
807.83	55.201
808.14	55.333
808.44	55.397
808.74	55.285
809.05	55.146
809.35	54.970
809.65	55.598
809.95	55.842
810.26	55.801
810.56	55.834
810.86	56.116
811.16	56.420
811.47	57.044
811.77	57.125
812.07	56.926
812.37	56.964
812.68	57.114
812.98	57.360
813.28	57.170
813.58	57.498
813.88	57.073
814.19	57.386
814.49	57.880
814.79	57.144
815.09	57.286
815.39	57.737
815.70	57.870
816.00	58.065
816.30	57.801
816.60	57.759
816.90	57.376
817.20	57.423
817.50	56.995
817.81	56.482
818.11	56.664
818.41	56.815
818.71	56.938
819.01	57.014
819.31	57.440
819.61	57.771
819.92	58.014
820.22	58.258
820.52	58.535
820.82	58.846
821.12	59.304
821.42	59.443
821.72	59.717
822.02	60.040
822.32	60.472
822.62	60.684
822.92	60.857
823.22	61.103
823.52	61.372
823.83	61.511
824.13	61.643
824.43	61.532
824.73	61.831
825.03	61.781
825.33	61.904
825.63	61.876
825.93	61.607
826.23	61.590
826.53	61.566
826.83	61.509
827.13	61.764
827.43	61.884
827.73	62.231
828.03	62.543
828.33	62.890
828.63	63.008
828.93	62.755
829.23	62.984
829.53	63.038
829.83	62.879
830.13	62.722
830.42	62.473
830.72	61.866
831.02	61.660
831.32	61.019
831.62	60.795
831.92	60.596
832.22	60.471
832.52	60.439
832.82	60.568
833.12	60.789
833.42	60.954
833.72	60.907
834.01	61.516
834.31	61.777
834.61	62.031
834.91	62.644
835.21	62.731
835.51	63.311
835.81	63.252
836.11	63.401
836.40	63.260
836.70	63.070
837.00	63.377
837.30	62.940
837.60	62.634
837.90	62.549
838.19	61.868
838.49	61.926
838.79	61.294
839.09	61.618
839.39	61.666
839.68	62.121
839.98	62.102
840.28	61.580
840.58	61.674
840.88	61.680
841.17	61.888
841.47	62.699
841.77	62.187
842.07	63.231
842.36	63.944
842.66	63.888
842.96	63.127
843.26	63.121
843.55	63.786
843.85	64.704
844.15	64.485
844.45	64.683
844.74	64.693
845.04	65.172
845.34	65.107
845.63	64.928
845.93	64.632
846.23	66.297
846.53	67.085
846.82	66.913
847.12	65.788
847.42	65.363
847.71	65.646
848.01	63.509
848.31	63.491
848.60	62.898
848.90	61.797
849.19	61.729
849.49	58.992
849.79	59.368
850.08	58.170
850.38	58.904
850.68	58.540
850.97	59.079
851.27	59.771
851.56	59.741
851.86	59.250
852.16	60.314
852.45	58.050
852.75	59.602
853.04	60.185
853.34	60.942
853.64	60.782
853.93	60.925
854.23	59.344
854.52	58.478
854.82	57.733
855.11	57.205
855.41	57.733
855.70	61.136
856.00	60.614
856.30	60.510
856.59	61.578
856.89	61.506
857.18	64.105
857.48	65.554
857.77	65.234
858.07	67.112
858.36	66.930
858.66	66.396
858.95	65.372
859.25	66.170
859.54	64.680
859.84	63.086
860.13	62.230
860.42	61.573
860.72	59.132
861.01	61.847
861.31	61.239
861.60	63.983
861.90	63.942
862.19	64.490
862.49	63.974
862.78	64.204
863.07	64.394
863.37	64.933
863.66	63.569
863.96	66.217
864.25	64.532
864.54	65.577
864.84	65.203
865.13	65.050
865.43	63.823
865.72	61.095
866.01	74.697
866.31	77.390
866.60	59.848
866.89	57.315
>>>>>End Spectral Data<<<<<
