OOIBase32 Version 2.0.0.6 Data File
++++++++++++++++++++++++++++++++++++
Date: 01-23-2012, 23:24:40
User: Valued Ocean Optics Customer
Spectrometer Serial Number: USB2E2917
Spectrometer Channel: Master
Integration Time (msec): 5
Spectra Averaged: 10
Boxcar Smoothing: 5
Correct for Electrical Dark: Enabled
Time Normalized: Disabled
Dual-beam Reference: Disabled
Reference Channel: Master
Temperature: Not acquired
Spectrometer Type: S2000
ADC Type: USB2000
Number of Pixels in File: 2048
Graph Title: 
>>>>>Begin Spectral Data<<<<<
180.30	0.000
180.67	0.000
181.03	111.072
181.40	215.576
181.77	-4122.706
182.14	29.239
182.51	-362.345
182.88	210.876
183.25	63.610
183.62	126.726
183.99	124.773
184.36	125.051
184.73	28.565
185.10	-8.551
185.46	-467.593
185.83	-1.424
186.20	901.297
186.57	55.829
186.94	8.638
187.31	25.082
187.68	107.083
188.05	116.227
188.42	177.877
188.78	335.260
189.15	820.927
189.52	-190.989
189.89	-61.157
190.26	-65.793
190.63	-23.198
191.00	-17.337
191.37	5.648
191.73	27.807
192.10	30.327
192.47	32.152
192.84	41.187
193.21	46.636
193.58	37.856
193.94	43.195
194.31	52.191
194.68	56.457
195.05	46.102
195.42	48.157
195.79	29.519
196.15	33.698
196.52	40.992
196.89	38.215
197.26	32.679
197.63	36.303
198.00	41.768
198.36	43.896
198.73	12.079
199.10	11.684
199.47	-0.197
199.84	-4.547
200.20	7.660
200.57	7.001
200.94	-10.520
201.31	-20.720
201.68	-27.537
202.04	-30.663
202.41	-36.895
202.78	-43.742
203.15	-43.094
203.51	-26.009
203.88	-24.215
204.25	-32.940
204.62	-42.012
204.98	-52.601
205.35	-41.907
205.72	-33.633
206.09	-23.312
206.46	-53.022
206.82	-19.013
207.19	-27.229
207.56	-75.785
207.92	-66.315
208.29	-83.239
208.66	-61.280
209.03	-40.636
209.39	-23.200
209.76	-14.733
210.13	-49.064
210.50	-17.038
210.86	-17.191
211.23	-24.108
211.60	-8.988
211.96	-4.640
212.33	7.746
212.70	5.630
213.07	1.671
213.43	-24.107
213.80	-35.697
214.17	-9.566
214.53	-9.854
214.90	-9.774
215.27	-5.865
215.63	-8.686
216.00	-12.946
216.37	-11.611
216.74	-16.581
217.10	-0.635
217.47	-1.509
217.84	-1.401
218.20	-3.087
218.57	0.334
218.94	1.940
219.30	-2.901
219.67	-7.658
220.04	-6.973
220.40	-7.145
220.77	-10.484
221.13	-11.740
221.50	-8.000
221.87	-5.807
222.23	-7.439
222.60	-12.565
222.97	-13.405
223.33	-10.049
223.70	-6.616
224.07	-5.958
224.43	-8.553
224.80	-2.771
225.16	-4.694
225.53	-4.707
225.90	-7.196
226.26	-5.527
226.63	-3.504
226.99	-2.591
227.36	-0.818
227.73	1.581
228.09	1.880
228.46	3.820
228.82	4.135
229.19	3.641
229.56	3.499
229.92	6.179
230.29	6.742
230.65	6.131
231.02	5.718
231.38	1.747
231.75	-1.242
232.12	-3.050
232.48	-5.501
232.85	-6.709
233.21	-6.035
233.58	-6.554
233.94	-7.085
234.31	-7.829
234.68	-6.667
235.04	-6.352
235.41	-1.819
235.77	-0.010
236.14	1.357
236.50	2.612
236.87	1.440
237.23	1.592
237.60	1.294
237.96	1.350
238.33	0.975
238.69	0.495
239.06	0.529
239.42	0.111
239.79	-0.769
240.15	-0.655
240.52	-0.265
240.88	0.953
241.25	1.134
241.61	1.678
241.98	1.515
242.34	1.675
242.71	1.903
243.07	2.237
243.44	2.029
243.80	2.315
244.17	2.548
244.53	2.139
244.90	1.759
245.26	1.451
245.63	1.335
245.99	1.157
246.36	1.211
246.72	1.136
247.09	0.612
247.45	0.786
247.81	0.897
248.18	0.384
248.54	0.421
248.91	0.035
249.27	0.348
249.64	0.672
250.00	0.906
250.36	0.527
250.73	0.405
251.09	0.922
251.46	0.990
251.82	0.974
252.19	1.589
252.55	1.780
252.91	2.457
253.28	2.620
253.64	2.127
254.01	2.264
254.37	2.963
254.73	3.282
255.10	3.133
255.46	3.289
255.83	3.181
256.19	2.713
256.55	2.461
256.92	2.332
257.28	2.130
257.65	2.206
258.01	2.135
258.37	1.854
258.74	1.694
259.10	1.503
259.46	1.208
259.83	1.022
260.19	1.185
260.55	1.300
260.92	1.257
261.28	1.098
261.64	1.057
262.01	1.296
262.37	1.373
262.73	1.595
263.10	2.045
263.46	2.229
263.82	2.259
264.19	2.115
264.55	1.630
264.91	1.507
265.28	1.639
265.64	1.699
266.00	1.449
266.37	1.534
266.73	1.245
267.09	1.115
267.46	1.015
267.82	0.978
268.18	1.208
268.54	1.613
268.91	1.900
269.27	1.875
269.63	2.097
270.00	2.109
270.36	2.079
270.72	2.254
271.08	2.127
271.45	1.986
271.81	2.034
272.17	1.856
272.53	1.778
272.90	1.736
273.26	1.866
273.62	1.480
273.98	1.461
274.35	1.511
274.71	1.512
275.07	1.680
275.43	1.909
275.80	1.913
276.16	1.961
276.52	1.833
276.88	1.596
277.25	1.257
277.61	1.204
277.97	1.036
278.33	0.996
278.69	0.901
279.06	1.133
279.42	1.101
279.78	0.975
280.14	1.072
280.50	1.161
280.87	1.272
281.23	1.445
281.59	1.598
281.95	1.799
282.31	1.854
282.68	1.724
283.04	1.482
283.40	1.542
283.76	1.732
284.12	1.783
284.48	1.753
284.85	1.771
285.21	1.826
285.57	1.804
285.93	1.799
286.29	1.776
286.65	2.018
287.02	2.228
287.38	2.175
287.74	2.095
288.10	2.028
288.46	2.159
288.82	1.971
289.18	2.047
289.54	2.080
289.91	2.113
290.27	2.201
290.63	2.233
290.99	2.018
291.35	2.066
291.71	2.146
292.07	2.040
292.43	1.973
292.79	2.280
293.16	2.311
293.52	2.347
293.88	2.408
294.24	2.445
294.60	2.389
294.96	2.413
295.32	2.442
295.68	2.468
296.04	2.509
296.40	2.537
296.76	2.374
297.12	2.255
297.49	2.156
297.85	2.027
298.21	1.796
298.57	1.573
298.93	1.617
299.29	1.399
299.65	1.387
300.01	1.402
300.37	1.334
300.73	1.538
301.09	1.653
301.45	1.751
301.81	1.876
302.17	2.057
302.53	2.183
302.89	2.155
303.25	2.292
303.61	2.329
303.97	2.149
304.33	2.224
304.69	2.236
305.05	2.135
305.41	2.162
305.77	2.193
306.13	2.111
306.49	2.032
306.85	2.129
307.21	2.196
307.57	2.222
307.93	2.399
308.29	2.527
308.65	2.509
309.01	2.551
309.37	2.548
309.73	2.536
310.09	2.781
310.45	2.958
310.81	2.938
311.17	2.877
311.53	2.788
311.89	2.804
312.25	2.686
312.61	2.611
312.96	2.643
313.32	2.732
313.68	2.557
314.04	2.259
314.40	2.258
314.76	2.161
315.12	2.195
315.48	2.321
315.84	2.268
316.20	2.289
316.56	2.251
316.92	2.153
317.27	1.961
317.63	2.020
317.99	2.009
318.35	1.954
318.71	2.064
319.07	2.114
319.43	2.058
319.79	2.117
320.15	2.101
320.50	2.213
320.86	2.380
321.22	2.513
321.58	2.544
321.94	2.515
322.30	2.445
322.66	2.395
323.01	2.322
323.37	2.294
323.73	2.250
324.09	2.246
324.45	2.289
324.81	2.097
325.17	2.129
325.52	2.082
325.88	2.136
326.24	2.222
326.60	2.239
326.96	2.284
327.31	2.273
327.67	2.211
328.03	2.228
328.39	2.184
328.75	2.286
329.11	2.304
329.46	2.397
329.82	2.443
330.18	2.425
330.54	2.371
330.90	2.305
331.25	2.324
331.61	2.480
331.97	2.469
332.33	2.476
332.68	2.423
333.04	2.396
333.40	2.286
333.76	2.229
334.11	2.190
334.47	2.295
334.83	2.329
335.19	2.309
335.54	2.240
335.90	2.278
336.26	2.302
336.62	2.392
336.97	2.312
337.33	2.281
337.69	2.273
338.05	2.196
338.40	2.136
338.76	2.154
339.12	2.196
339.48	2.223
339.83	2.194
340.19	2.084
340.55	2.107
340.90	2.084
341.26	2.072
341.62	2.094
341.97	2.140
342.33	2.148
342.69	2.156
343.04	2.164
343.40	2.045
343.76	1.977
344.12	2.057
344.47	2.032
344.83	2.093
345.19	2.178
345.54	2.199
345.90	2.235
346.26	2.268
346.61	2.294
346.97	2.276
347.32	2.362
347.68	2.432
348.04	2.346
348.39	2.262
348.75	2.316
349.11	2.302
349.46	2.335
349.82	2.328
350.18	2.267
350.53	2.285
350.89	2.280
351.24	2.225
351.60	2.212
351.96	2.310
352.31	2.318
352.67	2.286
353.02	2.278
353.38	2.219
353.74	2.267
354.09	2.268
354.45	2.258
354.80	2.218
355.16	2.257
355.52	2.216
355.87	2.103
356.23	2.161
356.58	2.119
356.94	2.150
357.29	2.167
357.65	2.102
358.00	2.118
358.36	2.082
358.72	2.103
359.07	2.116
359.43	2.211
359.78	2.295
360.14	2.302
360.49	2.290
360.85	2.288
361.20	2.273
361.56	2.276
361.91	2.256
362.27	2.258
362.62	2.254
362.98	2.264
363.33	2.167
363.69	2.077
364.04	2.100
364.40	2.083
364.75	2.061
365.11	2.042
365.46	1.983
365.82	2.030
366.17	2.021
366.53	2.056
366.88	2.029
367.24	2.062
367.59	2.113
367.95	2.065
368.30	2.046
368.66	2.078
369.01	2.075
369.37	2.131
369.72	2.130
370.08	2.158
370.43	2.149
370.78	2.143
371.14	2.071
371.49	2.083
371.85	2.080
372.20	2.124
372.56	2.094
372.91	2.132
373.26	2.156
373.62	2.099
373.97	2.086
374.33	2.096
374.68	2.087
375.03	2.143
375.39	2.118
375.74	2.097
376.10	2.111
376.45	2.131
376.80	2.124
377.16	2.064
377.51	2.054
377.87	2.066
378.22	1.979
378.57	2.001
378.93	2.016
379.28	2.046
379.63	2.038
379.99	2.062
380.34	2.051
380.70	2.055
381.05	2.130
381.40	2.186
381.76	2.244
382.11	2.308
382.46	2.339
382.82	2.360
383.17	2.333
383.52	2.368
383.88	2.346
384.23	2.334
384.58	2.315
384.94	2.249
385.29	2.233
385.64	2.189
385.99	2.179
386.35	2.176
386.70	2.188
387.05	2.192
387.41	2.183
387.76	2.159
388.11	2.164
388.47	2.157
388.82	2.219
389.17	2.233
389.52	2.241
389.88	2.271
390.23	2.237
390.58	2.268
390.93	2.277
391.29	2.285
391.64	2.327
391.99	2.366
392.34	2.426
392.70	2.397
393.05	2.369
393.40	2.366
393.75	2.340
394.11	2.337
394.46	2.238
394.81	2.233
395.16	2.200
395.52	2.151
395.87	2.089
396.22	2.078
396.57	2.065
396.92	2.064
397.28	2.016
397.63	1.981
397.98	1.977
398.33	2.004
398.68	1.986
399.04	2.003
399.39	1.979
399.74	1.990
400.09	1.959
400.44	1.959
400.80	1.926
401.15	1.925
401.50	1.945
401.85	1.968
402.20	1.956
402.55	1.967
402.90	1.950
403.26	1.968
403.61	1.959
403.96	1.941
404.31	1.933
404.66	1.956
405.01	1.926
405.36	1.930
405.72	1.889
406.07	1.879
406.42	1.872
406.77	1.856
407.12	1.855
407.47	1.865
407.82	1.865
408.17	1.853
408.53	1.848
408.88	1.856
409.23	1.849
409.58	1.821
409.93	1.843
410.28	1.837
410.63	1.846
410.98	1.840
411.33	1.830
411.68	1.833
412.03	1.858
412.38	1.865
412.73	1.903
413.09	1.936
413.44	1.992
413.79	1.986
414.14	2.000
414.49	2.034
414.84	2.046
415.19	2.065
415.54	2.087
415.89	2.097
416.24	2.141
416.59	2.158
416.94	2.167
417.29	2.189
417.64	2.211
417.99	2.228
418.34	2.236
418.69	2.256
419.04	2.254
419.39	2.261
419.74	2.267
420.09	2.264
420.44	2.270
420.79	2.262
421.14	2.254
421.49	2.263
421.84	2.264
422.19	2.278
422.54	2.279
422.89	2.292
423.24	2.294
423.59	2.293
423.94	2.256
424.29	2.247
424.64	2.246
424.99	2.250
425.34	2.233
425.68	2.215
426.03	2.169
426.38	2.154
426.73	2.143
427.08	2.128
427.43	2.137
427.78	2.166
428.13	2.144
428.48	2.151
428.83	2.132
429.18	2.137
429.53	2.141
429.87	2.153
430.22	2.155
430.57	2.169
430.92	2.164
431.27	2.153
431.62	2.137
431.97	2.171
432.32	2.165
432.67	2.167
433.01	2.145
433.36	2.137
433.71	2.129
434.06	2.104
434.41	2.079
434.76	2.089
435.11	2.095
435.45	2.108
435.80	2.091
436.15	2.103
436.50	2.119
436.85	2.155
437.20	2.166
437.54	2.161
437.89	2.194
438.24	2.226
438.59	2.227
438.94	2.216
439.29	2.205
439.63	2.204
439.98	2.193
440.33	2.174
440.68	2.169
441.03	2.186
441.37	2.211
441.72	2.215
442.07	2.210
442.42	2.228
442.76	2.247
443.11	2.272
443.46	2.292
443.81	2.309
444.16	2.334
444.50	2.323
444.85	2.324
445.20	2.322
445.55	2.318
445.89	2.312
446.24	2.300
446.59	2.281
446.94	2.269
447.28	2.245
447.63	2.229
447.98	2.214
448.32	2.226
448.67	2.201
449.02	2.181
449.37	2.150
449.71	2.145
450.06	2.135
450.41	2.148
450.75	2.160
451.10	2.162
451.45	2.147
451.79	2.132
452.14	2.108
452.49	2.108
452.84	2.104
453.18	2.119
453.53	2.102
453.88	2.092
454.22	2.098
454.57	2.098
454.92	2.118
455.26	2.149
455.61	2.198
455.95	2.237
456.30	2.263
456.65	2.301
456.99	2.322
457.34	2.354
457.69	2.378
458.03	2.390
458.38	2.398
458.73	2.396
459.07	2.388
459.42	2.364
459.76	2.329
460.11	2.308
460.46	2.273
460.80	2.253
461.15	2.225
461.49	2.186
461.84	2.170
462.19	2.142
462.53	2.132
462.88	2.117
463.22	2.107
463.57	2.110
463.91	2.109
464.26	2.129
464.61	2.126
464.95	2.111
465.30	2.115
465.64	2.112
465.99	2.132
466.33	2.133
466.68	2.144
467.02	2.137
467.37	2.145
467.71	2.133
468.06	2.133
468.41	2.121
468.75	2.127
469.10	2.134
469.44	2.116
469.79	2.090
470.13	2.064
470.48	2.038
470.82	2.035
471.17	2.024
471.51	2.013
471.86	1.977
472.20	1.974
472.55	1.979
472.89	1.976
473.23	1.963
473.58	1.960
473.92	1.963
474.27	1.959
474.61	1.954
474.96	1.967
475.30	1.982
475.65	1.994
475.99	1.991
476.34	1.993
476.68	1.986
477.02	2.008
477.37	2.028
477.71	2.064
478.06	2.109
478.40	2.176
478.75	2.232
479.09	2.315
479.43	2.409
479.78	2.511
480.12	2.617
480.47	2.716
480.81	2.807
481.15	2.895
481.50	2.986
481.84	3.079
482.19	3.161
482.53	3.243
482.87	3.297
483.22	3.309
483.56	3.283
483.90	3.222
484.25	3.159
484.59	3.089
484.94	3.020
485.28	2.946
485.62	2.868
485.97	2.788
486.31	2.718
486.65	2.658
487.00	2.630
487.34	2.630
487.68	2.641
488.03	2.655
488.37	2.673
488.71	2.680
489.06	2.671
489.40	2.671
489.74	2.663
490.09	2.645
490.43	2.629
490.77	2.613
491.11	2.591
491.46	2.573
491.80	2.557
492.14	2.527
492.49	2.503
492.83	2.489
493.17	2.452
493.51	2.434
493.86	2.416
494.20	2.414
494.54	2.400
494.88	2.418
495.23	2.441
495.57	2.448
495.91	2.473
496.25	2.508
496.60	2.533
496.94	2.555
497.28	2.571
497.62	2.585
497.97	2.593
498.31	2.618
498.65	2.618
498.99	2.616
499.33	2.648
499.68	2.672
500.02	2.684
500.36	2.709
500.70	2.732
501.04	2.756
501.39	2.772
501.73	2.804
502.07	2.840
502.41	2.887
502.75	2.922
503.09	2.959
503.44	2.985
503.78	3.017
504.12	3.053
504.46	3.111
504.80	3.177
505.14	3.262
505.49	3.323
505.83	3.382
506.17	3.448
506.51	3.518
506.85	3.565
507.19	3.627
507.53	3.686
507.87	3.746
508.22	3.790
508.56	3.830
508.90	3.858
509.24	3.898
509.58	3.939
509.92	3.974
510.26	4.012
510.60	4.062
510.94	4.107
511.28	4.150
511.63	4.198
511.97	4.247
512.31	4.289
512.65	4.355
512.99	4.421
513.33	4.506
513.67	4.568
514.01	4.669
514.35	4.760
514.69	4.863
515.03	4.954
515.37	5.048
515.71	5.132
516.05	5.219
516.39	5.282
516.73	5.353
517.07	5.400
517.41	5.457
517.75	5.487
518.09	5.533
518.43	5.540
518.77	5.554
519.11	5.570
519.45	5.580
519.79	5.610
520.13	5.630
520.47	5.650
520.81	5.684
521.15	5.735
521.49	5.783
521.83	5.836
522.17	5.920
522.51	6.014
522.85	6.093
523.19	6.220
523.53	6.342
523.87	6.485
524.21	6.622
524.55	6.753
524.89	6.865
525.23	6.989
525.57	7.080
525.91	7.169
526.25	7.242
526.58	7.326
526.92	7.382
527.26	7.425
527.60	7.444
527.94	7.462
528.28	7.462
528.62	7.452
528.96	7.432
529.30	7.424
529.64	7.407
529.97	7.393
530.31	7.359
530.65	7.333
530.99	7.320
531.33	7.325
531.67	7.311
532.01	7.324
532.35	7.334
532.68	7.345
533.02	7.340
533.36	7.330
533.70	7.321
534.04	7.314
534.38	7.312
534.71	7.297
535.05	7.283
535.39	7.281
535.73	7.266
536.07	7.275
536.41	7.283
536.74	7.306
537.08	7.337
537.42	7.386
537.76	7.442
538.10	7.493
538.43	7.533
538.77	7.586
539.11	7.640
539.45	7.684
539.79	7.718
540.12	7.754
540.46	7.769
540.80	7.783
541.14	7.773
541.47	7.745
541.81	7.715
542.15	7.704
542.49	7.666
542.82	7.637
543.16	7.605
543.50	7.575
543.84	7.527
544.17	7.492
544.51	7.459
544.85	7.432
545.18	7.439
545.52	7.440
545.86	7.425
546.20	7.427
546.53	7.415
546.87	7.393
547.21	7.364
547.54	7.344
547.88	7.334
548.22	7.337
548.55	7.346
548.89	7.316
549.23	7.310
549.56	7.301
549.90	7.307
550.24	7.303
550.57	7.306
550.91	7.303
551.25	7.319
551.58	7.332
551.92	7.325
552.26	7.319
552.59	7.332
552.93	7.346
553.27	7.352
553.60	7.345
553.94	7.311
554.27	7.302
554.61	7.313
554.95	7.302
555.28	7.295
555.62	7.292
555.95	7.300
556.29	7.306
556.63	7.285
556.96	7.279
557.30	7.280
557.63	7.292
557.97	7.314
558.31	7.301
558.64	7.302
558.98	7.315
559.31	7.334
559.65	7.323
559.98	7.314
560.32	7.314
560.65	7.321
560.99	7.321
561.33	7.322
561.66	7.307
562.00	7.333
562.33	7.339
562.67	7.329
563.00	7.337
563.34	7.355
563.67	7.367
564.01	7.382
564.34	7.372
564.68	7.364
565.01	7.371
565.35	7.370
565.68	7.347
566.02	7.324
566.35	7.301
566.69	7.257
567.02	7.272
567.36	7.244
567.69	7.235
568.03	7.236
568.36	7.224
568.69	7.220
569.03	7.210
569.36	7.217
569.70	7.219
570.03	7.235
570.37	7.252
570.70	7.222
571.04	7.215
571.37	7.213
571.70	7.203
572.04	7.185
572.37	7.153
572.71	7.124
573.04	7.104
573.37	7.095
573.71	7.060
574.04	7.036
574.38	7.024
574.71	7.009
575.04	6.972
575.38	6.951
575.71	6.926
576.05	6.917
576.38	6.923
576.71	6.877
577.05	6.865
577.38	6.844
577.71	6.790
578.05	6.736
578.38	6.714
578.71	6.677
579.05	6.616
579.38	6.596
579.71	6.579
580.05	6.526
580.38	6.507
580.71	6.475
581.05	6.455
581.38	6.469
581.71	6.475
582.05	6.464
582.38	6.446
582.71	6.463
583.04	6.467
583.38	6.442
583.71	6.457
584.04	6.473
584.38	6.440
584.71	6.441
585.04	6.445
585.37	6.434
585.71	6.429
586.04	6.439
586.37	6.461
586.70	6.451
587.04	6.462
587.37	6.458
587.70	6.444
588.03	6.469
588.37	6.496
588.70	6.486
589.03	6.461
589.36	6.467
589.69	6.463
590.03	6.433
590.36	6.419
590.69	6.391
591.02	6.354
591.35	6.342
591.69	6.308
592.02	6.275
592.35	6.263
592.68	6.289
593.01	6.257
593.35	6.248
593.68	6.251
594.01	6.265
594.34	6.272
594.67	6.290
595.00	6.292
595.34	6.293
595.67	6.276
596.00	6.264
596.33	6.213
596.66	6.201
596.99	6.178
597.32	6.140
597.65	6.091
597.99	6.045
598.32	5.997
598.65	5.960
598.98	5.924
599.31	5.899
599.64	5.888
599.97	5.892
600.30	5.898
600.63	5.895
600.96	5.901
601.30	5.920
601.63	5.965
601.96	6.001
602.29	6.005
602.62	6.000
602.95	6.010
603.28	6.002
603.61	5.981
603.94	5.953
604.27	5.930
604.60	5.897
604.93	5.877
605.26	5.838
605.59	5.826
605.92	5.802
606.25	5.810
606.58	5.789
606.91	5.749
607.24	5.753
607.57	5.745
607.90	5.740
608.23	5.751
608.56	5.722
608.89	5.688
609.22	5.624
609.55	5.599
609.88	5.535
610.21	5.513
610.54	5.489
610.87	5.457
611.20	5.406
611.53	5.375
611.86	5.293
612.19	5.224
612.52	5.173
612.85	5.177
613.18	5.148
613.51	5.114
613.84	5.034
614.17	5.009
614.49	4.984
614.82	4.975
615.15	4.946
615.48	4.946
615.81	4.964
616.14	4.968
616.47	4.904
616.80	4.852
617.13	4.852
617.46	4.841
617.78	4.819
618.11	4.778
618.44	4.749
618.77	4.715
619.10	4.703
619.43	4.661
619.76	4.608
620.09	4.635
620.41	4.661
620.74	4.666
621.07	4.710
621.40	4.724
621.73	4.752
622.06	4.759
622.38	4.794
622.71	4.819
623.04	4.881
623.37	4.945
623.70	4.954
624.02	4.987
624.35	5.044
624.68	5.059
625.01	5.106
625.34	5.150
625.66	5.176
625.99	5.203
626.32	5.187
626.65	5.210
626.98	5.192
627.30	5.203
627.63	5.171
627.96	5.084
628.29	5.017
628.61	4.959
628.94	4.898
629.27	4.873
629.60	4.796
629.92	4.775
630.25	4.698
630.58	4.693
630.91	4.666
631.23	4.624
631.56	4.647
631.89	4.652
632.21	4.637
632.54	4.606
632.87	4.545
633.19	4.501
633.52	4.472
633.85	4.457
634.18	4.370
634.50	4.274
634.83	4.254
635.16	4.199
635.48	4.117
635.81	4.041
636.14	3.960
636.46	3.934
636.79	3.883
637.11	3.810
637.44	3.716
637.77	3.661
638.09	3.590
638.42	3.490
638.75	3.400
639.07	3.380
639.40	3.303
639.73	3.213
640.05	3.128
640.38	3.143
640.70	3.077
641.03	3.025
641.36	2.974
641.68	2.958
642.01	2.939
642.33	2.916
642.66	2.849
642.98	2.827
643.31	2.836
643.64	2.851
643.96	2.778
644.29	2.786
644.61	2.789
644.94	2.807
645.26	2.797
645.59	2.819
645.91	2.803
646.24	2.855
646.56	2.853
646.89	2.852
647.22	2.810
647.54	2.804
647.87	2.814
648.19	2.794
648.52	2.807
648.84	2.828
649.17	2.759
649.49	2.764
649.82	2.713
650.14	2.738
650.47	2.731
650.79	2.768
651.11	2.778
651.44	2.766
651.76	2.767
652.09	2.784
652.41	2.814
652.74	2.881
653.06	2.905
653.39	2.956
653.71	2.986
654.04	3.004
654.36	3.041
654.68	3.076
655.01	3.131
655.33	3.182
655.66	3.172
655.98	3.208
656.30	3.200
656.63	3.225
656.95	3.270
657.28	3.282
657.60	3.302
657.92	3.293
658.25	3.274
658.57	3.289
658.90	3.282
659.22	3.309
659.54	3.266
659.87	3.270
660.19	3.271
660.51	3.213
660.84	3.201
661.16	3.224
661.48	3.259
661.81	3.358
662.13	3.351
662.45	3.360
662.78	3.382
663.10	3.488
663.42	3.578
663.75	3.666
664.07	3.700
664.39	3.734
664.72	3.788
665.04	3.875
665.36	3.898
665.69	3.971
666.01	4.136
666.33	4.254
666.65	4.281
666.98	4.385
667.30	4.483
667.62	4.656
667.94	4.822
668.27	4.978
668.59	5.086
668.91	5.258
669.23	5.434
669.56	5.574
669.88	5.738
670.20	5.921
670.52	6.112
670.85	6.256
671.17	6.452
671.49	6.653
671.81	6.892
672.13	7.071
672.46	7.257
672.78	7.466
673.10	7.695
673.42	7.893
673.74	8.131
674.07	8.365
674.39	8.647
674.71	8.788
675.03	9.052
675.35	9.234
675.67	9.426
676.00	9.675
676.32	9.845
676.64	10.006
676.96	10.199
677.28	10.410
677.60	10.571
677.92	10.745
678.25	10.972
678.57	11.133
678.89	11.302
679.21	11.564
679.53	11.726
679.85	11.948
680.17	12.184
680.49	12.404
680.81	12.645
681.13	12.882
681.46	13.094
681.78	13.380
682.10	13.613
682.42	13.915
682.74	14.113
683.06	14.334
683.38	14.592
683.70	14.751
684.02	14.943
684.34	15.118
684.66	15.294
684.98	15.459
685.30	15.578
685.62	15.645
685.94	15.689
686.26	15.681
686.58	15.711
686.90	15.735
687.22	15.793
687.54	15.763
687.86	15.708
688.18	15.653
688.50	15.676
688.82	15.633
689.14	15.658
689.46	15.719
689.78	15.790
690.10	15.842
690.42	15.840
690.74	15.896
691.06	15.988
691.38	16.077
691.70	16.201
692.02	16.183
692.34	16.281
692.66	16.315
692.98	16.279
693.30	16.324
693.62	16.306
693.94	16.306
694.26	16.239
694.57	16.179
694.89	16.190
695.21	16.129
695.53	16.167
695.85	16.106
696.17	16.107
696.49	16.172
696.81	16.194
697.13	16.231
697.44	16.300
697.76	16.384
698.08	16.571
698.40	16.678
698.72	16.850
699.04	16.992
699.36	17.234
699.67	17.391
699.99	17.542
700.31	17.789
700.63	17.995
700.95	18.163
701.27	18.380
701.58	18.428
701.90	18.512
702.22	18.630
702.54	18.720
702.86	18.766
703.17	18.912
703.49	19.056
703.81	19.171
704.13	19.294
704.45	19.426
704.76	19.537
705.08	19.672
705.40	19.774
705.72	19.803
706.03	19.859
706.35	19.940
706.67	19.968
706.99	20.001
707.30	19.994
707.62	20.060
707.94	20.126
708.26	20.171
708.57	20.208
708.89	20.318
709.21	20.458
709.53	20.654
709.84	20.769
710.16	20.930
710.48	21.037
710.79	21.173
711.11	21.278
711.43	21.380
711.74	21.520
712.06	21.665
712.38	21.751
712.69	21.848
713.01	21.924
713.33	22.109
713.64	22.285
713.96	22.483
714.28	22.702
714.59	22.971
714.91	23.165
715.23	23.386
715.54	23.570
715.86	23.844
716.17	24.150
716.49	24.460
716.81	24.644
717.12	24.723
717.44	24.823
717.76	25.032
718.07	25.080
718.39	25.224
718.70	25.343
719.02	25.446
719.33	25.453
719.65	25.373
719.97	25.295
720.28	25.333
720.60	25.517
720.91	25.675
721.23	25.701
721.54	25.826
721.86	25.946
722.17	25.987
722.49	26.251
722.81	26.310
723.12	26.557
723.44	26.661
723.75	26.802
724.07	26.807
724.38	26.844
724.70	26.939
725.01	26.962
725.33	26.981
725.64	27.037
725.96	27.069
726.27	27.132
726.59	27.126
726.90	27.080
727.22	26.926
727.53	27.029
727.84	27.081
728.16	26.949
728.47	27.050
728.79	27.126
729.10	27.135
729.42	27.067
729.73	27.138
730.05	27.073
730.36	27.134
730.67	27.255
730.99	27.165
731.30	27.124
731.62	27.310
731.93	27.278
732.24	27.244
732.56	27.268
732.87	27.361
733.19	27.415
733.50	27.424
733.81	27.446
734.13	27.615
734.44	27.715
734.76	27.745
735.07	27.652
735.38	27.609
735.70	27.720
736.01	27.714
736.32	27.665
736.64	27.822
736.95	27.825
737.26	27.864
737.58	27.776
737.89	27.879
738.20	27.958
738.52	28.001
738.83	28.053
739.14	27.873
739.45	27.903
739.77	28.074
740.08	27.885
740.39	28.063
740.71	28.167
741.02	28.204
741.33	28.138
741.64	28.003
741.96	28.041
742.27	28.185
742.58	28.237
742.90	28.367
743.21	28.194
743.52	28.239
743.83	28.219
744.14	28.182
744.46	28.168
744.77	28.175
745.08	28.261
745.39	28.253
745.71	28.103
746.02	28.160
746.33	27.985
746.64	27.855
746.95	27.894
747.27	27.837
747.58	27.699
747.89	27.544
748.20	27.465
748.51	27.583
748.82	27.435
749.14	27.457
749.45	27.342
749.76	27.327
750.07	27.425
750.38	27.390
750.69	27.452
751.01	27.632
751.32	27.591
751.63	27.517
751.94	27.280
752.25	27.191
752.56	27.062
752.87	27.138
753.18	27.020
753.49	26.994
753.81	26.860
754.12	26.679
754.43	26.555
754.74	26.835
755.05	26.986
755.36	27.237
755.67	27.641
755.98	28.067
756.29	28.068
756.60	28.304
756.91	28.387
757.22	28.675
757.53	28.936
757.84	29.205
758.15	29.386
758.46	29.630
758.77	29.694
759.09	29.698
759.40	29.519
759.71	29.644
760.02	29.702
760.33	29.652
760.64	29.596
760.95	29.603
761.26	29.481
761.57	29.264
761.88	29.183
762.18	29.027
762.49	28.907
762.80	28.876
763.11	28.808
763.42	28.615
763.73	28.492
764.04	28.335
764.35	28.193
764.66	27.974
764.97	27.796
765.28	27.566
765.59	27.507
765.90	27.158
766.21	26.752
766.52	26.390
766.83	26.242
767.14	26.280
767.44	25.951
767.75	25.537
768.06	25.278
768.37	24.964
768.68	24.759
768.99	24.464
769.30	24.542
769.61	24.487
769.91	24.532
770.22	24.324
770.53	24.018
770.84	24.195
771.15	24.085
771.46	24.063
771.77	24.087
772.07	23.972
772.38	23.855
772.69	23.670
773.00	23.726
773.31	23.593
773.61	23.539
773.92	23.385
774.23	23.160
774.54	23.155
774.85	23.051
775.15	22.921
775.46	22.873
775.77	22.975
776.08	23.077
776.39	22.885
776.69	22.836
777.00	22.879
777.31	23.217
777.62	23.157
777.92	23.145
778.23	23.272
778.54	23.331
778.85	23.528
779.15	23.342
779.46	23.492
779.77	23.759
780.07	23.936
780.38	24.071
780.69	23.702
781.00	23.775
781.30	23.797
781.61	23.480
781.92	23.563
782.22	23.484
782.53	23.454
782.84	23.461
783.14	23.549
783.45	23.309
783.76	23.475
784.06	23.434
784.37	23.317
784.68	23.408
784.98	24.061
785.29	24.144
785.60	24.367
785.90	24.671
786.21	24.616
786.51	24.676
786.82	24.973
787.13	25.016
787.43	25.334
787.74	25.676
788.04	25.921
788.35	25.957
788.66	25.837
788.96	25.519
789.27	25.657
789.57	25.461
789.88	25.370
790.19	25.400
790.49	25.250
790.80	25.363
791.10	25.450
791.41	25.316
791.71	24.893
792.02	25.179
792.32	25.207
792.63	25.091
792.93	25.066
793.24	25.166
793.54	25.050
793.85	25.084
794.15	24.778
794.46	24.663
794.76	24.524
795.07	24.815
795.37	24.804
795.68	24.831
795.98	25.014
796.29	25.392
796.59	25.172
796.90	25.386
797.20	25.250
797.51	25.599
797.81	25.367
798.12	25.695
798.42	25.866
798.72	25.892
799.03	25.956
799.33	25.556
799.64	25.408
799.94	25.459
800.25	25.450
800.55	25.535
800.85	25.573
801.16	25.841
801.46	25.728
801.77	25.283
802.07	25.580
802.37	25.695
802.68	25.649
802.98	25.458
803.28	25.585
803.59	25.529
803.89	25.503
804.20	25.327
804.50	25.309
804.80	25.728
805.11	25.927
805.41	25.711
805.71	25.738
806.02	26.042
806.32	26.185
806.62	26.346
806.93	26.275
807.23	26.612
807.53	26.985
807.83	27.098
808.14	27.148
808.44	27.425
808.74	27.332
809.05	27.093
809.35	27.271
809.65	27.739
809.95	27.714
810.26	27.360
810.56	27.450
810.86	27.335
811.16	27.442
811.47	27.145
811.77	27.603
812.07	27.837
812.37	27.973
812.68	28.020
812.98	27.893
813.28	27.956
813.58	28.279
813.88	28.116
814.19	28.431
814.49	28.585
814.79	28.672
815.09	28.648
815.39	28.821
815.70	29.293
816.00	29.030
816.30	28.782
816.60	28.792
816.90	29.109
817.20	29.369
817.50	29.439
817.81	29.362
818.11	29.454
818.41	29.319
818.71	29.292
819.01	29.487
819.31	29.874
819.61	30.141
819.92	30.290
820.22	30.579
820.52	30.653
820.82	30.757
821.12	30.995
821.42	31.202
821.72	31.452
822.02	31.787
822.32	32.048
822.62	32.218
822.92	32.363
823.22	32.537
823.52	32.591
823.83	32.751
824.13	32.757
824.43	32.664
824.73	32.643
825.03	32.579
825.33	32.429
825.63	32.266
825.93	32.185
826.23	32.042
826.53	31.973
826.83	31.828
827.13	31.959
827.43	32.041
827.73	32.189
828.03	32.303
828.33	32.473
828.63	32.604
828.93	32.499
829.23	32.372
829.53	32.353
829.83	32.493
830.13	32.384
830.42	32.269
830.72	32.419
831.02	32.465
831.32	32.198
831.62	32.055
831.92	31.765
832.22	31.885
832.52	31.588
832.82	31.668
833.12	31.654
833.42	31.736
833.72	31.528
834.01	31.574
834.31	31.719
834.61	32.050
834.91	32.258
835.21	32.431
835.51	32.500
835.81	32.569
836.11	32.679
836.40	32.498
836.70	32.951
837.00	33.025
837.30	32.968
837.60	32.953
837.90	32.719
838.19	32.099
838.49	31.744
838.79	31.179
839.09	31.410
839.39	31.564
839.68	31.387
839.98	30.050
840.28	29.370
840.58	29.090
840.88	28.545
841.17	27.533
841.47	27.956
841.77	28.388
842.07	28.256
842.36	27.844
842.66	27.005
842.96	26.432
843.26	26.285
843.55	26.198
843.85	25.613
844.15	24.866
844.45	24.229
844.74	23.990
845.04	23.199
845.34	22.532
845.63	22.151
845.93	22.225
846.23	23.449
846.53	24.879
846.82	25.853
847.12	26.831
847.42	27.023
847.71	26.547
848.01	25.548
848.31	25.753
848.60	25.240
848.90	25.227
849.19	25.171
849.49	24.535
849.79	24.635
850.08	25.024
850.38	22.746
850.68	21.904
850.97	24.755
851.27	24.931
851.56	24.029
851.86	25.808
852.16	27.778
852.45	27.069
852.75	26.018
853.04	27.001
853.34	25.829
853.64	26.450
853.93	26.892
854.23	25.045
854.52	24.765
854.82	26.302
855.11	24.609
855.41	22.296
855.70	22.898
856.00	23.203
856.30	21.656
856.59	22.504
856.89	24.978
857.18	25.811
857.48	26.302
857.77	25.532
858.07	24.197
858.36	24.886
858.66	26.179
858.95	26.478
859.25	26.250
859.54	25.740
859.84	24.100
860.13	21.795
860.42	22.153
860.72	21.518
861.01	20.368
861.31	21.783
861.60	21.415
861.90	20.588
862.19	20.302
862.49	20.833
862.78	21.517
863.07	21.974
863.37	23.118
863.66	23.153
863.96	24.104
864.25	26.331
864.54	25.454
864.84	26.257
865.13	27.916
865.43	27.717
865.72	30.944
866.01	28.452
866.31	29.539
866.60	39.113
866.89	23.622
>>>>>End Spectral Data<<<<<
