OOIBase32 Version 2.0.0.6 Data File
++++++++++++++++++++++++++++++++++++
Date: 01-23-2012, 23:24:55
User: Valued Ocean Optics Customer
Spectrometer Serial Number: USB2E2917
Spectrometer Channel: Master
Integration Time (msec): 5
Spectra Averaged: 10
Boxcar Smoothing: 5
Correct for Electrical Dark: Enabled
Time Normalized: Disabled
Dual-beam Reference: Disabled
Reference Channel: Master
Temperature: Not acquired
Spectrometer Type: S2000
ADC Type: USB2000
Number of Pixels in File: 2048
Graph Title: 
>>>>>Begin Spectral Data<<<<<
180.30	0.000
180.67	0.000
181.03	-14.391
181.40	141.215
181.77	-8038.379
182.14	75.982
182.51	-472.455
182.88	-36.381
183.25	19.004
183.62	35.795
183.99	286.145
184.36	67.365
184.73	385.143
185.10	9.750
185.46	53.770
185.83	-256.628
186.20	-664.059
186.57	84.249
186.94	-15.335
187.31	58.509
187.68	-117.316
188.05	66.197
188.42	42.448
188.78	68.951
189.15	131.461
189.52	24.837
189.89	-9.513
190.26	-20.988
190.63	-3.825
191.00	17.721
191.37	11.982
191.73	19.621
192.10	23.558
192.47	13.605
192.84	15.182
193.21	19.141
193.58	14.273
193.94	18.964
194.31	30.528
194.68	30.696
195.05	9.441
195.42	18.080
195.79	12.451
196.15	1.648
196.52	19.646
196.89	20.651
197.26	11.436
197.63	29.376
198.00	31.946
198.36	17.621
198.73	25.622
199.10	24.366
199.47	13.973
199.84	30.480
200.20	30.106
200.57	20.970
200.94	13.529
201.31	16.677
201.68	-1.128
202.04	-5.011
202.41	-6.504
202.78	-20.417
203.15	-17.688
203.51	-25.257
203.88	-32.348
204.25	-39.963
204.62	-64.149
204.98	-69.653
205.35	-75.402
205.72	-67.446
206.09	-72.949
206.46	-131.062
206.82	-111.772
207.19	-111.082
207.56	-151.466
207.92	-123.574
208.29	-144.925
208.66	-92.155
209.03	-98.390
209.39	-80.294
209.76	-87.633
210.13	-147.244
210.50	-99.413
210.86	-79.730
211.23	-79.989
211.60	-53.646
211.96	-54.792
212.33	-23.823
212.70	-26.729
213.07	-21.667
213.43	-34.488
213.80	-42.262
214.17	-3.131
214.53	5.262
214.90	8.914
215.27	4.540
215.63	4.392
216.00	4.260
216.37	2.117
216.74	-6.128
217.10	6.216
217.47	10.460
217.84	20.044
218.20	11.106
218.57	10.616
218.94	9.781
219.30	3.905
219.67	-3.125
220.04	2.561
220.40	-2.015
220.77	-0.862
221.13	-6.357
221.50	-4.594
221.87	-3.384
222.23	-3.973
222.60	-6.219
222.97	-10.290
223.33	-2.546
223.70	0.930
224.07	-1.279
224.43	-2.409
224.80	-1.722
225.16	-1.177
225.53	-2.898
225.90	-6.187
226.26	-4.984
226.63	-3.209
226.99	-0.515
227.36	1.395
227.73	2.311
228.09	1.540
228.46	3.319
228.82	4.923
229.19	4.917
229.56	5.413
229.92	7.427
230.29	7.073
230.65	6.373
231.02	5.244
231.38	2.209
231.75	0.069
232.12	-0.445
232.48	-3.239
232.85	-4.883
233.21	-5.232
233.58	-5.072
233.94	-5.429
234.31	-5.382
234.68	-4.366
235.04	-4.959
235.41	-3.182
235.77	-0.633
236.14	0.216
236.50	1.992
236.87	3.023
237.23	4.327
237.60	3.958
237.96	3.941
238.33	3.331
238.69	2.484
239.06	2.381
239.42	2.296
239.79	1.331
240.15	1.562
240.52	1.578
240.88	1.746
241.25	1.627
241.61	2.112
241.98	2.062
242.34	2.309
242.71	3.072
243.07	3.523
243.44	3.334
243.80	3.524
244.17	3.567
244.53	3.479
244.90	3.488
245.26	3.505
245.63	3.289
245.99	3.282
246.36	3.347
246.72	3.377
247.09	3.026
247.45	3.221
247.81	3.481
248.18	3.382
248.54	3.616
248.91	3.330
249.27	3.182
249.64	3.464
250.00	3.844
250.36	4.005
250.73	3.610
251.09	3.945
251.46	3.877
251.82	3.752
252.19	3.753
252.55	3.352
252.91	3.828
253.28	4.030
253.64	3.651
254.01	3.339
254.37	3.402
254.73	3.873
255.10	4.057
255.46	4.407
255.83	4.660
256.19	4.571
256.55	4.557
256.92	4.509
257.28	4.309
257.65	4.619
258.01	4.572
258.37	4.676
258.74	4.579
259.10	4.390
259.46	4.268
259.83	3.952
260.19	4.071
260.55	4.288
260.92	4.027
261.28	4.120
261.64	3.892
262.01	3.991
262.37	3.633
262.73	3.598
263.10	3.849
263.46	3.825
263.82	4.001
264.19	4.069
264.55	3.592
264.91	3.781
265.28	3.702
265.64	3.572
266.00	3.392
266.37	3.365
266.73	3.219
267.09	3.208
267.46	3.172
267.82	3.095
268.18	2.982
268.54	3.250
268.91	3.306
269.27	3.325
269.63	3.783
270.00	4.013
270.36	4.088
270.72	4.356
271.08	4.312
271.45	4.257
271.81	4.504
272.17	4.459
272.53	4.477
272.90	4.573
273.26	4.779
273.62	4.318
273.98	4.125
274.35	4.016
274.71	3.840
275.07	3.975
275.43	4.156
275.80	4.031
276.16	4.220
276.52	4.152
276.88	4.075
277.25	3.922
277.61	3.942
277.97	4.010
278.33	4.073
278.69	3.943
279.06	3.899
279.42	3.768
279.78	4.007
280.14	4.022
280.50	4.089
280.87	4.098
281.23	4.258
281.59	4.559
281.95	4.524
282.31	4.625
282.68	4.523
283.04	4.401
283.40	4.472
283.76	4.477
284.12	4.600
284.48	4.590
284.85	4.572
285.21	4.565
285.57	4.333
285.93	4.440
286.29	4.425
286.65	4.718
287.02	5.101
287.38	5.212
287.74	5.123
288.10	5.053
288.46	5.052
288.82	5.215
289.18	5.221
289.54	5.343
289.91	5.372
290.27	5.502
290.63	5.524
290.99	5.441
291.35	5.431
291.71	5.492
292.07	5.542
292.43	5.597
292.79	5.575
293.16	5.504
293.52	5.765
293.88	5.797
294.24	5.928
294.60	5.955
294.96	5.939
295.32	6.131
295.68	6.252
296.04	6.391
296.40	6.564
296.76	6.637
297.12	6.731
297.49	6.609
297.85	6.682
298.21	6.607
298.57	6.374
298.93	6.429
299.29	6.174
299.65	6.189
300.01	6.094
300.37	6.147
300.73	6.276
301.09	6.445
301.45	6.577
301.81	6.675
302.17	6.822
302.53	6.946
302.89	6.915
303.25	7.038
303.61	6.988
303.97	6.918
304.33	6.796
304.69	6.928
305.05	6.922
305.41	6.888
305.77	6.868
306.13	6.875
306.49	7.033
306.85	7.181
307.21	7.294
307.57	7.276
307.93	7.256
308.29	7.441
308.65	7.356
309.01	7.302
309.37	7.244
309.73	7.230
310.09	7.268
310.45	7.311
310.81	7.252
311.17	7.257
311.53	7.343
311.89	7.430
312.25	7.438
312.61	7.419
312.96	7.469
313.32	7.626
313.68	7.609
314.04	7.609
314.40	7.673
314.76	7.657
315.12	7.618
315.48	7.579
315.84	7.679
316.20	7.549
316.56	7.464
316.92	7.462
317.27	7.474
317.63	7.564
317.99	7.372
318.35	7.417
318.71	7.484
319.07	7.624
319.43	7.671
319.79	7.708
320.15	7.762
320.50	7.824
320.86	7.887
321.22	7.850
321.58	7.772
321.94	7.860
322.30	7.706
322.66	7.615
323.01	7.383
323.37	7.339
323.73	7.283
324.09	7.207
324.45	7.302
324.81	7.268
325.17	7.298
325.52	7.314
325.88	7.355
326.24	7.501
326.60	7.604
326.96	7.780
327.31	7.841
327.67	7.795
328.03	7.831
328.39	7.772
328.75	7.739
329.11	7.726
329.46	7.777
329.82	7.799
330.18	7.672
330.54	7.674
330.90	7.617
331.25	7.564
331.61	7.683
331.97	7.717
332.33	7.749
332.68	7.771
333.04	7.883
333.40	7.875
333.76	7.909
334.11	7.938
334.47	7.882
334.83	7.864
335.19	7.907
335.54	7.847
335.90	7.906
336.26	7.868
336.62	7.890
336.97	7.752
337.33	7.683
337.69	7.650
338.05	7.622
338.40	7.550
338.76	7.495
339.12	7.565
339.48	7.527
339.83	7.481
340.19	7.499
340.55	7.511
340.90	7.593
341.26	7.604
341.62	7.525
341.97	7.562
342.33	7.711
342.69	7.770
343.04	7.694
343.40	7.664
343.76	7.628
344.12	7.619
344.47	7.696
344.83	7.648
345.19	7.688
345.54	7.781
345.90	7.872
346.26	7.857
346.61	7.898
346.97	7.908
347.32	7.997
347.68	7.959
348.04	7.975
348.39	7.891
348.75	7.930
349.11	7.990
349.46	7.973
349.82	7.949
350.18	7.945
350.53	7.943
350.89	7.949
351.24	7.912
351.60	7.993
351.96	7.990
352.31	8.020
352.67	8.000
353.02	7.947
353.38	7.969
353.74	7.987
354.09	7.952
354.45	7.992
354.80	8.091
355.16	8.179
355.52	8.164
355.87	8.120
356.23	8.119
356.58	8.168
356.94	8.217
357.29	8.207
357.65	8.165
358.00	8.202
358.36	8.184
358.72	8.089
359.07	8.081
359.43	8.119
359.78	8.209
360.14	8.241
360.49	8.233
360.85	8.224
361.20	8.268
361.56	8.269
361.91	8.314
362.27	8.375
362.62	8.456
362.98	8.472
363.33	8.482
363.69	8.485
364.04	8.540
364.40	8.566
364.75	8.596
365.11	8.590
365.46	8.635
365.82	8.613
366.17	8.580
366.53	8.618
366.88	8.647
367.24	8.725
367.59	8.759
367.95	8.755
368.30	8.765
368.66	8.767
369.01	8.806
369.37	8.899
369.72	9.009
370.08	9.094
370.43	9.118
370.78	9.147
371.14	9.118
371.49	9.194
371.85	9.208
372.20	9.241
372.56	9.310
372.91	9.378
373.26	9.342
373.62	9.315
373.97	9.312
374.33	9.303
374.68	9.318
375.03	9.386
375.39	9.344
375.74	9.372
376.10	9.424
376.45	9.453
376.80	9.443
377.16	9.472
377.51	9.488
377.87	9.536
378.22	9.567
378.57	9.605
378.93	9.657
379.28	9.697
379.63	9.756
379.99	9.792
380.34	9.809
380.70	9.845
381.05	9.875
381.40	9.956
381.76	10.027
382.11	10.093
382.46	10.130
382.82	10.153
383.17	10.197
383.52	10.200
383.88	10.212
384.23	10.235
384.58	10.247
384.94	10.256
385.29	10.253
385.64	10.244
385.99	10.222
386.35	10.264
386.70	10.264
387.05	10.276
387.41	10.297
387.76	10.298
388.11	10.310
388.47	10.307
388.82	10.360
389.17	10.399
389.52	10.431
389.88	10.471
390.23	10.472
390.58	10.519
390.93	10.562
391.29	10.617
391.64	10.678
391.99	10.769
392.34	10.866
392.70	10.886
393.05	10.879
393.40	10.903
393.75	10.921
394.11	10.949
394.46	10.913
394.81	10.942
395.16	10.908
395.52	10.909
395.87	10.900
396.22	10.881
396.57	10.897
396.92	10.924
397.28	10.907
397.63	10.895
397.98	10.901
398.33	10.958
398.68	10.922
399.04	10.932
399.39	10.921
399.74	10.907
400.09	10.931
400.44	10.940
400.80	10.952
401.15	10.983
401.50	11.025
401.85	11.064
402.20	11.049
402.55	11.107
402.90	11.154
403.26	11.187
403.61	11.200
403.96	11.190
404.31	11.208
404.66	11.229
405.01	11.209
405.36	11.241
405.72	11.231
406.07	11.249
406.42	11.220
406.77	11.222
407.12	11.242
407.47	11.265
407.82	11.294
408.17	11.318
408.53	11.329
408.88	11.372
409.23	11.361
409.58	11.349
409.93	11.387
410.28	11.414
410.63	11.423
410.98	11.447
411.33	11.467
411.68	11.498
412.03	11.532
412.38	11.531
412.73	11.584
413.09	11.613
413.44	11.669
413.79	11.681
414.14	11.714
414.49	11.735
414.84	11.745
415.19	11.760
415.54	11.801
415.89	11.771
416.24	11.830
416.59	11.849
416.94	11.871
417.29	11.897
417.64	11.925
417.99	11.957
418.34	11.996
418.69	12.017
419.04	12.043
419.39	12.050
419.74	12.095
420.09	12.110
420.44	12.134
420.79	12.159
421.14	12.175
421.49	12.192
421.84	12.197
422.19	12.224
422.54	12.233
422.89	12.262
423.24	12.286
423.59	12.303
423.94	12.317
424.29	12.325
424.64	12.354
424.99	12.362
425.34	12.374
425.68	12.406
426.03	12.391
426.38	12.429
426.73	12.450
427.08	12.455
427.43	12.483
427.78	12.478
428.13	12.467
428.48	12.472
428.83	12.479
429.18	12.480
429.53	12.502
429.87	12.526
430.22	12.518
430.57	12.530
430.92	12.535
431.27	12.560
431.62	12.583
431.97	12.612
432.32	12.616
432.67	12.623
433.01	12.649
433.36	12.645
433.71	12.664
434.06	12.700
434.41	12.676
434.76	12.700
435.11	12.713
435.45	12.738
435.80	12.762
436.15	12.777
436.50	12.797
436.85	12.821
437.20	12.830
437.54	12.843
437.89	12.853
438.24	12.886
438.59	12.909
438.94	12.930
439.29	12.937
439.63	12.951
439.98	12.977
440.33	13.007
440.68	13.026
441.03	13.052
441.37	13.058
441.72	13.097
442.07	13.129
442.42	13.153
442.76	13.180
443.11	13.211
443.46	13.244
443.81	13.257
444.16	13.290
444.50	13.304
444.85	13.332
445.20	13.381
445.55	13.400
445.89	13.422
446.24	13.454
446.59	13.463
446.94	13.480
447.28	13.490
447.63	13.507
447.98	13.510
448.32	13.541
448.67	13.560
449.02	13.561
449.37	13.565
449.71	13.604
450.06	13.629
450.41	13.662
450.75	13.677
451.10	13.687
451.45	13.715
451.79	13.746
452.14	13.778
452.49	13.822
452.84	13.836
453.18	13.863
453.53	13.846
453.88	13.858
454.22	13.863
454.57	13.886
454.92	13.912
455.26	13.944
455.61	13.991
455.95	14.023
456.30	14.028
456.65	14.091
456.99	14.127
457.34	14.179
457.69	14.190
458.03	14.216
458.38	14.254
458.73	14.269
459.07	14.293
459.42	14.296
459.76	14.294
460.11	14.313
460.46	14.290
460.80	14.301
461.15	14.296
461.49	14.287
461.84	14.309
462.19	14.326
462.53	14.366
462.88	14.418
463.22	14.429
463.57	14.458
463.91	14.464
464.26	14.520
464.61	14.540
464.95	14.554
465.30	14.579
465.64	14.604
465.99	14.613
466.33	14.646
466.68	14.640
467.02	14.668
467.37	14.693
467.71	14.720
468.06	14.736
468.41	14.747
468.75	14.770
469.10	14.816
469.44	14.833
469.79	14.844
470.13	14.819
470.48	14.825
470.82	14.854
471.17	14.868
471.51	14.885
471.86	14.888
472.20	14.896
472.55	14.907
472.89	14.934
473.23	14.949
473.58	14.974
473.92	14.992
474.27	15.016
474.61	15.019
474.96	15.026
475.30	15.057
475.65	15.072
475.99	15.096
476.34	15.120
476.68	15.103
477.02	15.100
477.37	15.114
477.71	15.176
478.06	15.229
478.40	15.314
478.75	15.473
479.09	15.637
479.43	15.849
479.78	16.151
480.12	16.459
480.47	16.790
480.81	17.131
481.15	17.461
481.50	17.798
481.84	18.185
482.19	18.603
482.53	18.941
482.87	19.170
483.22	19.214
483.56	19.047
483.90	18.776
484.25	18.440
484.59	18.036
484.94	17.693
485.28	17.376
485.62	17.011
485.97	16.604
486.31	16.271
486.65	16.027
487.00	15.950
487.34	16.002
487.68	16.132
488.03	16.306
488.37	16.504
488.71	16.626
489.06	16.664
489.40	16.674
489.74	16.685
490.09	16.664
490.43	16.659
490.77	16.636
491.11	16.604
491.46	16.584
491.80	16.544
492.14	16.519
492.49	16.490
492.83	16.469
493.17	16.459
493.51	16.422
493.86	16.409
494.20	16.412
494.54	16.420
494.88	16.438
495.23	16.477
495.57	16.509
495.91	16.561
496.25	16.607
496.60	16.637
496.94	16.645
497.28	16.685
497.62	16.710
497.97	16.719
498.31	16.757
498.65	16.808
498.99	16.819
499.33	16.862
499.68	16.894
500.02	16.926
500.36	16.965
500.70	17.031
501.04	17.050
501.39	17.093
501.73	17.141
502.07	17.189
502.41	17.247
502.75	17.310
503.09	17.356
503.44	17.413
503.78	17.449
504.12	17.500
504.46	17.526
504.80	17.592
505.14	17.656
505.49	17.711
505.83	17.767
506.17	17.804
506.51	17.882
506.85	17.949
507.19	17.994
507.53	18.057
507.87	18.112
508.22	18.169
508.56	18.226
508.90	18.274
509.24	18.318
509.58	18.363
509.92	18.438
510.26	18.463
510.60	18.516
510.94	18.592
511.28	18.632
511.63	18.705
511.97	18.785
512.31	18.843
512.65	18.886
512.99	18.959
513.33	19.074
513.67	19.163
514.01	19.288
514.35	19.384
514.69	19.453
515.03	19.566
515.37	19.650
515.71	19.733
516.05	19.811
516.39	19.905
516.73	19.986
517.07	20.016
517.41	20.057
517.75	20.090
518.09	20.130
518.43	20.181
518.77	20.175
519.11	20.199
519.45	20.224
519.79	20.281
520.13	20.320
520.47	20.369
520.81	20.428
521.15	20.486
521.49	20.545
521.83	20.625
522.17	20.709
522.51	20.836
522.85	20.938
523.19	21.067
523.53	21.239
523.87	21.450
524.21	21.661
524.55	21.875
524.89	22.077
525.23	22.272
525.57	22.426
525.91	22.591
526.25	22.743
526.58	22.890
526.92	22.997
527.26	23.049
527.60	23.054
527.94	23.050
528.28	23.021
528.62	22.984
528.96	22.937
529.30	22.913
529.64	22.846
529.97	22.774
530.31	22.699
530.65	22.647
530.99	22.632
531.33	22.659
531.67	22.668
532.01	22.714
532.35	22.733
532.68	22.741
533.02	22.717
533.36	22.730
533.70	22.738
534.04	22.730
534.38	22.729
534.71	22.715
535.05	22.685
535.39	22.686
535.73	22.645
536.07	22.649
536.41	22.677
536.74	22.743
537.08	22.783
537.42	22.865
537.76	22.940
538.10	23.029
538.43	23.131
538.77	23.250
539.11	23.344
539.45	23.442
539.79	23.530
540.12	23.587
540.46	23.637
540.80	23.664
541.14	23.643
541.47	23.624
541.81	23.609
542.15	23.582
542.49	23.516
542.82	23.464
543.16	23.403
543.50	23.346
543.84	23.302
544.17	23.238
544.51	23.235
544.85	23.236
545.18	23.281
545.52	23.286
545.86	23.291
546.20	23.333
546.53	23.347
546.87	23.356
547.21	23.359
547.54	23.373
547.88	23.399
548.22	23.384
548.55	23.408
548.89	23.412
549.23	23.433
549.56	23.415
549.90	23.437
550.24	23.452
550.57	23.471
550.91	23.492
551.25	23.517
551.58	23.545
551.92	23.561
552.26	23.579
552.59	23.613
552.93	23.631
553.27	23.697
553.60	23.711
553.94	23.740
554.27	23.756
554.61	23.807
554.95	23.827
555.28	23.841
555.62	23.886
555.95	23.926
556.29	23.958
556.63	23.970
556.96	23.992
557.30	23.977
557.63	23.962
557.97	23.981
558.31	23.942
558.64	23.960
558.98	23.985
559.31	24.035
559.65	24.051
559.98	24.053
560.32	24.070
560.65	24.076
560.99	24.081
561.33	24.136
561.66	24.173
562.00	24.211
562.33	24.218
562.67	24.242
563.00	24.202
563.34	24.234
563.67	24.239
564.01	24.275
564.34	24.300
564.68	24.366
565.01	24.362
565.35	24.389
565.68	24.405
566.02	24.391
566.35	24.391
566.69	24.429
567.02	24.449
567.36	24.457
567.69	24.466
568.03	24.480
568.36	24.492
568.69	24.509
569.03	24.521
569.36	24.513
569.70	24.569
570.03	24.589
570.37	24.587
570.70	24.585
571.04	24.590
571.37	24.588
571.70	24.579
572.04	24.574
572.37	24.578
572.71	24.544
573.04	24.577
573.37	24.585
573.71	24.616
574.04	24.633
574.38	24.653
574.71	24.705
575.04	24.699
575.38	24.700
575.71	24.663
576.05	24.663
576.38	24.731
576.71	24.718
577.05	24.704
577.38	24.667
577.71	24.663
578.05	24.617
578.38	24.570
578.71	24.579
579.05	24.582
579.38	24.601
579.71	24.615
580.05	24.551
580.38	24.594
580.71	24.608
581.05	24.608
581.38	24.610
581.71	24.634
582.05	24.622
582.38	24.632
582.71	24.627
583.04	24.684
583.38	24.686
583.71	24.721
584.04	24.708
584.38	24.704
584.71	24.715
585.04	24.728
585.37	24.738
585.71	24.811
586.04	24.786
586.37	24.859
586.70	24.842
587.04	24.854
587.37	24.855
587.70	24.880
588.03	24.894
588.37	24.907
588.70	24.939
589.03	24.921
589.36	24.880
589.69	24.927
590.03	24.908
590.36	24.906
590.69	24.883
591.02	24.889
591.35	24.906
591.69	24.900
592.02	24.921
592.35	24.896
592.68	24.930
593.01	24.920
593.35	24.929
593.68	24.940
594.01	24.952
594.34	24.947
594.67	24.946
595.00	24.900
595.34	24.897
595.67	24.879
596.00	24.899
596.33	24.874
596.66	24.885
596.99	24.854
597.32	24.854
597.65	24.828
597.99	24.850
598.32	24.870
598.65	24.863
598.98	24.865
599.31	24.867
599.64	24.857
599.97	24.850
600.30	24.845
600.63	24.868
600.96	24.871
601.30	24.922
601.63	24.939
601.96	24.962
602.29	25.011
602.62	24.998
602.95	25.028
603.28	25.018
603.61	25.057
603.94	25.068
604.27	25.116
604.60	25.117
604.93	25.111
605.26	25.109
605.59	25.094
605.92	25.077
606.25	25.113
606.58	25.136
606.91	25.114
607.24	25.139
607.57	25.142
607.90	25.124
608.23	25.090
608.56	25.065
608.89	25.083
609.22	25.076
609.55	25.071
609.88	25.048
610.21	24.999
610.54	25.030
610.87	24.967
611.20	24.973
611.53	24.947
611.86	24.944
612.19	24.959
612.52	24.927
612.85	24.893
613.18	24.892
613.51	24.862
613.84	24.843
614.17	24.831
614.49	24.872
614.82	24.848
615.15	24.809
615.48	24.817
615.81	24.787
616.14	24.788
616.47	24.804
616.80	24.787
617.13	24.793
617.46	24.799
617.78	24.786
618.11	24.783
618.44	24.804
618.77	24.816
619.10	24.794
619.43	24.829
619.76	24.800
620.09	24.811
620.41	24.848
620.74	24.891
621.07	24.927
621.40	24.968
621.73	24.920
622.06	24.922
622.38	24.921
622.71	24.946
623.04	25.006
623.37	25.063
623.70	25.096
624.02	25.133
624.35	25.122
624.68	25.129
625.01	25.146
625.34	25.232
625.66	25.258
625.99	25.296
626.32	25.326
626.65	25.297
626.98	25.307
627.30	25.294
627.63	25.284
627.96	25.295
628.29	25.250
628.61	25.274
628.94	25.238
629.27	25.220
629.60	25.185
629.92	25.206
630.25	25.162
630.58	25.126
630.91	25.156
631.23	25.155
631.56	25.204
631.89	25.237
632.21	25.198
632.54	25.200
632.87	25.218
633.19	25.250
633.52	25.237
633.85	25.246
634.18	25.244
634.50	25.219
634.83	25.192
635.16	25.117
635.48	25.087
635.81	25.091
636.14	25.077
636.46	25.088
636.79	25.042
637.11	24.961
637.44	24.947
637.77	24.908
638.09	24.840
638.42	24.756
638.75	24.722
639.07	24.707
639.40	24.626
639.73	24.568
640.05	24.456
640.38	24.453
640.70	24.447
641.03	24.397
641.36	24.402
641.68	24.377
642.01	24.383
642.33	24.381
642.66	24.405
642.98	24.405
643.31	24.412
643.64	24.421
643.96	24.393
644.29	24.385
644.61	24.351
644.94	24.354
645.26	24.385
645.59	24.426
645.91	24.426
646.24	24.371
646.56	24.394
646.89	24.386
647.22	24.402
647.54	24.403
647.87	24.444
648.19	24.482
648.52	24.450
648.84	24.465
649.17	24.425
649.49	24.462
649.82	24.486
650.14	24.508
650.47	24.540
650.79	24.548
651.11	24.571
651.44	24.513
651.76	24.485
652.09	24.541
652.41	24.589
652.74	24.611
653.06	24.606
653.39	24.644
653.71	24.639
654.04	24.619
654.36	24.674
654.68	24.694
655.01	24.729
655.33	24.745
655.66	24.699
655.98	24.664
656.30	24.595
656.63	24.596
656.95	24.565
657.28	24.499
657.60	24.441
657.92	24.394
658.25	24.335
658.57	24.351
658.90	24.371
659.22	24.408
659.54	24.383
659.87	24.427
660.19	24.378
660.51	24.334
660.84	24.365
661.16	24.378
661.48	24.365
661.81	24.362
662.13	24.296
662.45	24.264
662.78	24.216
663.10	24.196
663.42	24.185
663.75	24.188
664.07	24.193
664.39	24.180
664.72	24.202
665.04	24.215
665.36	24.288
665.69	24.335
666.01	24.380
666.33	24.405
666.65	24.378
666.98	24.371
667.30	24.363
667.62	24.420
667.94	24.441
668.27	24.416
668.59	24.417
668.91	24.417
669.23	24.451
669.56	24.480
669.88	24.539
670.20	24.622
670.52	24.699
670.85	24.745
671.17	24.763
671.49	24.837
671.81	24.926
672.13	24.991
672.46	25.050
672.78	25.117
673.10	25.152
673.42	25.189
673.74	25.255
674.07	25.345
674.39	25.452
674.71	25.496
675.03	25.569
675.35	25.640
675.67	25.699
676.00	25.758
676.32	25.776
676.64	25.909
676.96	25.951
677.28	26.029
677.60	26.098
677.92	26.231
678.25	26.374
678.57	26.498
678.89	26.625
679.21	26.729
679.53	26.819
679.85	26.944
680.17	26.982
680.49	27.141
680.81	27.249
681.13	27.373
681.46	27.405
681.78	27.523
682.10	27.623
682.42	27.738
682.74	27.933
683.06	28.057
683.38	28.265
683.70	28.466
684.02	28.632
684.34	28.880
684.66	29.047
684.98	29.278
685.30	29.443
685.62	29.595
685.94	29.774
686.26	29.821
686.58	29.951
686.90	30.040
687.22	30.170
687.54	30.237
687.86	30.210
688.18	30.352
688.50	30.411
688.82	30.483
689.14	30.562
689.46	30.686
689.78	30.789
690.10	30.956
690.42	31.080
690.74	31.157
691.06	31.301
691.38	31.435
691.70	31.503
692.02	31.611
692.34	31.733
692.66	31.886
692.98	31.938
693.30	32.055
693.62	32.130
693.94	32.135
694.26	32.215
694.57	32.289
694.89	32.485
695.21	32.537
695.53	32.673
695.85	32.652
696.17	32.705
696.49	32.793
696.81	32.908
697.13	32.967
697.44	33.049
697.76	33.125
698.08	33.235
698.40	33.225
698.72	33.305
699.04	33.344
699.36	33.554
699.67	33.619
699.99	33.692
700.31	33.792
700.63	33.929
700.95	34.065
701.27	34.174
701.58	34.220
701.90	34.331
702.22	34.462
702.54	34.546
702.86	34.634
703.17	34.683
703.49	34.658
703.81	34.666
704.13	34.674
704.45	34.720
704.76	34.816
705.08	34.903
705.40	34.950
705.72	34.975
706.03	34.972
706.35	34.932
706.67	34.995
706.99	35.202
707.30	35.368
707.62	35.479
707.94	35.592
708.26	35.665
708.57	35.663
708.89	35.837
709.21	35.951
709.53	36.087
709.84	36.184
710.16	36.366
710.48	36.444
710.79	36.495
711.11	36.562
711.43	36.616
711.74	36.748
712.06	36.925
712.38	36.986
712.69	37.019
713.01	37.190
713.33	37.279
713.64	37.372
713.96	37.426
714.28	37.534
714.59	37.712
714.91	37.896
715.23	37.975
715.54	38.044
715.86	38.231
716.17	38.453
716.49	38.631
716.81	38.778
717.12	38.872
717.44	39.069
717.76	39.237
718.07	39.263
718.39	39.242
718.70	39.268
719.02	39.445
719.33	39.354
719.65	39.249
719.97	39.165
720.28	39.321
720.60	39.459
720.91	39.598
721.23	39.627
721.54	39.718
721.86	39.847
722.17	39.946
722.49	39.974
722.81	39.965
723.12	40.139
723.44	40.201
723.75	40.264
724.07	40.193
724.38	40.152
724.70	40.218
725.01	40.324
725.33	40.477
725.64	40.496
725.96	40.427
726.27	40.516
726.59	40.528
726.90	40.658
727.22	40.561
727.53	40.644
727.84	40.684
728.16	40.626
728.47	40.615
728.79	40.634
729.10	40.660
729.42	40.795
729.73	40.940
730.05	41.020
730.36	41.002
730.67	41.176
730.99	41.209
731.30	41.268
731.62	41.360
731.93	41.303
732.24	41.202
732.56	41.241
732.87	41.219
733.19	41.261
733.50	41.233
733.81	41.071
734.13	40.866
734.44	40.803
734.76	40.733
735.07	40.714
735.38	40.773
735.70	41.008
736.01	41.149
736.32	41.285
736.64	41.172
736.95	41.286
737.26	41.470
737.58	41.769
737.89	41.893
738.20	41.881
738.52	42.025
738.83	42.076
739.14	42.000
739.45	41.832
739.77	41.815
740.08	41.890
740.39	41.835
740.71	41.890
741.02	41.653
741.33	41.563
741.64	41.578
741.96	41.449
742.27	41.530
742.58	41.463
742.90	41.493
743.21	41.309
743.52	41.351
743.83	41.369
744.14	41.338
744.46	41.516
744.77	41.464
745.08	41.458
745.39	41.590
745.71	41.466
746.02	41.417
746.33	41.545
746.64	41.529
746.95	41.584
747.27	41.792
747.58	41.951
747.89	41.977
748.20	42.078
748.51	42.119
748.82	42.165
749.14	42.226
749.45	42.352
749.76	42.387
750.07	42.723
750.38	42.631
750.69	42.566
751.01	42.461
751.32	42.400
751.63	42.457
751.94	42.488
752.25	42.371
752.56	42.474
752.87	42.391
753.18	42.350
753.49	42.192
753.81	42.418
754.12	42.471
754.43	42.601
754.74	42.655
755.05	42.751
755.36	42.778
755.67	42.982
755.98	43.140
756.29	43.461
756.60	43.760
756.91	44.011
757.22	44.199
757.53	44.227
757.84	44.432
758.15	44.686
758.46	44.952
758.77	45.355
759.09	45.570
759.40	45.750
759.71	45.796
760.02	45.745
760.33	45.807
760.64	45.759
760.95	45.961
761.26	45.928
761.57	45.904
761.88	45.835
762.18	45.699
762.49	45.497
762.80	45.426
763.11	45.330
763.42	45.301
763.73	45.293
764.04	45.230
764.35	45.040
764.66	44.904
764.97	44.752
765.28	44.675
765.59	44.520
765.90	44.487
766.21	44.164
766.52	44.090
766.83	43.840
767.14	43.484
767.44	43.132
767.75	42.985
768.06	42.776
768.37	42.633
768.68	42.406
768.99	42.357
769.30	42.181
769.61	42.305
769.91	42.032
770.22	41.999
770.53	42.023
770.84	42.060
771.15	41.888
771.46	42.114
771.77	42.462
772.07	42.579
772.38	42.478
772.69	42.517
773.00	42.386
773.31	42.704
773.61	42.634
773.92	42.597
774.23	42.739
774.54	42.760
774.85	42.286
775.15	41.947
775.46	41.801
775.77	41.920
776.08	41.996
776.39	41.657
776.69	41.554
777.00	41.651
777.31	41.617
777.62	41.690
777.92	41.674
778.23	41.824
778.54	41.876
778.85	41.812
779.15	41.770
779.46	41.706
779.77	42.120
780.07	42.092
780.38	42.447
780.69	42.534
781.00	42.438
781.30	42.805
781.61	43.007
781.92	43.047
782.22	43.453
782.53	43.163
782.84	43.244
783.14	43.459
783.45	43.371
783.76	43.358
784.06	43.344
784.37	43.190
784.68	42.951
784.98	43.035
785.29	43.108
785.60	43.047
785.90	43.478
786.21	43.497
786.51	43.415
786.82	43.842
787.13	44.067
787.43	44.485
787.74	45.010
788.04	45.417
788.35	45.512
788.66	45.692
788.96	45.877
789.27	46.115
789.57	46.240
789.88	46.430
790.19	46.216
790.49	45.796
790.80	45.638
791.10	45.293
791.41	45.043
791.71	44.897
792.02	44.662
792.32	44.675
792.63	44.520
792.93	44.364
793.24	44.297
793.54	44.376
793.85	44.544
794.15	44.333
794.46	44.545
794.76	44.751
795.07	44.882
795.37	45.006
795.68	44.951
795.98	44.846
796.29	45.264
796.59	45.176
796.90	45.228
797.20	45.309
797.51	45.263
797.81	44.960
798.12	45.190
798.42	45.351
798.72	45.545
799.03	45.522
799.33	45.559
799.64	45.461
799.94	45.666
800.25	45.622
800.55	45.687
800.85	46.064
801.16	46.557
801.46	45.674
801.77	45.404
802.07	45.575
802.37	45.811
802.68	45.519
802.98	45.325
803.28	45.094
803.59	45.286
803.89	45.460
804.20	45.340
804.50	45.138
804.80	45.773
805.11	45.925
805.41	45.501
805.71	45.261
806.02	45.747
806.32	46.107
806.62	46.329
806.93	46.519
807.23	46.704
807.53	46.869
807.83	46.762
808.14	47.097
808.44	47.213
808.74	47.660
809.05	47.620
809.35	47.519
809.65	47.765
809.95	47.767
810.26	47.401
810.56	47.058
810.86	47.068
811.16	47.777
811.47	47.924
811.77	48.511
812.07	48.318
812.37	48.621
812.68	48.973
812.98	48.926
813.28	49.314
813.58	50.189
813.88	49.678
814.19	50.350
814.49	50.318
814.79	49.846
815.09	49.565
815.39	49.688
815.70	49.776
816.00	49.511
816.30	49.237
816.60	48.943
816.90	48.570
817.20	49.155
817.50	49.095
817.81	48.750
818.11	48.914
818.41	48.991
818.71	49.103
819.01	49.233
819.31	49.620
819.61	49.824
819.92	50.078
820.22	50.370
820.52	50.499
820.82	50.618
821.12	50.948
821.42	51.160
821.72	51.280
822.02	51.575
822.32	51.914
822.62	52.138
822.92	52.341
823.22	52.552
823.52	52.652
823.83	52.892
824.13	53.035
824.43	52.948
824.73	53.033
825.03	53.118
825.33	53.071
825.63	52.853
825.93	52.699
826.23	52.637
826.53	52.493
826.83	52.347
827.13	52.220
827.43	52.255
827.73	52.568
828.03	52.669
828.33	52.818
828.63	52.851
828.93	52.836
829.23	52.867
829.53	52.519
829.83	52.570
830.13	52.551
830.42	52.464
830.72	52.068
831.02	51.894
831.32	51.742
831.62	51.752
831.92	51.506
832.22	51.487
832.52	51.166
832.82	51.553
833.12	51.496
833.42	51.608
833.72	51.593
834.01	51.928
834.31	51.870
834.61	52.035
834.91	52.476
835.21	52.954
835.51	53.297
835.81	53.433
836.11	53.349
836.40	53.200
836.70	53.539
837.00	53.692
837.30	53.508
837.60	53.536
837.90	52.968
838.19	52.343
838.49	51.794
838.79	51.319
839.09	51.483
839.39	51.146
839.68	51.089
839.98	50.484
840.28	50.546
840.58	50.417
840.88	50.701
841.17	50.505
841.47	50.213
841.77	50.239
842.07	50.031
842.36	49.689
842.66	49.352
842.96	49.012
843.26	47.660
843.55	46.609
843.85	46.308
844.15	45.303
844.45	44.629
844.74	44.969
845.04	45.140
845.34	45.745
845.63	46.609
845.93	48.035
846.23	48.614
846.53	50.077
846.82	50.684
847.12	51.872
847.42	51.933
847.71	53.424
848.01	53.748
848.31	53.211
848.60	52.946
848.90	50.732
849.19	50.400
849.49	50.120
849.79	50.862
850.08	50.569
850.38	48.606
850.68	48.122
850.97	47.322
851.27	46.122
851.56	46.702
851.86	45.651
852.16	47.246
852.45	45.581
852.75	45.909
853.04	47.135
853.34	47.062
853.64	47.933
853.93	47.698
854.23	48.854
854.52	50.455
854.82	49.154
855.11	49.518
855.41	50.882
855.70	53.315
856.00	52.673
856.30	50.066
856.59	50.341
856.89	50.930
857.18	52.370
857.48	51.847
857.77	49.776
858.07	49.905
858.36	50.579
858.66	49.435
858.95	48.391
859.25	49.024
859.54	49.226
859.84	48.264
860.13	46.635
860.42	46.343
860.72	45.999
861.01	48.674
861.31	50.248
861.60	51.544
861.90	51.722
862.19	51.752
862.49	52.135
862.78	53.072
863.07	53.030
863.37	53.749
863.66	52.865
863.96	55.664
864.25	53.759
864.54	53.505
864.84	53.849
865.13	53.253
865.43	54.433
865.72	47.773
866.01	57.566
866.31	70.374
866.60	43.275
866.89	59.959
>>>>>End Spectral Data<<<<<
