OOIBase32 Version 2.0.0.6 Data File
++++++++++++++++++++++++++++++++++++
Date: 01-23-2012, 23:25:20
User: Valued Ocean Optics Customer
Spectrometer Serial Number: USB2E2917
Spectrometer Channel: Master
Integration Time (msec): 5
Spectra Averaged: 10
Boxcar Smoothing: 5
Correct for Electrical Dark: Enabled
Time Normalized: Disabled
Dual-beam Reference: Disabled
Reference Channel: Master
Temperature: Not acquired
Spectrometer Type: S2000
ADC Type: USB2000
Number of Pixels in File: 2048
Graph Title: 
>>>>>Begin Spectral Data<<<<<
180.30	0.000
180.67	0.000
181.03	39.759
181.40	347.260
181.77	-5187.997
182.14	48.727
182.51	-937.875
182.88	103.119
183.25	120.609
183.62	94.122
183.99	-302.493
184.36	109.548
184.73	209.655
185.10	-5.357
185.46	-674.763
185.83	130.268
186.20	-313.551
186.57	-8.319
186.94	-21.881
187.31	44.611
187.68	52.459
188.05	132.732
188.42	157.182
188.78	226.253
189.15	518.073
189.52	-101.636
189.89	-8.451
190.26	23.411
190.63	5.558
191.00	16.503
191.37	23.267
191.73	41.299
192.10	33.147
192.47	32.240
192.84	32.965
193.21	43.886
193.58	37.535
193.94	23.393
194.31	28.301
194.68	41.093
195.05	49.185
195.42	55.182
195.79	41.790
196.15	54.372
196.52	63.920
196.89	38.444
197.26	-4.907
197.63	6.684
198.00	44.425
198.36	47.478
198.73	18.208
199.10	-10.577
199.47	-4.826
199.84	5.580
200.20	-0.711
200.57	-12.388
200.94	-0.625
201.31	21.559
201.68	25.041
202.04	21.990
202.41	10.378
202.78	21.867
203.15	27.857
203.51	19.730
203.88	18.291
204.25	26.120
204.62	23.402
204.98	4.526
205.35	-25.779
205.72	-43.829
206.09	-57.996
206.46	-102.261
206.82	-80.996
207.19	-75.579
207.56	-113.578
207.92	-119.013
208.29	-135.493
208.66	-72.012
209.03	-49.261
209.39	-19.494
209.76	-6.118
210.13	-37.646
210.50	-29.456
210.86	-18.022
211.23	-29.262
211.60	-16.829
211.96	-13.158
212.33	-10.931
212.70	-34.509
213.07	-42.590
213.43	-69.075
213.80	-82.600
214.17	-36.056
214.53	-18.918
214.90	-25.993
215.27	-20.016
215.63	-29.572
216.00	-29.649
216.37	-24.567
216.74	-20.018
217.10	-15.818
217.47	-19.337
217.84	-17.869
218.20	-19.059
218.57	-13.114
218.94	-5.146
219.30	-5.536
219.67	-13.081
220.04	-7.177
220.40	-9.697
220.77	-11.426
221.13	-7.656
221.50	-0.595
221.87	10.467
222.23	3.606
222.60	-4.912
222.97	-12.539
223.33	-11.210
223.70	-8.518
224.07	-9.238
224.43	-10.795
224.80	-9.521
225.16	-11.855
225.53	-11.505
225.90	-13.411
226.26	-10.217
226.63	-7.657
226.99	-5.728
227.36	-4.068
227.73	-1.251
228.09	-1.461
228.46	0.084
228.82	1.459
229.19	2.925
229.56	5.463
229.92	6.956
230.29	6.953
230.65	6.413
231.02	4.466
231.38	2.643
231.75	0.537
232.12	-1.311
232.48	-2.454
232.85	-3.188
233.21	-3.336
233.58	-7.040
233.94	-7.530
234.31	-7.317
234.68	-5.851
235.04	-5.295
235.41	-4.660
235.77	-2.477
236.14	-0.381
236.50	0.903
236.87	0.711
237.23	1.603
237.60	1.559
237.96	2.337
238.33	1.736
238.69	0.230
239.06	0.465
239.42	0.811
239.79	0.264
240.15	0.070
240.52	0.074
240.88	0.619
241.25	0.856
241.61	1.683
241.98	1.344
242.34	1.679
242.71	2.443
243.07	2.908
243.44	2.984
243.80	3.178
244.17	3.207
244.53	2.955
244.90	2.710
245.26	2.377
245.63	1.916
245.99	1.753
246.36	1.564
246.72	1.576
247.09	0.904
247.45	0.897
247.81	1.113
248.18	1.209
248.54	1.171
248.91	1.064
249.27	1.120
249.64	1.472
250.00	1.550
250.36	1.721
250.73	1.644
251.09	2.545
251.46	2.257
251.82	1.956
252.19	1.676
252.55	1.861
252.91	2.496
253.28	2.599
253.64	2.008
254.01	2.294
254.37	2.533
254.73	2.712
255.10	2.595
255.46	2.855
255.83	2.604
256.19	2.607
256.55	2.327
256.92	2.014
257.28	2.065
257.65	2.394
258.01	2.359
258.37	2.280
258.74	2.125
259.10	2.083
259.46	1.966
259.83	1.994
260.19	2.008
260.55	2.101
260.92	2.146
261.28	1.927
261.64	1.862
262.01	1.941
262.37	1.808
262.73	1.771
263.10	1.569
263.46	1.375
263.82	1.329
264.19	1.306
264.55	1.151
264.91	1.078
265.28	1.179
265.64	1.391
266.00	1.238
266.37	1.480
266.73	1.489
267.09	1.752
267.46	1.945
267.82	1.880
268.18	1.819
268.54	2.132
268.91	2.185
269.27	2.076
269.63	2.042
270.00	2.039
270.36	1.861
270.72	2.094
271.08	1.937
271.45	1.839
271.81	1.777
272.17	1.765
272.53	1.900
272.90	1.984
273.26	2.311
273.62	2.150
273.98	2.149
274.35	2.068
274.71	1.938
275.07	1.939
275.43	2.019
275.80	2.264
276.16	2.484
276.52	2.143
276.88	1.934
277.25	1.538
277.61	1.386
277.97	1.261
278.33	1.306
278.69	1.120
279.06	1.221
279.42	1.219
279.78	1.298
280.14	1.217
280.50	1.371
280.87	1.650
281.23	1.916
281.59	1.953
281.95	2.061
282.31	2.190
282.68	2.161
283.04	2.093
283.40	2.192
283.76	2.224
284.12	2.387
284.48	2.334
284.85	2.236
285.21	2.141
285.57	2.121
285.93	2.164
286.29	1.946
286.65	2.002
287.02	2.324
287.38	2.329
287.74	2.184
288.10	2.125
288.46	2.171
288.82	2.212
289.18	2.283
289.54	2.542
289.91	2.484
290.27	2.758
290.63	2.911
290.99	2.709
291.35	2.649
291.71	2.620
292.07	2.429
292.43	2.501
292.79	2.393
293.16	2.392
293.52	2.351
293.88	2.467
294.24	2.360
294.60	2.296
294.96	2.302
295.32	2.302
295.68	2.324
296.04	2.357
296.40	2.251
296.76	2.318
297.12	2.273
297.49	2.150
297.85	1.985
298.21	1.973
298.57	1.887
298.93	1.854
299.29	1.777
299.65	1.741
300.01	1.849
300.37	1.943
300.73	1.977
301.09	1.839
301.45	1.866
301.81	1.987
302.17	2.045
302.53	1.982
302.89	1.942
303.25	1.907
303.61	1.854
303.97	1.557
304.33	1.629
304.69	1.710
305.05	1.693
305.41	1.738
305.77	1.688
306.13	1.529
306.49	1.514
306.85	1.589
307.21	1.721
307.57	1.862
307.93	1.971
308.29	1.992
308.65	1.958
309.01	2.020
309.37	1.993
309.73	1.978
310.09	2.189
310.45	2.379
310.81	2.339
311.17	2.240
311.53	2.197
311.89	2.290
312.25	2.196
312.61	2.100
312.96	2.209
313.32	2.290
313.68	2.304
314.04	2.234
314.40	2.164
314.76	2.064
315.12	2.088
315.48	2.069
315.84	2.006
316.20	1.993
316.56	1.946
316.92	1.929
317.27	1.791
317.63	1.849
317.99	1.720
318.35	1.677
318.71	1.746
319.07	1.865
319.43	1.881
319.79	1.916
320.15	1.867
320.50	2.016
320.86	1.937
321.22	1.943
321.58	1.842
321.94	1.913
322.30	1.897
322.66	1.909
323.01	1.788
323.37	1.787
323.73	1.732
324.09	1.649
324.45	1.660
324.81	1.668
325.17	1.697
325.52	1.644
325.88	1.609
326.24	1.651
326.60	1.583
326.96	1.667
327.31	1.622
327.67	1.575
328.03	1.662
328.39	1.537
328.75	1.641
329.11	1.686
329.46	1.756
329.82	1.762
330.18	1.659
330.54	1.665
330.90	1.585
331.25	1.706
331.61	1.859
331.97	1.917
332.33	1.981
332.68	1.941
333.04	1.916
333.40	1.857
333.76	1.843
334.11	1.950
334.47	2.040
334.83	2.022
335.19	1.888
335.54	1.759
335.90	1.730
336.26	1.774
336.62	1.720
336.97	1.676
337.33	1.741
337.69	1.785
338.05	1.689
338.40	1.567
338.76	1.546
339.12	1.627
339.48	1.652
339.83	1.617
340.19	1.558
340.55	1.567
340.90	1.525
341.26	1.468
341.62	1.413
341.97	1.505
342.33	1.623
342.69	1.669
343.04	1.595
343.40	1.545
343.76	1.505
344.12	1.517
344.47	1.628
344.83	1.677
345.19	1.796
345.54	1.864
345.90	1.856
346.26	1.808
346.61	1.796
346.97	1.863
347.32	1.952
347.68	2.001
348.04	1.903
348.39	1.652
348.75	1.685
349.11	1.621
349.46	1.528
349.82	1.483
350.18	1.497
350.53	1.491
350.89	1.452
351.24	1.440
351.60	1.455
351.96	1.591
352.31	1.728
352.67	1.711
353.02	1.682
353.38	1.708
353.74	1.783
354.09	1.786
354.45	1.788
354.80	1.752
355.16	1.739
355.52	1.746
355.87	1.684
356.23	1.706
356.58	1.742
356.94	1.766
357.29	1.798
357.65	1.788
358.00	1.798
358.36	1.788
358.72	1.801
359.07	1.813
359.43	1.780
359.78	1.796
360.14	1.806
360.49	1.751
360.85	1.764
361.20	1.798
361.56	1.782
361.91	1.780
362.27	1.754
362.62	1.777
362.98	1.791
363.33	1.794
363.69	1.783
364.04	1.791
364.40	1.785
364.75	1.816
365.11	1.784
365.46	1.722
365.82	1.740
366.17	1.769
366.53	1.783
366.88	1.779
367.24	1.806
367.59	1.767
367.95	1.749
368.30	1.772
368.66	1.745
369.01	1.720
369.37	1.770
369.72	1.794
370.08	1.801
370.43	1.754
370.78	1.750
371.14	1.704
371.49	1.749
371.85	1.750
372.20	1.737
372.56	1.752
372.91	1.742
373.26	1.723
373.62	1.649
373.97	1.708
374.33	1.725
374.68	1.691
375.03	1.768
375.39	1.756
375.74	1.735
376.10	1.742
376.45	1.759
376.80	1.811
377.16	1.780
377.51	1.787
377.87	1.755
378.22	1.735
378.57	1.759
378.93	1.757
379.28	1.811
379.63	1.794
379.99	1.814
380.34	1.778
380.70	1.738
381.05	1.809
381.40	1.815
381.76	1.834
382.11	1.864
382.46	1.901
382.82	1.894
383.17	1.852
383.52	1.859
383.88	1.844
384.23	1.833
384.58	1.851
384.94	1.799
385.29	1.832
385.64	1.846
385.99	1.893
386.35	1.877
386.70	1.876
387.05	1.844
387.41	1.853
387.76	1.840
388.11	1.841
388.47	1.838
388.82	1.878
389.17	1.849
389.52	1.823
389.88	1.817
390.23	1.819
390.58	1.841
390.93	1.865
391.29	1.889
391.64	1.926
391.99	1.961
392.34	1.988
392.70	1.951
393.05	1.952
393.40	1.994
393.75	1.968
394.11	2.010
394.46	1.981
394.81	1.992
395.16	1.945
395.52	1.930
395.87	1.935
396.22	1.925
396.57	1.933
396.92	1.915
397.28	1.853
397.63	1.838
397.98	1.793
398.33	1.791
398.68	1.762
399.04	1.780
399.39	1.760
399.74	1.733
400.09	1.733
400.44	1.736
400.80	1.772
401.15	1.780
401.50	1.790
401.85	1.782
402.20	1.782
402.55	1.803
402.90	1.795
403.26	1.804
403.61	1.815
403.96	1.790
404.31	1.769
404.66	1.749
405.01	1.744
405.36	1.747
405.72	1.749
406.07	1.721
406.42	1.724
406.77	1.741
407.12	1.733
407.47	1.732
407.82	1.744
408.17	1.755
408.53	1.765
408.88	1.755
409.23	1.750
409.58	1.712
409.93	1.752
410.28	1.757
410.63	1.742
410.98	1.737
411.33	1.737
411.68	1.744
412.03	1.773
412.38	1.753
412.73	1.801
413.09	1.802
413.44	1.848
413.79	1.843
414.14	1.866
414.49	1.916
414.84	1.963
415.19	2.000
415.54	2.028
415.89	2.037
416.24	2.090
416.59	2.102
416.94	2.139
417.29	2.174
417.64	2.179
417.99	2.202
418.34	2.207
418.69	2.210
419.04	2.219
419.39	2.227
419.74	2.237
420.09	2.251
420.44	2.259
420.79	2.254
421.14	2.246
421.49	2.278
421.84	2.264
422.19	2.279
422.54	2.279
422.89	2.274
423.24	2.274
423.59	2.283
423.94	2.259
424.29	2.247
424.64	2.264
424.99	2.256
425.34	2.220
425.68	2.210
426.03	2.174
426.38	2.180
426.73	2.180
427.08	2.183
427.43	2.194
427.78	2.213
428.13	2.212
428.48	2.203
428.83	2.203
429.18	2.218
429.53	2.229
429.87	2.230
430.22	2.225
430.57	2.230
430.92	2.230
431.27	2.213
431.62	2.188
431.97	2.208
432.32	2.198
432.67	2.206
433.01	2.192
433.36	2.186
433.71	2.189
434.06	2.172
434.41	2.154
434.76	2.155
435.11	2.174
435.45	2.187
435.80	2.178
436.15	2.190
436.50	2.207
436.85	2.231
437.20	2.235
437.54	2.238
437.89	2.265
438.24	2.289
438.59	2.295
438.94	2.275
439.29	2.264
439.63	2.274
439.98	2.277
440.33	2.254
440.68	2.260
441.03	2.274
441.37	2.287
441.72	2.294
442.07	2.292
442.42	2.298
442.76	2.322
443.11	2.354
443.46	2.361
443.81	2.368
444.16	2.397
444.50	2.392
444.85	2.384
445.20	2.383
445.55	2.379
445.89	2.378
446.24	2.363
446.59	2.343
446.94	2.329
447.28	2.310
447.63	2.303
447.98	2.284
448.32	2.266
448.67	2.265
449.02	2.238
449.37	2.204
449.71	2.207
450.06	2.218
450.41	2.215
450.75	2.216
451.10	2.230
451.45	2.211
451.79	2.195
452.14	2.203
452.49	2.193
452.84	2.205
453.18	2.215
453.53	2.189
453.88	2.193
454.22	2.207
454.57	2.196
454.92	2.203
455.26	2.233
455.61	2.260
455.95	2.290
456.30	2.315
456.65	2.344
456.99	2.368
457.34	2.398
457.69	2.389
458.03	2.406
458.38	2.426
458.73	2.432
459.07	2.421
459.42	2.407
459.76	2.376
460.11	2.355
460.46	2.334
460.80	2.308
461.15	2.281
461.49	2.275
461.84	2.267
462.19	2.242
462.53	2.228
462.88	2.233
463.22	2.236
463.57	2.248
463.91	2.254
464.26	2.266
464.61	2.276
464.95	2.266
465.30	2.275
465.64	2.283
465.99	2.296
466.33	2.304
466.68	2.301
467.02	2.296
467.37	2.295
467.71	2.292
468.06	2.300
468.41	2.291
468.75	2.305
469.10	2.309
469.44	2.291
469.79	2.266
470.13	2.237
470.48	2.219
470.82	2.201
471.17	2.214
471.51	2.199
471.86	2.173
472.20	2.166
472.55	2.160
472.89	2.166
473.23	2.155
473.58	2.175
473.92	2.182
474.27	2.179
474.61	2.186
474.96	2.175
475.30	2.193
475.65	2.188
475.99	2.196
476.34	2.206
476.68	2.193
477.02	2.200
477.37	2.208
477.71	2.233
478.06	2.281
478.40	2.355
478.75	2.434
479.09	2.528
479.43	2.635
479.78	2.737
480.12	2.832
480.47	2.932
480.81	3.025
481.15	3.117
481.50	3.205
481.84	3.308
482.19	3.394
482.53	3.467
482.87	3.518
483.22	3.526
483.56	3.496
483.90	3.438
484.25	3.369
484.59	3.294
484.94	3.220
485.28	3.152
485.62	3.058
485.97	2.969
486.31	2.897
486.65	2.837
487.00	2.805
487.34	2.804
487.68	2.814
488.03	2.824
488.37	2.839
488.71	2.843
489.06	2.831
489.40	2.835
489.74	2.824
490.09	2.814
490.43	2.789
490.77	2.768
491.11	2.731
491.46	2.712
491.80	2.688
492.14	2.647
492.49	2.626
492.83	2.596
493.17	2.538
493.51	2.506
493.86	2.467
494.20	2.437
494.54	2.411
494.88	2.426
495.23	2.433
495.57	2.436
495.91	2.461
496.25	2.465
496.60	2.472
496.94	2.476
497.28	2.478
497.62	2.471
497.97	2.466
498.31	2.471
498.65	2.457
498.99	2.427
499.33	2.444
499.68	2.430
500.02	2.427
500.36	2.431
500.70	2.438
501.04	2.426
501.39	2.422
501.73	2.446
502.07	2.457
502.41	2.466
502.75	2.502
503.09	2.491
503.44	2.505
503.78	2.501
504.12	2.495
504.46	2.514
504.80	2.552
505.14	2.590
505.49	2.594
505.83	2.596
506.17	2.611
506.51	2.621
506.85	2.649
507.19	2.671
507.53	2.688
507.87	2.711
508.22	2.715
508.56	2.708
508.90	2.690
509.24	2.702
509.58	2.699
509.92	2.686
510.26	2.685
510.60	2.681
510.94	2.667
511.28	2.660
511.63	2.659
511.97	2.670
512.31	2.674
512.65	2.677
512.99	2.674
513.33	2.718
513.67	2.758
514.01	2.797
514.35	2.825
514.69	2.873
515.03	2.921
515.37	2.977
515.71	3.019
516.05	3.062
516.39	3.100
516.73	3.139
517.07	3.155
517.41	3.170
517.75	3.157
518.09	3.153
518.43	3.146
518.77	3.127
519.11	3.093
519.45	3.061
519.79	3.050
520.13	3.023
520.47	3.018
520.81	2.999
521.15	3.004
521.49	3.031
521.83	3.061
522.17	3.082
522.51	3.136
522.85	3.195
523.19	3.269
523.53	3.363
523.87	3.476
524.21	3.563
524.55	3.656
524.89	3.740
525.23	3.822
525.57	3.882
525.91	3.947
526.25	3.992
526.58	4.042
526.92	4.078
527.26	4.088
527.60	4.091
527.94	4.096
528.28	4.091
528.62	4.066
528.96	4.045
529.30	4.028
529.64	4.013
529.97	4.001
530.31	3.971
530.65	3.948
530.99	3.940
531.33	3.933
531.67	3.924
532.01	3.931
532.35	3.938
532.68	3.935
533.02	3.936
533.36	3.923
533.70	3.911
534.04	3.907
534.38	3.899
534.71	3.881
535.05	3.863
535.39	3.852
535.73	3.839
536.07	3.849
536.41	3.873
536.74	3.894
537.08	3.936
537.42	3.989
537.76	4.029
538.10	4.072
538.43	4.123
538.77	4.175
539.11	4.222
539.45	4.263
539.79	4.299
540.12	4.323
540.46	4.339
540.80	4.340
541.14	4.328
541.47	4.322
541.81	4.320
542.15	4.303
542.49	4.286
542.82	4.262
543.16	4.243
543.50	4.210
543.84	4.181
544.17	4.157
544.51	4.153
544.85	4.145
545.18	4.144
545.52	4.135
545.86	4.122
546.20	4.118
546.53	4.107
546.87	4.073
547.21	4.063
547.54	4.043
547.88	4.029
548.22	4.004
548.55	3.989
548.89	3.993
549.23	3.987
549.56	3.992
549.90	4.007
550.24	4.010
550.57	4.045
550.91	4.063
551.25	4.094
551.58	4.117
551.92	4.121
552.26	4.145
552.59	4.145
552.93	4.160
553.27	4.184
553.60	4.184
553.94	4.175
554.27	4.172
554.61	4.183
554.95	4.179
555.28	4.186
555.62	4.200
555.95	4.220
556.29	4.253
556.63	4.251
556.96	4.249
557.30	4.262
557.63	4.298
557.97	4.316
558.31	4.312
558.64	4.317
558.98	4.361
559.31	4.397
559.65	4.386
559.98	4.398
560.32	4.433
560.65	4.455
560.99	4.487
561.33	4.515
561.66	4.540
562.00	4.590
562.33	4.636
562.67	4.639
563.00	4.663
563.34	4.726
563.67	4.748
564.01	4.772
564.34	4.819
564.68	4.838
565.01	4.852
565.35	4.880
565.68	4.900
566.02	4.926
566.35	4.947
566.69	4.959
567.02	4.984
567.36	5.011
567.69	5.041
568.03	5.063
568.36	5.091
568.69	5.113
569.03	5.139
569.36	5.165
569.70	5.172
570.03	5.214
570.37	5.243
570.70	5.260
571.04	5.273
571.37	5.281
571.70	5.295
572.04	5.303
572.37	5.326
572.71	5.347
573.04	5.362
573.37	5.386
573.71	5.399
574.04	5.417
574.38	5.399
574.71	5.419
575.04	5.429
575.38	5.417
575.71	5.406
576.05	5.393
576.38	5.386
576.71	5.362
577.05	5.340
577.38	5.316
577.71	5.278
578.05	5.295
578.38	5.295
578.71	5.286
579.05	5.292
579.38	5.298
579.71	5.314
580.05	5.298
580.38	5.312
580.71	5.329
581.05	5.352
581.38	5.388
581.71	5.392
582.05	5.396
582.38	5.446
582.71	5.451
583.04	5.483
583.38	5.506
583.71	5.555
584.04	5.585
584.38	5.633
584.71	5.668
585.04	5.701
585.37	5.723
585.71	5.742
586.04	5.755
586.37	5.817
586.70	5.854
587.04	5.898
587.37	5.933
587.70	5.943
588.03	5.948
588.37	5.977
588.70	5.999
589.03	6.026
589.36	6.074
589.69	6.084
590.03	6.074
590.36	6.078
590.69	6.060
591.02	6.074
591.35	6.112
591.69	6.120
592.02	6.144
592.35	6.191
592.68	6.231
593.01	6.230
593.35	6.251
593.68	6.306
594.01	6.327
594.34	6.369
594.67	6.378
595.00	6.390
595.34	6.424
595.67	6.404
596.00	6.396
596.33	6.369
596.66	6.368
596.99	6.357
597.32	6.338
597.65	6.352
597.99	6.338
598.32	6.324
598.65	6.303
598.98	6.289
599.31	6.323
599.64	6.371
599.97	6.400
600.30	6.436
600.63	6.485
600.96	6.526
601.30	6.559
601.63	6.615
601.96	6.668
602.29	6.721
602.62	6.758
602.95	6.782
603.28	6.783
603.61	6.794
603.94	6.794
604.27	6.815
604.60	6.814
604.93	6.820
605.26	6.818
605.59	6.830
605.92	6.861
606.25	6.868
606.58	6.897
606.91	6.882
607.24	6.938
607.57	6.973
607.90	6.988
608.23	6.990
608.56	6.992
608.89	6.992
609.22	6.995
609.55	6.976
609.88	6.979
610.21	6.982
610.54	7.010
610.87	6.999
611.20	7.001
611.53	6.986
611.86	7.012
612.19	7.002
612.52	7.032
612.85	7.079
613.18	7.097
613.51	7.096
613.84	7.083
614.17	7.090
614.49	7.123
614.82	7.137
615.15	7.177
615.48	7.212
615.81	7.237
616.14	7.271
616.47	7.249
616.80	7.277
617.13	7.306
617.46	7.346
617.78	7.363
618.11	7.355
618.44	7.361
618.77	7.371
619.10	7.382
619.43	7.424
619.76	7.420
620.09	7.482
620.41	7.512
620.74	7.596
621.07	7.641
621.40	7.694
621.73	7.785
622.06	7.866
622.38	7.925
622.71	7.989
623.04	8.082
623.37	8.172
623.70	8.191
624.02	8.264
624.35	8.301
624.68	8.352
625.01	8.420
625.34	8.477
625.66	8.517
625.99	8.555
626.32	8.585
626.65	8.605
626.98	8.609
627.30	8.652
627.63	8.653
627.96	8.637
628.29	8.659
628.61	8.662
628.94	8.645
629.27	8.656
629.60	8.652
629.92	8.683
630.25	8.694
630.58	8.723
630.91	8.738
631.23	8.764
631.56	8.819
631.89	8.812
632.21	8.846
632.54	8.875
632.87	8.905
633.19	8.934
633.52	8.951
633.85	8.997
634.18	8.975
634.50	8.992
634.83	9.005
635.16	8.994
635.48	9.024
635.81	9.036
636.14	9.042
636.46	9.061
636.79	9.098
637.11	9.102
637.44	9.066
637.77	9.119
638.09	9.164
638.42	9.150
638.75	9.203
639.07	9.241
639.40	9.254
639.73	9.287
640.05	9.289
640.38	9.357
640.70	9.378
641.03	9.459
641.36	9.470
641.68	9.467
642.01	9.578
642.33	9.632
642.66	9.678
642.98	9.741
643.31	9.792
643.64	9.860
643.96	9.894
644.29	9.990
644.61	10.018
644.94	10.119
645.26	10.237
645.59	10.292
645.91	10.377
646.24	10.411
646.56	10.452
646.89	10.514
647.22	10.557
647.54	10.623
647.87	10.628
648.19	10.677
648.52	10.693
648.84	10.686
649.17	10.645
649.49	10.678
649.82	10.734
650.14	10.814
650.47	10.834
650.79	10.891
651.11	10.877
651.44	10.939
651.76	10.987
652.09	11.078
652.41	11.144
652.74	11.239
653.06	11.253
653.39	11.287
653.71	11.285
654.04	11.334
654.36	11.386
654.68	11.467
655.01	11.509
655.33	11.528
655.66	11.560
655.98	11.619
656.30	11.648
656.63	11.729
656.95	11.779
657.28	11.827
657.60	11.838
657.92	11.871
658.25	11.883
658.57	11.901
658.90	11.932
659.22	11.960
659.54	11.921
659.87	11.955
660.19	11.915
660.51	11.899
660.84	11.869
661.16	11.881
661.48	11.911
661.81	11.909
662.13	11.929
662.45	11.948
662.78	11.925
663.10	11.961
663.42	11.995
663.75	12.049
664.07	12.104
664.39	12.154
664.72	12.194
665.04	12.182
665.36	12.237
665.69	12.317
666.01	12.394
666.33	12.451
666.65	12.517
666.98	12.583
667.30	12.675
667.62	12.711
667.94	12.783
668.27	12.826
668.59	12.895
668.91	12.927
669.23	12.952
669.56	12.965
669.88	13.043
670.20	13.059
670.52	13.135
670.85	13.107
671.17	13.142
671.49	13.155
671.81	13.276
672.13	13.312
672.46	13.386
672.78	13.447
673.10	13.494
673.42	13.538
673.74	13.609
674.07	13.647
674.39	13.727
674.71	13.844
675.03	13.971
675.35	14.037
675.67	14.177
676.00	14.254
676.32	14.306
676.64	14.371
676.96	14.487
677.28	14.646
677.60	14.763
677.92	14.864
678.25	14.973
678.57	15.053
678.89	15.076
679.21	15.095
679.53	15.191
679.85	15.294
680.17	15.366
680.49	15.390
680.81	15.421
681.13	15.448
681.46	15.497
681.78	15.556
682.10	15.676
682.42	15.754
682.74	15.874
683.06	15.942
683.38	16.044
683.70	16.257
684.02	16.449
684.34	16.641
684.66	16.767
684.98	16.975
685.30	17.051
685.62	17.184
685.94	17.390
686.26	17.468
686.58	17.595
686.90	17.669
687.22	17.697
687.54	17.680
687.86	17.670
688.18	17.670
688.50	17.654
688.82	17.690
689.14	17.670
689.46	17.683
689.78	17.721
690.10	17.727
690.42	17.729
690.74	17.784
691.06	17.827
691.38	17.829
691.70	17.909
692.02	17.878
692.34	17.954
692.66	17.973
692.98	17.977
693.30	18.008
693.62	18.051
693.94	18.110
694.26	18.128
694.57	18.212
694.89	18.317
695.21	18.416
695.53	18.511
695.85	18.557
696.17	18.620
696.49	18.715
696.81	18.827
697.13	18.900
697.44	18.991
697.76	19.068
698.08	19.120
698.40	19.154
698.72	19.074
699.04	19.105
699.36	19.157
699.67	19.184
699.99	19.118
700.31	19.086
700.63	19.048
700.95	19.042
701.27	19.000
701.58	18.914
701.90	18.894
702.22	19.015
702.54	19.010
702.86	19.034
703.17	19.006
703.49	19.115
703.81	19.163
704.13	19.130
704.45	19.129
704.76	19.192
705.08	19.329
705.40	19.341
705.72	19.437
706.03	19.513
706.35	19.571
706.67	19.696
706.99	19.739
707.30	19.839
707.62	20.062
707.94	20.195
708.26	20.249
708.57	20.279
708.89	20.369
709.21	20.336
709.53	20.442
709.84	20.518
710.16	20.660
710.48	20.780
710.79	20.829
711.11	20.849
711.43	20.877
711.74	21.004
712.06	21.103
712.38	21.236
712.69	21.446
713.01	21.547
713.33	21.715
713.64	21.862
713.96	22.025
714.28	22.161
714.59	22.382
714.91	22.570
715.23	22.691
715.54	22.866
715.86	23.017
716.17	23.123
716.49	23.251
716.81	23.255
717.12	23.195
717.44	23.163
717.76	23.242
718.07	23.180
718.39	23.210
718.70	23.177
719.02	23.093
719.33	23.027
719.65	23.072
719.97	23.016
720.28	23.038
720.60	23.175
720.91	23.165
721.23	23.232
721.54	23.337
721.86	23.416
722.17	23.603
722.49	23.788
722.81	23.879
723.12	23.906
723.44	24.105
723.75	24.235
724.07	24.333
724.38	24.567
724.70	24.759
725.01	24.851
725.33	24.962
725.64	25.002
725.96	25.077
726.27	25.138
726.59	25.281
726.90	25.318
727.22	25.323
727.53	25.332
727.84	25.311
728.16	25.246
728.47	25.233
728.79	25.222
729.10	25.196
729.42	25.138
729.73	25.180
730.05	25.233
730.36	25.288
730.67	25.315
730.99	25.255
731.30	25.238
731.62	25.148
731.93	25.142
732.24	25.066
732.56	25.102
732.87	25.164
733.19	25.138
733.50	25.064
733.81	24.979
734.13	24.996
734.44	24.991
734.76	24.957
735.07	25.020
735.38	25.031
735.70	25.243
736.01	25.210
736.32	25.311
736.64	25.345
736.95	25.271
737.26	25.307
737.58	25.388
737.89	25.464
738.20	25.506
738.52	25.644
738.83	25.633
739.14	25.490
739.45	25.539
739.77	25.561
740.08	25.687
740.39	25.763
740.71	25.965
741.02	25.900
741.33	25.956
741.64	25.994
741.96	25.945
742.27	25.879
742.58	26.063
742.90	26.101
743.21	26.131
743.52	26.018
743.83	26.067
744.14	25.779
744.46	26.048
744.77	26.185
745.08	26.197
745.39	26.207
745.71	26.385
746.02	26.315
746.33	26.428
746.64	26.483
746.95	26.733
747.27	26.824
747.58	27.075
747.89	26.924
748.20	26.903
748.51	27.184
748.82	27.160
749.14	27.332
749.45	27.364
749.76	27.499
750.07	27.615
750.38	27.583
750.69	27.757
751.01	27.743
751.32	27.836
751.63	28.007
751.94	28.039
752.25	28.201
752.56	28.199
752.87	28.330
753.18	28.359
753.49	28.316
753.81	28.565
754.12	28.488
754.43	28.818
754.74	28.961
755.05	29.079
755.36	29.233
755.67	29.438
755.98	29.826
756.29	30.113
756.60	30.504
756.91	30.904
757.22	31.032
757.53	31.559
757.84	31.799
758.15	32.182
758.46	32.617
758.77	32.909
759.09	33.285
759.40	33.526
759.71	33.747
760.02	33.863
760.33	34.015
760.64	34.129
760.95	34.218
761.26	34.247
761.57	34.275
761.88	34.203
762.18	34.239
762.49	34.127
762.80	34.163
763.11	34.240
763.42	34.159
763.73	34.048
764.04	33.979
764.35	33.815
764.66	33.676
764.97	33.455
765.28	33.275
765.59	33.113
765.90	32.990
766.21	32.466
766.52	32.037
766.83	31.805
767.14	31.690
767.44	31.592
767.75	31.570
768.06	31.470
768.37	31.433
768.68	31.415
768.99	31.337
769.30	31.219
769.61	31.432
769.91	31.547
770.22	31.348
770.53	31.127
770.84	30.957
771.15	30.798
771.46	30.520
771.77	30.755
772.07	30.847
772.38	30.948
772.69	30.911
773.00	31.185
773.31	31.206
773.61	31.442
773.92	31.634
774.23	31.752
774.54	31.790
774.85	32.215
775.15	32.024
775.46	31.944
775.77	31.915
776.08	32.214
776.39	31.987
776.69	32.031
777.00	32.087
777.31	32.111
777.62	32.489
777.92	32.605
778.23	32.642
778.54	32.734
778.85	32.854
779.15	33.036
779.46	33.134
779.77	33.158
780.07	33.226
780.38	33.562
780.69	33.588
781.00	33.600
781.30	33.572
781.61	33.620
781.92	33.867
782.22	34.028
782.53	33.734
782.84	33.686
783.14	34.080
783.45	34.287
783.76	34.391
784.06	34.831
784.37	34.789
784.68	35.073
784.98	35.172
785.29	35.277
785.60	35.481
785.90	35.812
786.21	35.935
786.51	35.843
786.82	36.061
787.13	36.321
787.43	36.472
787.74	36.748
788.04	36.932
788.35	37.062
788.66	37.190
788.96	37.130
789.27	37.307
789.57	37.366
789.88	37.732
790.19	37.510
790.49	37.428
790.80	37.302
791.10	37.284
791.41	37.112
791.71	37.302
792.02	37.028
792.32	37.007
792.63	37.235
792.93	37.261
793.24	37.270
793.54	37.504
793.85	37.467
794.15	37.930
794.46	38.153
794.76	38.502
795.07	38.473
795.37	38.758
795.68	38.707
795.98	38.562
796.29	38.927
796.59	39.009
796.90	38.926
797.20	39.023
797.51	38.753
797.81	38.642
798.12	38.945
798.42	39.142
798.72	39.411
799.03	39.870
799.33	39.986
799.64	39.941
799.94	39.927
800.25	39.910
800.55	40.149
800.85	40.344
801.16	40.561
801.46	40.084
801.77	40.003
802.07	40.155
802.37	40.164
802.68	39.920
802.98	40.076
803.28	40.084
803.59	40.440
803.89	40.193
804.20	40.466
804.50	40.225
804.80	40.374
805.11	40.454
805.41	39.913
805.71	40.015
806.02	40.207
806.32	40.550
806.62	40.616
806.93	40.615
807.23	40.968
807.53	40.868
807.83	41.140
808.14	41.471
808.44	41.455
808.74	42.059
809.05	41.906
809.35	42.027
809.65	42.184
809.95	42.522
810.26	42.314
810.56	42.389
810.86	42.386
811.16	42.443
811.47	42.659
811.77	43.231
812.07	43.225
812.37	43.587
812.68	44.003
812.98	43.566
813.28	43.684
813.58	44.767
813.88	44.894
814.19	45.482
814.49	46.051
814.79	45.968
815.09	46.490
815.39	46.434
815.70	46.643
816.00	46.920
816.30	47.200
816.60	47.455
816.90	46.952
817.20	46.834
817.50	46.745
817.81	46.397
818.11	46.449
818.41	46.340
818.71	46.558
819.01	46.855
819.31	47.105
819.61	47.410
819.92	47.521
820.22	47.864
820.52	48.074
820.82	48.346
821.12	48.776
821.42	49.024
821.72	49.247
822.02	49.578
822.32	49.867
822.62	50.092
822.92	50.314
823.22	50.664
823.52	50.874
823.83	51.184
824.13	51.307
824.43	51.220
824.73	51.374
825.03	51.517
825.33	51.513
825.63	51.445
825.93	51.400
826.23	51.332
826.53	51.213
826.83	50.957
827.13	50.990
827.43	50.937
827.73	51.296
828.03	51.493
828.33	51.767
828.63	51.773
828.93	51.745
829.23	51.643
829.53	51.671
829.83	51.488
830.13	51.735
830.42	51.155
830.72	51.094
831.02	51.007
831.32	50.784
831.62	50.471
831.92	50.594
832.22	50.475
832.52	50.552
832.82	50.608
833.12	50.865
833.42	50.976
833.72	51.493
834.01	51.494
834.31	51.642
834.61	51.809
834.91	52.395
835.21	52.606
835.51	52.865
835.81	53.046
836.11	52.977
836.40	52.690
836.70	52.886
837.00	52.437
837.30	52.377
837.60	51.981
837.90	52.236
838.19	51.447
838.49	51.655
838.79	51.564
839.09	52.012
839.39	52.499
839.68	52.674
839.98	51.812
840.28	51.886
840.58	52.456
840.88	52.863
841.17	51.553
841.47	51.508
841.77	50.829
842.07	51.283
842.36	50.913
842.66	50.182
842.96	49.221
843.26	49.893
843.55	49.534
843.85	48.947
844.15	48.383
844.45	49.445
844.74	49.758
845.04	49.094
845.34	48.300
845.63	47.826
845.93	47.319
846.23	48.643
846.53	48.662
846.82	48.246
847.12	49.476
847.42	49.603
847.71	49.306
848.01	48.920
848.31	48.968
848.60	48.780
848.90	48.112
849.19	49.124
849.49	48.000
849.79	49.290
850.08	50.539
850.38	47.475
850.68	46.903
850.97	47.356
851.27	47.889
851.56	48.751
851.86	48.830
852.16	49.944
852.45	49.830
852.75	52.059
853.04	52.869
853.34	53.577
853.64	54.958
853.93	53.729
854.23	53.477
854.52	53.381
854.82	54.228
855.11	55.318
855.41	56.428
855.70	56.204
856.00	56.127
856.30	53.485
856.59	53.133
856.89	54.255
857.18	56.958
857.48	57.427
857.77	56.130
858.07	56.674
858.36	54.550
858.66	53.481
858.95	52.155
859.25	51.445
859.54	51.606
859.84	50.671
860.13	48.960
860.42	47.819
860.72	46.802
861.01	48.786
861.31	48.451
861.60	51.034
861.90	50.897
862.19	52.430
862.49	50.026
862.78	50.259
863.07	51.042
863.37	54.019
863.66	53.457
863.96	56.244
864.25	54.975
864.54	54.094
864.84	53.114
865.13	53.988
865.43	53.937
865.72	49.806
866.01	50.189
866.31	55.884
866.60	59.522
866.89	52.069
>>>>>End Spectral Data<<<<<
