OOIBase32 Version 2.0.0.6 Data File
++++++++++++++++++++++++++++++++++++
Date: 01-23-2012, 23:25:44
User: Valued Ocean Optics Customer
Spectrometer Serial Number: USB2E2917
Spectrometer Channel: Master
Integration Time (msec): 5
Spectra Averaged: 10
Boxcar Smoothing: 5
Correct for Electrical Dark: Enabled
Time Normalized: Disabled
Dual-beam Reference: Disabled
Reference Channel: Master
Temperature: Not acquired
Spectrometer Type: S2000
ADC Type: USB2000
Number of Pixels in File: 2048
Graph Title: 
>>>>>Begin Spectral Data<<<<<
180.30	0.000
180.67	0.000
181.03	12.635
181.40	80.815
181.77	-25155.122
182.14	10.243
182.51	-362.936
182.88	262.953
183.25	0.647
183.62	26.452
183.99	22.507
184.36	25.494
184.73	-23.000
185.10	95.821
185.46	-362.936
185.83	153.151
186.20	11.432
186.57	287.016
186.94	86.068
187.31	-11.637
187.68	-18.945
188.05	-112.697
188.42	-174.868
188.78	-239.120
189.15	-509.362
189.52	117.135
189.89	28.809
190.26	5.024
190.63	17.808
191.00	16.026
191.37	9.690
191.73	15.782
192.10	10.370
192.47	7.386
192.84	11.173
193.21	13.923
193.58	6.092
193.94	11.984
194.31	17.728
194.68	11.742
195.05	11.806
195.42	11.829
195.79	5.180
196.15	5.581
196.52	-2.228
196.89	-13.966
197.26	-7.762
197.63	19.260
198.00	30.252
198.36	25.340
198.73	-5.338
199.10	-19.574
199.47	-27.466
199.84	-24.901
200.20	-27.369
200.57	-28.030
200.94	-27.514
201.31	-34.555
201.68	-32.411
202.04	-41.979
202.41	-42.133
202.78	-34.523
203.15	-58.106
203.51	-39.922
203.88	-38.927
204.25	-33.362
204.62	-50.480
204.98	-64.252
205.35	-69.744
205.72	-75.719
206.09	-52.680
206.46	-101.615
206.82	-73.697
207.19	-42.398
207.56	-79.943
207.92	-57.630
208.29	-44.188
208.66	3.762
209.03	16.285
209.39	41.257
209.76	24.663
210.13	-0.775
210.50	11.998
210.86	22.541
211.23	12.635
211.60	19.049
211.96	21.542
212.33	10.539
212.70	-4.873
213.07	-7.599
213.43	-47.653
213.80	-36.154
214.17	-4.272
214.53	-1.562
214.90	2.335
215.27	0.762
215.63	3.492
216.00	-4.231
216.37	2.937
216.74	-6.224
217.10	-11.118
217.47	-3.657
217.84	1.364
218.20	-2.843
218.57	-4.503
218.94	-9.760
219.30	-16.091
219.67	-28.978
220.04	-28.704
220.40	-30.105
220.77	-26.363
221.13	-20.672
221.50	-13.415
221.87	-12.449
222.23	-15.055
222.60	-25.251
222.97	-21.021
223.33	-9.271
223.70	-0.983
224.07	-0.369
224.43	-0.190
224.80	-0.468
225.16	-0.626
225.53	-2.921
225.90	-5.621
226.26	-3.165
226.63	0.421
226.99	0.138
227.36	0.543
227.73	1.042
228.09	1.905
228.46	2.508
228.82	4.797
229.19	4.661
229.56	4.947
229.92	6.735
230.29	7.452
230.65	7.071
231.02	6.301
231.38	3.463
231.75	1.742
232.12	0.551
232.48	-0.816
232.85	-4.075
233.21	-3.455
233.58	-6.497
233.94	-7.939
234.31	-10.346
234.68	-9.335
235.04	-8.476
235.41	-6.748
235.77	-4.754
236.14	-3.866
236.50	-1.913
236.87	-0.615
237.23	0.412
237.60	1.609
237.96	1.707
238.33	1.137
238.69	-0.025
239.06	0.128
239.42	0.710
239.79	-0.250
240.15	-0.464
240.52	-0.547
240.88	-0.356
241.25	-0.961
241.61	-0.346
241.98	-0.285
242.34	0.233
242.71	0.692
243.07	0.957
243.44	0.888
243.80	1.260
244.17	1.568
244.53	1.402
244.90	1.449
245.26	1.444
245.63	1.149
245.99	1.209
246.36	0.984
246.72	1.159
247.09	0.737
247.45	0.594
247.81	0.789
248.18	0.645
248.54	0.726
248.91	0.418
249.27	0.745
249.64	0.949
250.00	1.399
250.36	1.774
250.73	1.549
251.09	1.976
251.46	2.229
251.82	1.794
252.19	1.622
252.55	1.056
252.91	1.143
253.28	0.930
253.64	0.503
254.01	0.011
254.37	0.125
254.73	0.217
255.10	0.508
255.46	0.903
255.83	1.241
256.19	1.388
256.55	1.466
256.92	1.750
257.28	1.698
257.65	1.894
258.01	1.929
258.37	1.890
258.74	1.885
259.10	1.559
259.46	1.242
259.83	1.038
260.19	0.873
260.55	0.987
260.92	0.486
261.28	0.329
261.64	0.222
262.01	0.167
262.37	-0.029
262.73	-0.341
263.10	-0.063
263.46	0.137
263.82	0.438
264.19	0.676
264.55	0.457
264.91	0.653
265.28	0.650
265.64	0.509
266.00	0.437
266.37	0.561
266.73	0.730
267.09	0.875
267.46	0.829
267.82	0.637
268.18	0.554
268.54	0.794
268.91	0.674
269.27	0.813
269.63	1.069
270.00	1.186
270.36	1.130
270.72	1.319
271.08	1.221
271.45	1.177
271.81	1.317
272.17	1.332
272.53	1.212
272.90	1.402
273.26	1.334
273.62	1.098
273.98	0.832
274.35	0.863
274.71	0.892
275.07	0.994
275.43	1.061
275.80	1.002
276.16	0.931
276.52	0.878
276.88	0.845
277.25	0.565
277.61	0.592
277.97	0.722
278.33	0.975
278.69	0.607
279.06	0.474
279.42	0.527
279.78	0.456
280.14	0.403
280.50	0.518
280.87	0.662
281.23	1.023
281.59	1.133
281.95	1.126
282.31	1.117
282.68	1.184
283.04	1.372
283.40	1.510
283.76	1.559
284.12	1.877
284.48	1.866
284.85	1.856
285.21	1.773
285.57	1.625
285.93	1.763
286.29	1.521
286.65	1.572
287.02	1.635
287.38	1.511
287.74	1.439
288.10	1.261
288.46	1.409
288.82	1.225
289.18	1.208
289.54	1.397
289.91	1.393
290.27	1.623
290.63	1.797
290.99	1.590
291.35	1.556
291.71	1.697
292.07	1.593
292.43	1.443
292.79	1.586
293.16	1.681
293.52	1.715
293.88	1.762
294.24	1.678
294.60	1.489
294.96	1.588
295.32	1.669
295.68	1.698
296.04	1.807
296.40	1.852
296.76	2.024
297.12	1.973
297.49	1.805
297.85	1.646
298.21	1.572
298.57	1.607
298.93	1.669
299.29	1.497
299.65	1.399
300.01	1.388
300.37	1.460
300.73	1.427
301.09	1.521
301.45	1.737
301.81	1.982
302.17	2.153
302.53	2.040
302.89	1.771
303.25	1.918
303.61	2.046
303.97	1.915
304.33	1.827
304.69	1.782
305.05	1.617
305.41	1.592
305.77	1.474
306.13	1.380
306.49	1.464
306.85	1.688
307.21	1.813
307.57	1.806
307.93	1.857
308.29	1.995
308.65	1.916
309.01	2.052
309.37	2.055
309.73	2.020
310.09	2.182
310.45	2.291
310.81	2.356
311.17	2.190
311.53	2.166
311.89	2.287
312.25	2.189
312.61	2.201
312.96	2.114
313.32	2.052
313.68	2.099
314.04	1.959
314.40	1.890
314.76	1.762
315.12	1.828
315.48	1.767
315.84	1.585
316.20	1.583
316.56	1.629
316.92	1.655
317.27	1.584
317.63	1.577
317.99	1.451
318.35	1.470
318.71	1.562
319.07	1.604
319.43	1.719
319.79	1.881
320.15	1.884
320.50	1.946
320.86	1.918
321.22	1.951
321.58	1.957
321.94	1.990
322.30	1.999
322.66	1.900
323.01	1.765
323.37	1.767
323.73	1.720
324.09	1.667
324.45	1.611
324.81	1.585
325.17	1.627
325.52	1.583
325.88	1.629
326.24	1.685
326.60	1.683
326.96	1.771
327.31	1.680
327.67	1.630
328.03	1.661
328.39	1.635
328.75	1.715
329.11	1.789
329.46	1.867
329.82	1.848
330.18	1.738
330.54	1.772
330.90	1.756
331.25	1.744
331.61	1.801
331.97	1.767
332.33	1.814
332.68	1.838
333.04	1.787
333.40	1.639
333.76	1.682
334.11	1.755
334.47	1.753
334.83	1.712
335.19	1.666
335.54	1.672
335.90	1.794
336.26	1.743
336.62	1.641
336.97	1.599
337.33	1.621
337.69	1.591
338.05	1.574
338.40	1.587
338.76	1.581
339.12	1.660
339.48	1.620
339.83	1.532
340.19	1.553
340.55	1.693
340.90	1.643
341.26	1.696
341.62	1.687
341.97	1.672
342.33	1.696
342.69	1.740
343.04	1.707
343.40	1.630
343.76	1.564
344.12	1.554
344.47	1.529
344.83	1.635
345.19	1.682
345.54	1.733
345.90	1.797
346.26	1.794
346.61	1.826
346.97	1.895
347.32	2.001
347.68	2.021
348.04	2.042
348.39	1.940
348.75	1.954
349.11	1.894
349.46	1.809
349.82	1.787
350.18	1.783
350.53	1.774
350.89	1.746
351.24	1.706
351.60	1.796
351.96	1.842
352.31	1.884
352.67	1.895
353.02	1.918
353.38	1.987
353.74	2.061
354.09	2.025
354.45	2.066
354.80	2.076
355.16	2.128
355.52	2.132
355.87	2.066
356.23	2.081
356.58	2.111
356.94	2.151
357.29	2.198
357.65	2.133
358.00	2.171
358.36	2.172
358.72	2.173
359.07	2.167
359.43	2.215
359.78	2.305
360.14	2.340
360.49	2.310
360.85	2.354
361.20	2.323
361.56	2.336
361.91	2.373
362.27	2.343
362.62	2.406
362.98	2.422
363.33	2.401
363.69	2.379
364.04	2.384
364.40	2.405
364.75	2.370
365.11	2.369
365.46	2.343
365.82	2.375
366.17	2.386
366.53	2.364
366.88	2.406
367.24	2.436
367.59	2.442
367.95	2.477
368.30	2.463
368.66	2.495
369.01	2.530
369.37	2.628
369.72	2.666
370.08	2.736
370.43	2.751
370.78	2.726
371.14	2.676
371.49	2.734
371.85	2.743
372.20	2.794
372.56	2.792
372.91	2.808
373.26	2.765
373.62	2.676
373.97	2.677
374.33	2.672
374.68	2.712
375.03	2.798
375.39	2.753
375.74	2.761
376.10	2.802
376.45	2.840
376.80	2.853
377.16	2.850
377.51	2.894
377.87	2.949
378.22	2.961
378.57	2.944
378.93	2.966
379.28	3.024
379.63	3.003
379.99	3.043
380.34	3.069
380.70	3.089
381.05	3.182
381.40	3.239
381.76	3.248
382.11	3.302
382.46	3.380
382.82	3.379
383.17	3.386
383.52	3.451
383.88	3.403
384.23	3.399
384.58	3.423
384.94	3.405
385.29	3.403
385.64	3.415
385.99	3.416
386.35	3.443
386.70	3.453
387.05	3.449
387.41	3.456
387.76	3.459
388.11	3.475
388.47	3.491
388.82	3.503
389.17	3.500
389.52	3.502
389.88	3.526
390.23	3.543
390.58	3.537
390.93	3.564
391.29	3.590
391.64	3.647
391.99	3.693
392.34	3.732
392.70	3.739
393.05	3.769
393.40	3.785
393.75	3.793
394.11	3.810
394.46	3.829
394.81	3.851
395.16	3.843
395.52	3.821
395.87	3.786
396.22	3.782
396.57	3.769
396.92	3.757
397.28	3.759
397.63	3.757
397.98	3.736
398.33	3.752
398.68	3.744
399.04	3.773
399.39	3.755
399.74	3.739
400.09	3.710
400.44	3.723
400.80	3.739
401.15	3.752
401.50	3.769
401.85	3.769
402.20	3.775
402.55	3.809
402.90	3.782
403.26	3.816
403.61	3.818
403.96	3.849
404.31	3.883
404.66	3.891
405.01	3.873
405.36	3.866
405.72	3.885
406.07	3.897
406.42	3.846
406.77	3.857
407.12	3.891
407.47	3.947
407.82	3.946
408.17	3.947
408.53	3.931
408.88	3.947
409.23	3.946
409.58	3.901
409.93	3.907
410.28	3.971
410.63	3.963
410.98	3.941
411.33	3.948
411.68	3.973
412.03	3.997
412.38	4.007
412.73	4.021
413.09	4.068
413.44	4.123
413.79	4.166
414.14	4.178
414.49	4.236
414.84	4.261
415.19	4.280
415.54	4.311
415.89	4.315
416.24	4.374
416.59	4.399
416.94	4.427
417.29	4.446
417.64	4.427
417.99	4.460
418.34	4.478
418.69	4.492
419.04	4.510
419.39	4.533
419.74	4.565
420.09	4.571
420.44	4.587
420.79	4.587
421.14	4.603
421.49	4.639
421.84	4.632
422.19	4.652
422.54	4.666
422.89	4.680
423.24	4.675
423.59	4.679
423.94	4.679
424.29	4.691
424.64	4.706
424.99	4.712
425.34	4.699
425.68	4.709
426.03	4.679
426.38	4.698
426.73	4.686
427.08	4.678
427.43	4.683
427.78	4.706
428.13	4.697
428.48	4.705
428.83	4.714
429.18	4.738
429.53	4.742
429.87	4.758
430.22	4.750
430.57	4.766
430.92	4.784
431.27	4.789
431.62	4.764
431.97	4.784
432.32	4.788
432.67	4.779
433.01	4.781
433.36	4.775
433.71	4.790
434.06	4.785
434.41	4.777
434.76	4.800
435.11	4.814
435.45	4.835
435.80	4.849
436.15	4.860
436.50	4.887
436.85	4.909
437.20	4.922
437.54	4.927
437.89	4.955
438.24	4.968
438.59	4.974
438.94	4.976
439.29	4.982
439.63	4.990
439.98	4.997
440.33	4.977
440.68	4.983
441.03	5.006
441.37	5.043
441.72	5.068
442.07	5.087
442.42	5.095
442.76	5.131
443.11	5.165
443.46	5.193
443.81	5.209
444.16	5.254
444.50	5.265
444.85	5.273
445.20	5.266
445.55	5.274
445.89	5.291
446.24	5.307
446.59	5.283
446.94	5.284
447.28	5.267
447.63	5.269
447.98	5.267
448.32	5.279
448.67	5.291
449.02	5.301
449.37	5.290
449.71	5.295
450.06	5.280
450.41	5.302
450.75	5.308
451.10	5.333
451.45	5.343
451.79	5.338
452.14	5.338
452.49	5.335
452.84	5.338
453.18	5.342
453.53	5.337
453.88	5.355
454.22	5.375
454.57	5.400
454.92	5.382
455.26	5.410
455.61	5.444
455.95	5.483
456.30	5.507
456.65	5.533
456.99	5.568
457.34	5.608
457.69	5.639
458.03	5.660
458.38	5.674
458.73	5.712
459.07	5.721
459.42	5.725
459.76	5.705
460.11	5.708
460.46	5.711
460.80	5.704
461.15	5.691
461.49	5.684
461.84	5.701
462.19	5.696
462.53	5.705
462.88	5.710
463.22	5.724
463.57	5.754
463.91	5.767
464.26	5.783
464.61	5.787
464.95	5.808
465.30	5.816
465.64	5.816
465.99	5.838
466.33	5.841
466.68	5.862
467.02	5.872
467.37	5.868
467.71	5.880
468.06	5.892
468.41	5.895
468.75	5.896
469.10	5.912
469.44	5.903
469.79	5.902
470.13	5.891
470.48	5.877
470.82	5.877
471.17	5.889
471.51	5.891
471.86	5.882
472.20	5.903
472.55	5.919
472.89	5.942
473.23	5.945
473.58	5.952
473.92	5.972
474.27	5.986
474.61	5.992
474.96	6.009
475.30	6.024
475.65	6.019
475.99	6.033
476.34	6.030
476.68	6.023
477.02	6.067
477.37	6.087
477.71	6.129
478.06	6.179
478.40	6.269
478.75	6.358
479.09	6.473
479.43	6.610
479.78	6.769
480.12	6.937
480.47	7.116
480.81	7.265
481.15	7.433
481.50	7.594
481.84	7.766
482.19	7.948
482.53	8.115
482.87	8.220
483.22	8.250
483.56	8.192
483.90	8.084
484.25	7.932
484.59	7.774
484.94	7.622
485.28	7.494
485.62	7.355
485.97	7.185
486.31	7.039
486.65	6.937
487.00	6.912
487.34	6.925
487.68	6.980
488.03	7.056
488.37	7.143
488.71	7.202
489.06	7.219
489.40	7.223
489.74	7.227
490.09	7.224
490.43	7.221
490.77	7.198
491.11	7.192
491.46	7.179
491.80	7.161
492.14	7.131
492.49	7.107
492.83	7.089
493.17	7.057
493.51	7.041
493.86	7.030
494.20	7.028
494.54	7.036
494.88	7.058
495.23	7.080
495.57	7.119
495.91	7.164
496.25	7.225
496.60	7.257
496.94	7.289
497.28	7.327
497.62	7.347
497.97	7.376
498.31	7.413
498.65	7.448
498.99	7.456
499.33	7.486
499.68	7.503
500.02	7.516
500.36	7.540
500.70	7.578
501.04	7.587
501.39	7.619
501.73	7.635
502.07	7.662
502.41	7.684
502.75	7.753
503.09	7.778
503.44	7.824
503.78	7.849
504.12	7.883
504.46	7.925
504.80	7.984
505.14	8.038
505.49	8.094
505.83	8.131
506.17	8.189
506.51	8.222
506.85	8.260
507.19	8.300
507.53	8.339
507.87	8.384
508.22	8.424
508.56	8.448
508.90	8.488
509.24	8.534
509.58	8.569
509.92	8.589
510.26	8.609
510.60	8.651
510.94	8.685
511.28	8.719
511.63	8.737
511.97	8.777
512.31	8.828
512.65	8.858
512.99	8.901
513.33	8.977
513.67	9.056
514.01	9.149
514.35	9.215
514.69	9.279
515.03	9.353
515.37	9.449
515.71	9.509
516.05	9.569
516.39	9.611
516.73	9.651
517.07	9.690
517.41	9.722
517.75	9.753
518.09	9.769
518.43	9.792
518.77	9.798
519.11	9.805
519.45	9.819
519.79	9.848
520.13	9.893
520.47	9.933
520.81	9.961
521.15	9.999
521.49	10.046
521.83	10.121
522.17	10.165
522.51	10.248
522.85	10.327
523.19	10.419
523.53	10.528
523.87	10.668
524.21	10.814
524.55	10.968
524.89	11.092
525.23	11.223
525.57	11.333
525.91	11.450
526.25	11.547
526.58	11.639
526.92	11.715
527.26	11.762
527.60	11.778
527.94	11.796
528.28	11.779
528.62	11.771
528.96	11.742
529.30	11.715
529.64	11.710
529.97	11.680
530.31	11.652
530.65	11.636
530.99	11.632
531.33	11.644
531.67	11.637
532.01	11.663
532.35	11.687
532.68	11.698
533.02	11.715
533.36	11.692
533.70	11.698
534.04	11.690
534.38	11.692
534.71	11.686
535.05	11.693
535.39	11.709
535.73	11.713
536.07	11.719
536.41	11.750
536.74	11.787
537.08	11.836
537.42	11.900
537.76	11.955
538.10	12.012
538.43	12.093
538.77	12.152
539.11	12.217
539.45	12.271
539.79	12.330
540.12	12.392
540.46	12.418
540.80	12.453
541.14	12.450
541.47	12.446
541.81	12.442
542.15	12.421
542.49	12.400
542.82	12.369
543.16	12.361
543.50	12.349
543.84	12.300
544.17	12.279
544.51	12.268
544.85	12.273
545.18	12.298
545.52	12.318
545.86	12.332
546.20	12.361
546.53	12.372
546.87	12.375
547.21	12.347
547.54	12.344
547.88	12.358
548.22	12.356
548.55	12.359
548.89	12.361
549.23	12.354
549.56	12.371
549.90	12.398
550.24	12.442
550.57	12.476
550.91	12.517
551.25	12.580
551.58	12.601
551.92	12.626
552.26	12.644
552.59	12.703
552.93	12.740
553.27	12.782
553.60	12.790
553.94	12.781
554.27	12.780
554.61	12.786
554.95	12.787
555.28	12.829
555.62	12.834
555.95	12.884
556.29	12.890
556.63	12.904
556.96	12.896
557.30	12.909
557.63	12.941
557.97	12.944
558.31	12.963
558.64	12.986
558.98	12.999
559.31	13.056
559.65	13.073
559.98	13.090
560.32	13.128
560.65	13.149
560.99	13.187
561.33	13.224
561.66	13.264
562.00	13.294
562.33	13.329
562.67	13.354
563.00	13.364
563.34	13.410
563.67	13.435
564.01	13.461
564.34	13.495
564.68	13.519
565.01	13.524
565.35	13.565
565.68	13.609
566.02	13.593
566.35	13.613
566.69	13.606
567.02	13.616
567.36	13.633
567.69	13.635
568.03	13.690
568.36	13.709
568.69	13.745
569.03	13.749
569.36	13.746
569.70	13.787
570.03	13.812
570.37	13.841
570.70	13.862
571.04	13.875
571.37	13.896
571.70	13.872
572.04	13.873
572.37	13.875
572.71	13.875
573.04	13.891
573.37	13.917
573.71	13.945
574.04	13.975
574.38	13.977
574.71	13.985
575.04	13.993
575.38	14.007
575.71	14.026
576.05	14.038
576.38	14.074
576.71	14.064
577.05	14.058
577.38	14.033
577.71	14.033
578.05	14.020
578.38	14.031
578.71	14.041
579.05	14.032
579.38	14.011
579.71	14.022
580.05	14.006
580.38	14.036
580.71	14.046
581.05	14.075
581.38	14.093
581.71	14.107
582.05	14.114
582.38	14.120
582.71	14.137
583.04	14.198
583.38	14.196
583.71	14.238
584.04	14.277
584.38	14.267
584.71	14.280
585.04	14.307
585.37	14.331
585.71	14.362
586.04	14.376
586.37	14.440
586.70	14.448
587.04	14.472
587.37	14.482
587.70	14.464
588.03	14.517
588.37	14.562
588.70	14.553
589.03	14.588
589.36	14.631
589.69	14.653
590.03	14.623
590.36	14.627
590.69	14.618
591.02	14.605
591.35	14.615
591.69	14.631
592.02	14.625
592.35	14.662
592.68	14.675
593.01	14.674
593.35	14.708
593.68	14.731
594.01	14.752
594.34	14.787
594.67	14.830
595.00	14.870
595.34	14.883
595.67	14.870
596.00	14.882
596.33	14.877
596.66	14.860
596.99	14.863
597.32	14.850
597.65	14.837
597.99	14.828
598.32	14.798
598.65	14.762
598.98	14.740
599.31	14.766
599.64	14.779
599.97	14.767
600.30	14.819
600.63	14.825
600.96	14.879
601.30	14.902
601.63	14.984
601.96	15.028
602.29	15.070
602.62	15.122
602.95	15.142
603.28	15.153
603.61	15.183
603.94	15.178
604.27	15.215
604.60	15.194
604.93	15.222
605.26	15.190
605.59	15.183
605.92	15.181
606.25	15.180
606.58	15.200
606.91	15.197
607.24	15.231
607.57	15.242
607.90	15.232
608.23	15.236
608.56	15.230
608.89	15.227
609.22	15.244
609.55	15.251
609.88	15.230
610.21	15.211
610.54	15.213
610.87	15.171
611.20	15.153
611.53	15.159
611.86	15.183
612.19	15.146
612.52	15.127
612.85	15.154
613.18	15.165
613.51	15.161
613.84	15.138
614.17	15.141
614.49	15.196
614.82	15.178
615.15	15.163
615.48	15.187
615.81	15.193
616.14	15.171
616.47	15.118
616.80	15.094
617.13	15.089
617.46	15.106
617.78	15.158
618.11	15.127
618.44	15.162
618.77	15.184
619.10	15.156
619.43	15.168
619.76	15.214
620.09	15.259
620.41	15.291
620.74	15.359
621.07	15.405
621.40	15.405
621.73	15.457
622.06	15.507
622.38	15.549
622.71	15.621
623.04	15.738
623.37	15.800
623.70	15.846
624.02	15.896
624.35	15.893
624.68	15.924
625.01	15.967
625.34	16.026
625.66	16.050
625.99	16.075
626.32	16.112
626.65	16.114
626.98	16.142
627.30	16.168
627.63	16.179
627.96	16.199
628.29	16.195
628.61	16.184
628.94	16.173
629.27	16.180
629.60	16.184
629.92	16.180
630.25	16.155
630.58	16.144
630.91	16.164
631.23	16.169
631.56	16.191
631.89	16.174
632.21	16.182
632.54	16.180
632.87	16.180
633.19	16.161
633.52	16.136
633.85	16.152
634.18	16.119
634.50	16.080
634.83	16.071
635.16	16.039
635.48	16.023
635.81	15.986
636.14	15.940
636.46	15.880
636.79	15.867
637.11	15.862
637.44	15.814
637.77	15.789
638.09	15.760
638.42	15.731
638.75	15.735
639.07	15.768
639.40	15.763
639.73	15.738
640.05	15.723
640.38	15.742
640.70	15.669
641.03	15.679
641.36	15.676
641.68	15.666
642.01	15.645
642.33	15.577
642.66	15.564
642.98	15.553
643.31	15.617
643.64	15.638
643.96	15.590
644.29	15.580
644.61	15.566
644.94	15.570
645.26	15.566
645.59	15.595
645.91	15.601
646.24	15.582
646.56	15.592
646.89	15.525
647.22	15.519
647.54	15.535
647.87	15.573
648.19	15.541
648.52	15.548
648.84	15.521
649.17	15.466
649.49	15.509
649.82	15.463
650.14	15.448
650.47	15.434
650.79	15.413
651.11	15.411
651.44	15.392
651.76	15.379
652.09	15.400
652.41	15.471
652.74	15.536
653.06	15.575
653.39	15.640
653.71	15.650
654.04	15.663
654.36	15.727
654.68	15.738
655.01	15.770
655.33	15.781
655.66	15.771
655.98	15.740
656.30	15.695
656.63	15.662
656.95	15.649
657.28	15.617
657.60	15.611
657.92	15.571
658.25	15.524
658.57	15.531
658.90	15.496
659.22	15.472
659.54	15.415
659.87	15.373
660.19	15.338
660.51	15.323
660.84	15.295
661.16	15.207
661.48	15.163
661.81	15.084
662.13	14.953
662.45	14.955
662.78	14.984
663.10	14.991
663.42	14.973
663.75	14.932
664.07	14.879
664.39	14.878
664.72	14.894
665.04	14.881
665.36	14.931
665.69	14.985
666.01	15.005
666.33	14.954
666.65	14.899
666.98	14.965
667.30	15.014
667.62	15.005
667.94	15.013
668.27	15.061
668.59	15.112
668.91	15.155
669.23	15.219
669.56	15.222
669.88	15.255
670.20	15.301
670.52	15.297
670.85	15.300
671.17	15.367
671.49	15.429
671.81	15.527
672.13	15.595
672.46	15.652
672.78	15.668
673.10	15.728
673.42	15.810
673.74	15.909
674.07	15.993
674.39	16.056
674.71	16.123
675.03	16.248
675.35	16.303
675.67	16.377
676.00	16.474
676.32	16.563
676.64	16.728
676.96	16.833
677.28	17.002
677.60	17.124
677.92	17.295
678.25	17.445
678.57	17.518
678.89	17.585
679.21	17.676
679.53	17.776
679.85	17.940
680.17	18.032
680.49	18.094
680.81	18.185
681.13	18.290
681.46	18.422
681.78	18.571
682.10	18.741
682.42	18.962
682.74	19.169
683.06	19.390
683.38	19.599
683.70	19.772
684.02	20.024
684.34	20.273
684.66	20.549
684.98	20.744
685.30	20.929
685.62	21.188
685.94	21.383
686.26	21.583
686.58	21.736
686.90	21.825
687.22	22.018
687.54	22.196
687.86	22.316
688.18	22.445
688.50	22.611
688.82	22.743
689.14	22.811
689.46	22.935
689.78	23.029
690.10	23.166
690.42	23.355
690.74	23.493
691.06	23.613
691.38	23.700
691.70	23.820
692.02	23.903
692.34	24.090
692.66	24.150
692.98	24.243
693.30	24.322
693.62	24.394
693.94	24.477
694.26	24.559
694.57	24.632
694.89	24.768
695.21	24.852
695.53	24.915
695.85	24.941
696.17	25.089
696.49	25.208
696.81	25.306
697.13	25.472
697.44	25.539
697.76	25.648
698.08	25.717
698.40	25.789
698.72	25.880
699.04	25.976
699.36	26.103
699.67	26.135
699.99	26.207
700.31	26.307
700.63	26.309
700.95	26.429
701.27	26.451
701.58	26.510
701.90	26.481
702.22	26.507
702.54	26.538
702.86	26.620
703.17	26.762
703.49	26.825
703.81	26.932
704.13	26.935
704.45	27.039
704.76	27.199
705.08	27.360
705.40	27.535
705.72	27.597
706.03	27.768
706.35	27.778
706.67	27.900
706.99	28.010
707.30	28.103
707.62	28.278
707.94	28.326
708.26	28.313
708.57	28.404
708.89	28.509
709.21	28.642
709.53	28.719
709.84	28.851
710.16	28.880
710.48	28.995
710.79	29.174
711.11	29.234
711.43	29.351
711.74	29.491
712.06	29.561
712.38	29.675
712.69	29.731
713.01	29.831
713.33	29.960
713.64	30.171
713.96	30.297
714.28	30.443
714.59	30.643
714.91	30.724
715.23	30.881
715.54	30.997
715.86	31.128
716.17	31.302
716.49	31.400
716.81	31.543
717.12	31.534
717.44	31.642
717.76	31.703
718.07	31.701
718.39	31.832
718.70	31.931
719.02	31.946
719.33	32.024
719.65	32.089
719.97	32.179
720.28	32.157
720.60	32.371
720.91	32.375
721.23	32.427
721.54	32.638
721.86	32.811
722.17	32.743
722.49	32.994
722.81	32.950
723.12	33.097
723.44	33.309
723.75	33.581
724.07	33.596
724.38	33.680
724.70	33.629
725.01	33.692
725.33	33.726
725.64	33.948
725.96	33.931
726.27	34.065
726.59	34.139
726.90	34.063
727.22	33.878
727.53	33.906
727.84	34.010
728.16	34.106
728.47	34.052
728.79	34.050
729.10	34.040
729.42	34.121
729.73	34.168
730.05	34.113
730.36	34.188
730.67	34.321
730.99	34.374
731.30	34.334
731.62	34.287
731.93	34.376
732.24	34.329
732.56	34.307
732.87	34.340
733.19	34.455
733.50	34.516
733.81	34.505
734.13	34.513
734.44	34.497
734.76	34.483
735.07	34.482
735.38	34.403
735.70	34.553
736.01	34.531
736.32	34.566
736.64	34.458
736.95	34.369
737.26	34.391
737.58	34.506
737.89	34.550
738.20	34.610
738.52	34.818
738.83	34.853
739.14	34.831
739.45	34.926
739.77	34.825
740.08	34.816
740.39	35.003
740.71	34.983
741.02	34.883
741.33	34.798
741.64	34.787
741.96	34.663
742.27	34.675
742.58	34.747
742.90	34.708
743.21	34.736
743.52	35.026
743.83	35.113
744.14	35.278
744.46	35.320
744.77	35.379
745.08	35.463
745.39	35.608
745.71	35.693
746.02	35.681
746.33	35.674
746.64	35.810
746.95	35.778
747.27	35.678
747.58	35.690
747.89	35.829
748.20	35.950
748.51	36.132
748.82	36.149
749.14	36.322
749.45	36.420
749.76	36.576
750.07	36.602
750.38	36.572
750.69	36.701
751.01	36.671
751.32	36.598
751.63	36.730
751.94	36.621
752.25	36.516
752.56	36.389
752.87	36.354
753.18	36.430
753.49	36.405
753.81	36.631
754.12	36.465
754.43	36.652
754.74	36.711
755.05	36.750
755.36	36.898
755.67	37.205
755.98	37.524
756.29	37.764
756.60	38.117
756.91	38.430
757.22	38.348
757.53	38.617
757.84	38.818
758.15	39.047
758.46	39.315
758.77	39.407
759.09	39.515
759.40	39.520
759.71	39.554
760.02	39.543
760.33	39.747
760.64	39.942
760.95	40.173
761.26	40.122
761.57	40.205
761.88	40.128
762.18	40.243
762.49	40.189
762.80	40.206
763.11	40.304
763.42	40.192
763.73	40.007
764.04	39.995
764.35	39.740
764.66	39.715
764.97	39.491
765.28	39.357
765.59	39.133
765.90	38.860
766.21	38.571
766.52	38.248
766.83	38.165
767.14	38.044
767.44	37.625
767.75	37.544
768.06	37.417
768.37	37.433
768.68	37.393
768.99	37.399
769.30	37.466
769.61	37.406
769.91	37.414
770.22	37.284
770.53	36.905
770.84	36.982
771.15	37.043
771.46	36.779
771.77	36.682
772.07	36.495
772.38	36.409
772.69	36.421
773.00	36.555
773.31	36.419
773.61	36.297
773.92	36.459
774.23	36.318
774.54	36.271
774.85	36.232
775.15	36.108
775.46	36.229
775.77	36.285
776.08	36.459
776.39	36.270
776.69	36.541
777.00	36.691
777.31	36.757
777.62	36.873
777.92	36.850
778.23	37.151
778.54	37.323
778.85	37.284
779.15	37.034
779.46	36.971
779.77	37.391
780.07	37.254
780.38	37.465
780.69	37.413
781.00	37.793
781.30	37.725
781.61	37.552
781.92	37.669
782.22	37.836
782.53	37.976
782.84	38.295
783.14	38.306
783.45	38.261
783.76	38.435
784.06	38.869
784.37	38.451
784.68	38.821
784.98	38.812
785.29	38.835
785.60	39.236
785.90	39.457
786.21	39.395
786.51	39.323
786.82	39.809
787.13	39.866
787.43	39.967
787.74	40.366
788.04	40.467
788.35	40.907
788.66	40.912
788.96	40.728
789.27	40.875
789.57	40.816
789.88	40.984
790.19	40.704
790.49	40.400
790.80	40.273
791.10	40.150
791.41	40.098
791.71	39.856
792.02	39.880
792.32	39.712
792.63	39.562
792.93	39.564
793.24	39.823
793.54	39.877
793.85	40.031
794.15	39.927
794.46	40.085
794.76	40.227
795.07	40.349
795.37	40.549
795.68	40.787
795.98	40.972
796.29	41.299
796.59	41.005
796.90	41.202
797.20	41.303
797.51	41.221
797.81	40.883
798.12	40.903
798.42	41.103
798.72	41.167
799.03	41.342
799.33	41.419
799.64	41.321
799.94	41.581
800.25	41.525
800.55	41.552
800.85	41.815
801.16	42.250
801.46	42.272
801.77	42.024
802.07	42.531
802.37	42.400
802.68	42.148
802.98	42.260
803.28	42.196
803.59	42.359
803.89	42.518
804.20	42.530
804.50	42.492
804.80	42.456
805.11	42.967
805.41	42.572
805.71	42.502
806.02	42.331
806.32	42.292
806.62	42.608
806.93	42.385
807.23	42.895
807.53	43.186
807.83	42.948
808.14	43.424
808.44	43.187
808.74	43.341
809.05	43.284
809.35	43.785
809.65	44.165
809.95	44.029
810.26	44.164
810.56	44.186
810.86	44.193
811.16	44.686
811.47	44.457
811.77	44.810
812.07	44.590
812.37	44.558
812.68	44.778
812.98	44.680
813.28	44.706
813.58	45.114
813.88	44.341
814.19	44.787
814.49	45.169
814.79	45.276
815.09	45.396
815.39	45.547
815.70	46.226
816.00	46.441
816.30	46.257
816.60	46.173
816.90	46.095
817.20	46.428
817.50	46.044
817.81	45.651
818.11	45.727
818.41	45.660
818.71	45.662
819.01	45.721
819.31	46.097
819.61	46.459
819.92	46.813
820.22	47.022
820.52	47.281
820.82	47.649
821.12	48.032
821.42	48.341
821.72	48.691
822.02	49.158
822.32	49.534
822.62	49.822
822.92	50.063
823.22	50.292
823.52	50.617
823.83	50.776
824.13	50.907
824.43	50.814
824.73	50.952
825.03	50.847
825.33	50.875
825.63	50.674
825.93	50.445
826.23	50.335
826.53	50.263
826.83	50.069
827.13	50.379
827.43	50.242
827.73	50.650
828.03	50.667
828.33	51.043
828.63	50.829
828.93	51.197
829.23	51.201
829.53	51.194
829.83	50.918
830.13	50.871
830.42	50.033
830.72	50.216
831.02	50.002
831.32	49.426
831.62	49.170
831.92	49.295
832.22	49.219
832.52	49.154
832.82	49.221
833.12	49.330
833.42	49.266
833.72	49.583
834.01	49.587
834.31	49.802
834.61	50.468
834.91	51.151
835.21	51.207
835.51	51.189
835.81	51.245
836.11	51.695
836.40	52.256
836.70	52.699
837.00	52.953
837.30	52.736
837.60	53.223
837.90	52.964
838.19	51.984
838.49	51.890
838.79	52.324
839.09	52.359
839.39	51.970
839.68	51.884
839.98	51.425
840.28	51.049
840.58	51.455
840.88	50.603
841.17	49.684
841.47	50.443
841.77	50.361
842.07	49.875
842.36	50.146
842.66	49.004
842.96	47.626
843.26	46.691
843.55	45.919
843.85	44.965
844.15	43.942
844.45	43.993
844.74	42.153
845.04	42.393
845.34	42.269
845.63	42.655
845.93	43.665
846.23	44.705
846.53	46.314
846.82	47.386
847.12	48.760
847.42	49.883
847.71	49.880
848.01	51.275
848.31	50.588
848.60	49.013
848.90	46.872
849.19	47.637
849.49	47.291
849.79	46.986
850.08	47.286
850.38	46.195
850.68	46.965
850.97	48.886
851.27	47.502
851.56	48.108
851.86	48.743
852.16	51.040
852.45	49.272
852.75	49.581
853.04	50.407
853.34	51.790
853.64	50.934
853.93	49.105
854.23	48.654
854.52	49.582
854.82	50.601
855.11	50.830
855.41	51.308
855.70	51.479
856.00	52.310
856.30	51.261
856.59	48.761
856.89	50.260
857.18	51.663
857.48	50.923
857.77	49.002
858.07	47.087
858.36	47.010
858.66	45.648
858.95	46.410
859.25	44.391
859.54	45.568
859.84	44.884
860.13	43.476
860.42	42.688
860.72	41.633
861.01	43.644
861.31	45.138
861.60	46.312
861.90	46.525
862.19	47.243
862.49	47.696
862.78	46.728
863.07	48.760
863.37	51.855
863.66	51.650
863.96	54.563
864.25	55.429
864.54	54.441
864.84	53.413
865.13	54.096
865.43	54.079
865.72	67.793
866.01	48.459
866.31	43.186
866.60	52.674
866.89	54.216
>>>>>End Spectral Data<<<<<
