OOIBase32 Version 2.0.0.6 Data File
++++++++++++++++++++++++++++++++++++
Date: 01-23-2012, 23:26:18
User: Valued Ocean Optics Customer
Spectrometer Serial Number: USB2E2917
Spectrometer Channel: Master
Integration Time (msec): 5
Spectra Averaged: 10
Boxcar Smoothing: 5
Correct for Electrical Dark: Enabled
Time Normalized: Disabled
Dual-beam Reference: Disabled
Reference Channel: Master
Temperature: Not acquired
Spectrometer Type: S2000
ADC Type: USB2000
Number of Pixels in File: 2048
Graph Title: 
>>>>>Begin Spectral Data<<<<<
180.30	0.000
180.67	0.000
181.03	2.592
181.40	268.972
181.77	-4825.994
182.14	26.474
182.51	148.185
182.88	-27.451
183.25	-13.736
183.62	165.528
183.99	118.688
184.36	210.351
184.73	123.477
185.10	67.315
185.46	42.942
185.83	124.313
186.20	646.017
186.57	76.887
186.94	130.353
187.31	102.828
187.68	136.797
188.05	61.764
188.42	115.115
188.78	238.323
189.15	910.502
189.52	-249.330
189.89	-83.245
190.26	-51.461
190.63	-25.279
191.00	-9.634
191.37	-6.121
191.73	5.204
192.10	2.814
192.47	7.010
192.84	5.535
193.21	8.948
193.58	17.152
193.94	19.722
194.31	8.146
194.68	0.478
195.05	-12.796
195.42	-23.963
195.79	-35.232
196.15	-23.868
196.52	-32.437
196.89	-40.078
197.26	-61.312
197.63	-34.545
198.00	-5.966
198.36	4.189
198.73	-2.116
199.10	22.122
199.47	39.277
199.84	37.217
200.20	21.054
200.57	16.620
200.94	18.511
201.31	29.316
201.68	5.523
202.04	-5.714
202.41	2.703
202.78	14.584
203.15	13.744
203.51	5.912
203.88	-8.551
204.25	-15.728
204.62	-8.297
204.98	-2.557
205.35	9.860
205.72	37.781
206.09	24.702
206.46	-15.336
206.82	-31.964
207.19	-51.131
207.56	-82.487
207.92	-57.280
208.29	-65.145
208.66	-39.628
209.03	-43.011
209.39	-22.465
209.76	-22.330
210.13	-60.481
210.50	-44.141
210.86	-26.402
211.23	-17.681
211.60	-1.146
211.96	-2.273
212.33	1.340
212.70	-10.374
213.07	-1.146
213.43	-42.706
213.80	-64.127
214.17	-18.522
214.53	-6.902
214.90	-8.267
215.27	-2.790
215.63	-11.745
216.00	-7.442
216.37	0.838
216.74	-4.889
217.10	-4.546
217.47	-5.949
217.84	1.517
218.20	-7.065
218.57	-2.291
218.94	-4.090
219.30	-9.093
219.67	-13.226
220.04	-12.090
220.40	-15.057
220.77	-13.961
221.13	-12.899
221.50	-9.501
221.87	-11.633
222.23	-12.475
222.60	-15.665
222.97	-17.740
223.33	-10.404
223.70	0.368
224.07	0.168
224.43	-0.116
224.80	3.063
225.16	1.681
225.53	1.806
225.90	0.443
226.26	3.413
226.63	3.736
226.99	4.941
227.36	4.222
227.73	4.412
228.09	4.737
228.46	7.316
228.82	7.140
229.19	7.441
229.56	8.407
229.92	10.912
230.29	10.733
230.65	10.476
231.02	10.219
231.38	7.983
231.75	6.157
232.12	3.920
232.48	-1.607
232.85	-3.533
233.21	-4.031
233.58	-5.766
233.94	-5.746
234.31	-7.054
234.68	-5.159
235.04	-3.908
235.41	-1.851
235.77	-0.538
236.14	-0.286
236.50	2.374
236.87	4.184
237.23	5.165
237.60	5.072
237.96	4.109
238.33	4.157
238.69	3.353
239.06	2.949
239.42	3.262
239.79	2.628
240.15	2.936
240.52	2.802
240.88	3.169
241.25	2.906
241.61	3.576
241.98	3.655
242.34	3.965
242.71	4.561
243.07	4.861
243.44	4.779
243.80	4.853
244.17	5.041
244.53	4.809
244.90	4.428
245.26	4.385
245.63	4.154
245.99	3.935
246.36	3.806
246.72	3.831
247.09	3.413
247.45	3.455
247.81	3.767
248.18	3.702
248.54	3.894
248.91	3.593
249.27	3.569
249.64	3.833
250.00	4.242
250.36	3.787
250.73	3.286
251.09	3.601
251.46	3.351
251.82	2.680
252.19	2.801
252.55	2.667
252.91	3.407
253.28	3.744
253.64	2.750
254.01	2.595
254.37	3.494
254.73	3.737
255.10	3.904
255.46	4.219
255.83	4.518
256.19	4.169
256.55	4.244
256.92	4.330
257.28	4.271
257.65	4.598
258.01	4.508
258.37	4.324
258.74	4.200
259.10	4.122
259.46	3.930
259.83	3.745
260.19	3.938
260.55	3.947
260.92	3.492
261.28	3.552
261.64	3.696
262.01	3.905
262.37	3.844
262.73	3.869
263.10	3.894
263.46	3.956
263.82	3.998
264.19	3.800
264.55	3.243
264.91	3.644
265.28	3.487
265.64	3.308
266.00	3.258
266.37	3.367
266.73	3.356
267.09	3.388
267.46	3.331
267.82	3.230
268.18	3.282
268.54	3.742
268.91	3.582
269.27	3.525
269.63	3.732
270.00	3.859
270.36	3.909
270.72	4.124
271.08	4.056
271.45	4.086
271.81	4.136
272.17	3.999
272.53	3.881
272.90	4.057
273.26	4.074
273.62	3.943
273.98	3.614
274.35	3.413
274.71	2.997
275.07	3.116
275.43	3.223
275.80	3.411
276.16	3.468
276.52	3.602
276.88	3.573
277.25	3.529
277.61	3.474
277.97	3.678
278.33	3.717
278.69	3.872
279.06	3.754
279.42	3.873
279.78	3.823
280.14	4.089
280.50	4.151
280.87	4.089
281.23	4.397
281.59	4.442
281.95	4.579
282.31	4.988
282.68	5.054
283.04	5.029
283.40	5.022
283.76	5.053
284.12	5.157
284.48	5.104
284.85	5.230
285.21	5.142
285.57	5.164
285.93	5.143
286.29	4.972
286.65	5.194
287.02	5.602
287.38	5.645
287.74	5.652
288.10	5.652
288.46	5.890
288.82	5.941
289.18	6.113
289.54	6.284
289.91	6.414
290.27	6.521
290.63	6.504
290.99	6.358
291.35	6.425
291.71	6.561
292.07	6.552
292.43	6.456
292.79	6.469
293.16	6.185
293.52	6.338
293.88	6.407
294.24	6.542
294.60	6.656
294.96	6.719
295.32	6.849
295.68	7.073
296.04	7.178
296.40	7.394
296.76	7.529
297.12	7.730
297.49	7.707
297.85	7.687
298.21	7.788
298.57	7.745
298.93	7.938
299.29	7.908
299.65	8.018
300.01	7.971
300.37	7.953
300.73	8.048
301.09	8.253
301.45	8.391
301.81	8.662
302.17	8.746
302.53	8.719
302.89	8.698
303.25	8.815
303.61	8.684
303.97	8.861
304.33	8.889
304.69	8.898
305.05	8.823
305.41	8.806
305.77	8.663
306.13	8.461
306.49	8.684
306.85	8.668
307.21	8.673
307.57	8.746
307.93	8.774
308.29	8.953
308.65	9.055
309.01	9.159
309.37	9.165
309.73	9.266
310.09	9.460
310.45	9.447
310.81	9.532
311.17	9.584
311.53	9.531
311.89	9.667
312.25	9.674
312.61	9.544
312.96	9.556
313.32	9.588
313.68	9.597
314.04	9.527
314.40	9.450
314.76	9.390
315.12	9.320
315.48	9.409
315.84	9.294
316.20	9.188
316.56	9.278
316.92	9.185
317.27	9.210
317.63	9.145
317.99	9.184
318.35	9.322
318.71	9.428
319.07	9.501
319.43	9.543
319.79	9.599
320.15	9.601
320.50	9.539
320.86	9.523
321.22	9.475
321.58	9.512
321.94	9.549
322.30	9.453
322.66	9.418
323.01	9.373
323.37	9.487
323.73	9.473
324.09	9.492
324.45	9.586
324.81	9.594
325.17	9.713
325.52	9.715
325.88	9.559
326.24	9.581
326.60	9.550
326.96	9.506
327.31	9.359
327.67	9.119
328.03	9.083
328.39	8.978
328.75	9.039
329.11	9.028
329.46	9.099
329.82	9.239
330.18	9.208
330.54	9.240
330.90	9.221
331.25	9.199
331.61	9.421
331.97	9.376
332.33	9.517
332.68	9.528
333.04	9.530
333.40	9.410
333.76	9.318
334.11	9.355
334.47	9.314
334.83	9.323
335.19	9.322
335.54	9.311
335.90	9.312
336.26	9.234
336.62	9.136
336.97	8.962
337.33	8.889
337.69	8.902
338.05	8.831
338.40	8.840
338.76	8.805
339.12	8.826
339.48	8.775
339.83	8.789
340.19	8.830
340.55	8.958
340.90	9.019
341.26	9.042
341.62	9.065
341.97	9.067
342.33	9.087
342.69	9.180
343.04	9.166
343.40	9.121
343.76	9.002
344.12	8.878
344.47	8.838
344.83	8.846
345.19	8.865
345.54	8.776
345.90	8.898
346.26	8.868
346.61	8.873
346.97	8.889
347.32	8.937
347.68	9.036
348.04	9.016
348.39	8.889
348.75	8.877
349.11	8.903
349.46	8.880
349.82	8.828
350.18	8.790
350.53	8.757
350.89	8.741
351.24	8.650
351.60	8.680
351.96	8.725
352.31	8.788
352.67	8.761
353.02	8.717
353.38	8.743
353.74	8.733
354.09	8.741
354.45	8.750
354.80	8.690
355.16	8.782
355.52	8.716
355.87	8.625
356.23	8.637
356.58	8.635
356.94	8.663
357.29	8.672
357.65	8.624
358.00	8.636
358.36	8.567
358.72	8.618
359.07	8.521
359.43	8.516
359.78	8.588
360.14	8.608
360.49	8.615
360.85	8.600
361.20	8.631
361.56	8.595
361.91	8.550
362.27	8.604
362.62	8.571
362.98	8.631
363.33	8.608
363.69	8.570
364.04	8.558
364.40	8.482
364.75	8.439
365.11	8.372
365.46	8.343
365.82	8.342
366.17	8.306
366.53	8.311
366.88	8.336
367.24	8.370
367.59	8.390
367.95	8.391
368.30	8.443
368.66	8.458
369.01	8.479
369.37	8.509
369.72	8.528
370.08	8.566
370.43	8.518
370.78	8.461
371.14	8.399
371.49	8.427
371.85	8.386
372.20	8.364
372.56	8.360
372.91	8.344
373.26	8.334
373.62	8.309
373.97	8.253
374.33	8.247
374.68	8.275
375.03	8.304
375.39	8.277
375.74	8.226
376.10	8.233
376.45	8.302
376.80	8.344
377.16	8.336
377.51	8.349
377.87	8.396
378.22	8.436
378.57	8.427
378.93	8.429
379.28	8.462
379.63	8.478
379.99	8.523
380.34	8.472
380.70	8.461
381.05	8.499
381.40	8.490
381.76	8.509
382.11	8.509
382.46	8.514
382.82	8.543
383.17	8.501
383.52	8.559
383.88	8.515
384.23	8.546
384.58	8.541
384.94	8.509
385.29	8.515
385.64	8.500
385.99	8.501
386.35	8.499
386.70	8.497
387.05	8.523
387.41	8.510
387.76	8.493
388.11	8.489
388.47	8.458
388.82	8.498
389.17	8.518
389.52	8.521
389.88	8.502
390.23	8.495
390.58	8.497
390.93	8.468
391.29	8.444
391.64	8.488
391.99	8.520
392.34	8.579
392.70	8.548
393.05	8.549
393.40	8.538
393.75	8.550
394.11	8.543
394.46	8.536
394.81	8.580
395.16	8.578
395.52	8.527
395.87	8.484
396.22	8.488
396.57	8.474
396.92	8.473
397.28	8.466
397.63	8.435
397.98	8.426
398.33	8.415
398.68	8.388
399.04	8.409
399.39	8.417
399.74	8.384
400.09	8.341
400.44	8.389
400.80	8.349
401.15	8.327
401.50	8.366
401.85	8.396
402.20	8.373
402.55	8.386
402.90	8.338
403.26	8.367
403.61	8.404
403.96	8.401
404.31	8.419
404.66	8.459
405.01	8.480
405.36	8.489
405.72	8.520
406.07	8.547
406.42	8.527
406.77	8.582
407.12	8.589
407.47	8.612
407.82	8.669
408.17	8.639
408.53	8.633
408.88	8.633
409.23	8.632
409.58	8.589
409.93	8.646
410.28	8.692
410.63	8.693
410.98	8.714
411.33	8.689
411.68	8.694
412.03	8.727
412.38	8.743
412.73	8.798
413.09	8.839
413.44	8.888
413.79	8.893
414.14	8.926
414.49	8.968
414.84	9.001
415.19	9.040
415.54	9.062
415.89	9.079
416.24	9.117
416.59	9.138
416.94	9.163
417.29	9.188
417.64	9.216
417.99	9.228
418.34	9.241
418.69	9.271
419.04	9.288
419.39	9.312
419.74	9.336
420.09	9.354
420.44	9.374
420.79	9.385
421.14	9.409
421.49	9.428
421.84	9.449
422.19	9.501
422.54	9.515
422.89	9.549
423.24	9.578
423.59	9.606
423.94	9.632
424.29	9.660
424.64	9.708
424.99	9.737
425.34	9.770
425.68	9.809
426.03	9.815
426.38	9.855
426.73	9.903
427.08	9.924
427.43	9.969
427.78	10.011
428.13	10.039
428.48	10.070
428.83	10.086
429.18	10.113
429.53	10.139
429.87	10.131
430.22	10.149
430.57	10.178
430.92	10.198
431.27	10.240
431.62	10.258
431.97	10.299
432.32	10.331
432.67	10.376
433.01	10.404
433.36	10.438
433.71	10.511
434.06	10.544
434.41	10.572
434.76	10.608
435.11	10.617
435.45	10.638
435.80	10.655
436.15	10.663
436.50	10.691
436.85	10.725
437.20	10.749
437.54	10.757
437.89	10.781
438.24	10.791
438.59	10.817
438.94	10.851
439.29	10.887
439.63	10.924
439.98	10.955
440.33	10.954
440.68	10.983
441.03	11.015
441.37	11.078
441.72	11.125
442.07	11.148
442.42	11.185
442.76	11.239
443.11	11.262
443.46	11.303
443.81	11.343
444.16	11.394
444.50	11.405
444.85	11.432
445.20	11.433
445.55	11.454
445.89	11.507
446.24	11.529
446.59	11.519
446.94	11.556
447.28	11.557
447.63	11.569
447.98	11.592
448.32	11.627
448.67	11.649
449.02	11.678
449.37	11.693
449.71	11.713
450.06	11.735
450.41	11.770
450.75	11.790
451.10	11.834
451.45	11.851
451.79	11.875
452.14	11.886
452.49	11.924
452.84	11.951
453.18	11.980
453.53	11.985
453.88	12.016
454.22	12.035
454.57	12.065
454.92	12.098
455.26	12.150
455.61	12.209
455.95	12.269
456.30	12.286
456.65	12.336
456.99	12.384
457.34	12.440
457.69	12.472
458.03	12.508
458.38	12.547
458.73	12.567
459.07	12.584
459.42	12.585
459.76	12.583
460.11	12.597
460.46	12.607
460.80	12.616
461.15	12.624
461.49	12.640
461.84	12.683
462.19	12.697
462.53	12.726
462.88	12.774
463.22	12.801
463.57	12.856
463.91	12.905
464.26	12.941
464.61	12.958
464.95	13.001
465.30	13.027
465.64	13.053
465.99	13.096
466.33	13.128
466.68	13.157
467.02	13.188
467.37	13.197
467.71	13.232
468.06	13.275
468.41	13.299
468.75	13.313
469.10	13.337
469.44	13.355
469.79	13.352
470.13	13.359
470.48	13.366
470.82	13.388
471.17	13.420
471.51	13.424
471.86	13.416
472.20	13.458
472.55	13.476
472.89	13.501
473.23	13.519
473.58	13.550
473.92	13.573
474.27	13.569
474.61	13.586
474.96	13.610
475.30	13.633
475.65	13.660
475.99	13.675
476.34	13.702
476.68	13.726
477.02	13.740
477.37	13.766
477.71	13.821
478.06	13.895
478.40	13.975
478.75	14.125
479.09	14.287
479.43	14.495
479.78	14.761
480.12	15.039
480.47	15.327
480.81	15.624
481.15	15.912
481.50	16.215
481.84	16.569
482.19	16.950
482.53	17.243
482.87	17.444
483.22	17.468
483.56	17.318
483.90	17.068
484.25	16.758
484.59	16.424
484.94	16.125
485.28	15.853
485.62	15.535
485.97	15.175
486.31	14.887
486.65	14.683
487.00	14.615
487.34	14.669
487.68	14.789
488.03	14.943
488.37	15.101
488.71	15.222
489.06	15.242
489.40	15.248
489.74	15.257
490.09	15.240
490.43	15.230
490.77	15.222
491.11	15.209
491.46	15.202
491.80	15.192
492.14	15.159
492.49	15.116
492.83	15.102
493.17	15.074
493.51	15.035
493.86	15.007
494.20	14.983
494.54	14.984
494.88	15.008
495.23	15.023
495.57	15.048
495.91	15.088
496.25	15.144
496.60	15.178
496.94	15.208
497.28	15.242
497.62	15.277
497.97	15.306
498.31	15.328
498.65	15.328
498.99	15.343
499.33	15.380
499.68	15.414
500.02	15.413
500.36	15.415
500.70	15.428
501.04	15.432
501.39	15.452
501.73	15.482
502.07	15.508
502.41	15.539
502.75	15.565
503.09	15.588
503.44	15.633
503.78	15.650
504.12	15.672
504.46	15.692
504.80	15.738
505.14	15.799
505.49	15.824
505.83	15.852
506.17	15.884
506.51	15.926
506.85	15.959
507.19	15.954
507.53	15.997
507.87	16.042
508.22	16.062
508.56	16.085
508.90	16.081
509.24	16.090
509.58	16.124
509.92	16.161
510.26	16.169
510.60	16.193
510.94	16.225
511.28	16.228
511.63	16.241
511.97	16.276
512.31	16.288
512.65	16.298
512.99	16.347
513.33	16.400
513.67	16.419
514.01	16.493
514.35	16.513
514.69	16.561
515.03	16.612
515.37	16.666
515.71	16.721
516.05	16.765
516.39	16.813
516.73	16.847
517.07	16.852
517.41	16.868
517.75	16.862
518.09	16.896
518.43	16.903
518.77	16.888
519.11	16.868
519.45	16.848
519.79	16.865
520.13	16.870
520.47	16.899
520.81	16.910
521.15	16.955
521.49	16.975
521.83	17.002
522.17	17.039
522.51	17.150
522.85	17.234
523.19	17.344
523.53	17.467
523.87	17.615
524.21	17.757
524.55	17.920
524.89	18.057
525.23	18.204
525.57	18.314
525.91	18.440
526.25	18.536
526.58	18.654
526.92	18.721
527.26	18.755
527.60	18.750
527.94	18.742
528.28	18.706
528.62	18.666
528.96	18.627
529.30	18.595
529.64	18.532
529.97	18.477
530.31	18.387
530.65	18.338
530.99	18.324
531.33	18.326
531.67	18.322
532.01	18.346
532.35	18.368
532.68	18.375
533.02	18.372
533.36	18.378
533.70	18.362
534.04	18.368
534.38	18.356
534.71	18.342
535.05	18.342
535.39	18.338
535.73	18.326
536.07	18.338
536.41	18.368
536.74	18.411
537.08	18.466
537.42	18.545
537.76	18.611
538.10	18.682
538.43	18.745
538.77	18.819
539.11	18.889
539.45	18.945
539.79	18.983
540.12	19.021
540.46	19.041
540.80	19.041
541.14	19.028
541.47	19.010
541.81	18.998
542.15	18.991
542.49	18.963
542.82	18.923
543.16	18.885
543.50	18.863
543.84	18.838
544.17	18.822
544.51	18.839
544.85	18.850
545.18	18.868
545.52	18.877
545.86	18.858
546.20	18.876
546.53	18.897
546.87	18.906
547.21	18.895
547.54	18.911
547.88	18.938
548.22	18.930
548.55	18.927
548.89	18.950
549.23	18.993
549.56	19.008
549.90	19.036
550.24	19.046
550.57	19.076
550.91	19.138
551.25	19.153
551.58	19.173
551.92	19.185
552.26	19.199
552.59	19.226
552.93	19.237
553.27	19.292
553.60	19.297
553.94	19.310
554.27	19.342
554.61	19.368
554.95	19.380
555.28	19.401
555.62	19.437
555.95	19.492
556.29	19.506
556.63	19.533
556.96	19.545
557.30	19.562
557.63	19.596
557.97	19.636
558.31	19.628
558.64	19.652
558.98	19.695
559.31	19.733
559.65	19.731
559.98	19.770
560.32	19.781
560.65	19.800
560.99	19.797
561.33	19.847
561.66	19.870
562.00	19.923
562.33	19.974
562.67	19.988
563.00	20.014
563.34	20.059
563.67	20.091
564.01	20.118
564.34	20.154
564.68	20.215
565.01	20.252
565.35	20.273
565.68	20.294
566.02	20.292
566.35	20.350
566.69	20.339
567.02	20.359
567.36	20.358
567.69	20.404
568.03	20.447
568.36	20.469
568.69	20.456
569.03	20.505
569.36	20.528
569.70	20.570
570.03	20.581
570.37	20.638
570.70	20.689
571.04	20.718
571.37	20.746
571.70	20.762
572.04	20.786
572.37	20.822
572.71	20.813
573.04	20.847
573.37	20.879
573.71	20.895
574.04	20.938
574.38	20.922
574.71	20.950
575.04	20.971
575.38	20.986
575.71	21.022
576.05	21.056
576.38	21.119
576.71	21.119
577.05	21.142
577.38	21.171
577.71	21.195
578.05	21.238
578.38	21.246
578.71	21.244
579.05	21.258
579.38	21.279
579.71	21.289
580.05	21.276
580.38	21.301
580.71	21.287
581.05	21.314
581.38	21.327
581.71	21.362
582.05	21.382
582.38	21.408
582.71	21.422
583.04	21.461
583.38	21.475
583.71	21.507
584.04	21.537
584.38	21.587
584.71	21.627
585.04	21.646
585.37	21.672
585.71	21.754
586.04	21.795
586.37	21.861
586.70	21.871
587.04	21.927
587.37	21.979
587.70	22.007
588.03	22.036
588.37	22.063
588.70	22.093
589.03	22.096
589.36	22.102
589.69	22.131
590.03	22.124
590.36	22.142
590.69	22.125
591.02	22.092
591.35	22.082
591.69	22.114
592.02	22.128
592.35	22.137
592.68	22.174
593.01	22.177
593.35	22.174
593.68	22.166
594.01	22.185
594.34	22.203
594.67	22.231
595.00	22.245
595.34	22.210
595.67	22.179
596.00	22.202
596.33	22.220
596.66	22.236
596.99	22.265
597.32	22.293
597.65	22.277
597.99	22.298
598.32	22.334
598.65	22.372
598.98	22.391
599.31	22.443
599.64	22.483
599.97	22.482
600.30	22.465
600.63	22.477
600.96	22.510
601.30	22.551
601.63	22.582
601.96	22.579
602.29	22.587
602.62	22.617
602.95	22.615
603.28	22.605
603.61	22.624
603.94	22.670
604.27	22.725
604.60	22.728
604.93	22.765
605.26	22.772
605.59	22.803
605.92	22.836
606.25	22.893
606.58	22.907
606.91	22.898
607.24	22.937
607.57	22.940
607.90	22.923
608.23	22.943
608.56	22.946
608.89	22.962
609.22	22.986
609.55	23.014
609.88	22.991
610.21	23.008
610.54	23.038
610.87	22.984
611.20	23.014
611.53	23.023
611.86	23.064
612.19	23.070
612.52	23.088
612.85	23.117
613.18	23.125
613.51	23.120
613.84	23.149
614.17	23.174
614.49	23.279
614.82	23.272
615.15	23.323
615.48	23.318
615.81	23.326
616.14	23.364
616.47	23.354
616.80	23.344
617.13	23.374
617.46	23.399
617.78	23.442
618.11	23.398
618.44	23.447
618.77	23.436
619.10	23.441
619.43	23.485
619.76	23.467
620.09	23.537
620.41	23.585
620.74	23.631
621.07	23.682
621.40	23.701
621.73	23.738
622.06	23.774
622.38	23.810
622.71	23.857
623.04	23.887
623.37	23.924
623.70	23.934
624.02	23.975
624.35	23.997
624.68	23.999
625.01	24.024
625.34	24.092
625.66	24.126
625.99	24.156
626.32	24.170
626.65	24.178
626.98	24.248
627.30	24.240
627.63	24.261
627.96	24.260
628.29	24.290
628.61	24.319
628.94	24.355
629.27	24.350
629.60	24.347
629.92	24.409
630.25	24.439
630.58	24.415
630.91	24.455
631.23	24.464
631.56	24.483
631.89	24.506
632.21	24.542
632.54	24.498
632.87	24.519
633.19	24.513
633.52	24.509
633.85	24.516
634.18	24.532
634.50	24.558
634.83	24.593
635.16	24.613
635.48	24.570
635.81	24.556
636.14	24.604
636.46	24.614
636.79	24.662
637.11	24.644
637.44	24.642
637.77	24.662
638.09	24.648
638.42	24.620
638.75	24.655
639.07	24.729
639.40	24.731
639.73	24.735
640.05	24.708
640.38	24.773
640.70	24.846
641.03	24.887
641.36	24.879
641.68	24.907
642.01	24.960
642.33	24.974
642.66	25.023
642.98	25.087
643.31	25.113
643.64	25.190
643.96	25.178
644.29	25.162
644.61	25.209
644.94	25.301
645.26	25.383
645.59	25.481
645.91	25.598
646.24	25.630
646.56	25.655
646.89	25.724
647.22	25.726
647.54	25.783
647.87	25.877
648.19	25.913
648.52	25.873
648.84	25.844
649.17	25.794
649.49	25.753
649.82	25.793
650.14	25.812
650.47	25.815
650.79	25.859
651.11	25.810
651.44	25.807
651.76	25.810
652.09	25.903
652.41	25.972
652.74	26.018
653.06	26.049
653.39	26.038
653.71	26.097
654.04	26.114
654.36	26.174
654.68	26.312
655.01	26.388
655.33	26.401
655.66	26.388
655.98	26.463
656.30	26.465
656.63	26.502
656.95	26.512
657.28	26.525
657.60	26.513
657.92	26.545
658.25	26.498
658.57	26.440
658.90	26.490
659.22	26.532
659.54	26.478
659.87	26.515
660.19	26.518
660.51	26.557
660.84	26.547
661.16	26.611
661.48	26.571
661.81	26.552
662.13	26.630
662.45	26.634
662.78	26.694
663.10	26.754
663.42	26.769
663.75	26.816
664.07	26.841
664.39	26.901
664.72	26.923
665.04	26.997
665.36	27.079
665.69	27.093
666.01	27.181
666.33	27.191
666.65	27.195
666.98	27.243
667.30	27.300
667.62	27.357
667.94	27.331
668.27	27.308
668.59	27.320
668.91	27.342
669.23	27.358
669.56	27.371
669.88	27.328
670.20	27.341
670.52	27.364
670.85	27.303
671.17	27.287
671.49	27.287
671.81	27.367
672.13	27.431
672.46	27.487
672.78	27.537
673.10	27.531
673.42	27.652
673.74	27.633
674.07	27.649
674.39	27.731
674.71	27.760
675.03	27.880
675.35	27.899
675.67	27.953
676.00	27.972
676.32	27.964
676.64	27.982
676.96	28.016
677.28	28.182
677.60	28.249
677.92	28.348
678.25	28.438
678.57	28.531
678.89	28.595
679.21	28.548
679.53	28.623
679.85	28.714
680.17	28.789
680.49	28.807
680.81	28.788
681.13	28.815
681.46	28.770
681.78	28.776
682.10	28.733
682.42	28.767
682.74	28.855
683.06	28.902
683.38	28.990
683.70	29.046
684.02	29.112
684.34	29.242
684.66	29.291
684.98	29.457
685.30	29.556
685.62	29.645
685.94	29.734
686.26	29.806
686.58	29.807
686.90	29.834
687.22	29.885
687.54	29.925
687.86	29.931
688.18	29.964
688.50	29.952
688.82	29.905
689.14	29.912
689.46	29.917
689.78	29.904
690.10	29.968
690.42	29.978
690.74	30.014
691.06	30.018
691.38	29.968
691.70	29.975
692.02	29.962
692.34	30.053
692.66	30.018
692.98	30.028
693.30	30.079
693.62	30.091
693.94	30.103
694.26	30.077
694.57	30.110
694.89	30.221
695.21	30.343
695.53	30.406
695.85	30.412
696.17	30.574
696.49	30.680
696.81	30.763
697.13	30.784
697.44	30.839
697.76	30.905
698.08	30.984
698.40	30.996
698.72	30.931
699.04	30.893
699.36	30.895
699.67	30.783
699.99	30.739
700.31	30.695
700.63	30.658
700.95	30.577
701.27	30.526
701.58	30.447
701.90	30.332
702.22	30.392
702.54	30.409
702.86	30.472
703.17	30.445
703.49	30.419
703.81	30.432
704.13	30.514
704.45	30.618
704.76	30.798
705.08	30.945
705.40	31.071
705.72	31.118
706.03	31.203
706.35	31.207
706.67	31.287
706.99	31.401
707.30	31.500
707.62	31.557
707.94	31.520
708.26	31.479
708.57	31.431
708.89	31.498
709.21	31.585
709.53	31.566
709.84	31.652
710.16	31.836
710.48	31.930
710.79	31.933
711.11	31.974
711.43	32.045
711.74	32.180
712.06	32.241
712.38	32.319
712.69	32.300
713.01	32.457
713.33	32.584
713.64	32.725
713.96	32.711
714.28	32.871
714.59	33.009
714.91	33.265
715.23	33.347
715.54	33.442
715.86	33.557
716.17	33.721
716.49	33.902
716.81	33.932
717.12	33.807
717.44	33.860
717.76	33.966
718.07	33.850
718.39	33.736
718.70	33.583
719.02	33.484
719.33	33.422
719.65	33.353
719.97	33.165
720.28	33.129
720.60	33.279
720.91	33.320
721.23	33.318
721.54	33.457
721.86	33.379
722.17	33.486
722.49	33.712
722.81	33.725
723.12	33.871
723.44	34.042
723.75	34.164
724.07	34.176
724.38	34.338
724.70	34.398
725.01	34.446
725.33	34.588
725.64	34.672
725.96	34.700
726.27	34.714
726.59	34.756
726.90	34.718
727.22	34.688
727.53	34.808
727.84	34.853
728.16	34.775
728.47	34.837
728.79	34.977
729.10	34.946
729.42	34.879
729.73	34.924
730.05	34.907
730.36	34.924
730.67	34.972
730.99	34.851
731.30	34.714
731.62	34.712
731.93	34.746
732.24	34.649
732.56	34.649
732.87	34.722
733.19	34.750
733.50	34.712
733.81	34.769
734.13	34.814
734.44	34.825
734.76	34.768
735.07	34.799
735.38	34.655
735.70	34.678
736.01	34.667
736.32	34.748
736.64	34.819
736.95	34.756
737.26	34.709
737.58	34.564
737.89	34.614
738.20	34.695
738.52	34.704
738.83	34.696
739.14	34.661
739.45	34.726
739.77	34.594
740.08	34.481
740.39	34.554
740.71	34.695
741.02	34.791
741.33	34.698
741.64	34.771
741.96	34.665
742.27	34.809
742.58	34.780
742.90	34.947
743.21	35.023
743.52	35.178
743.83	35.187
744.14	35.062
744.46	35.108
744.77	35.288
745.08	35.155
745.39	35.105
745.71	35.061
746.02	35.124
746.33	35.015
746.64	34.990
746.95	34.960
747.27	35.176
747.58	35.255
747.89	35.315
748.20	35.187
748.51	35.503
748.82	35.667
749.14	35.754
749.45	35.924
749.76	36.060
750.07	36.327
750.38	36.406
750.69	36.419
751.01	36.451
751.32	36.383
751.63	36.671
751.94	36.657
752.25	36.850
752.56	36.911
752.87	36.795
753.18	36.709
753.49	36.577
753.81	36.667
754.12	36.630
754.43	36.790
754.74	36.984
755.05	36.967
755.36	37.142
755.67	37.307
755.98	37.666
756.29	38.094
756.60	38.302
756.91	38.631
757.22	38.942
757.53	39.386
757.84	39.674
758.15	40.077
758.46	40.508
758.77	40.715
759.09	40.975
759.40	41.005
759.71	41.101
760.02	41.347
760.33	41.548
760.64	41.635
760.95	41.710
761.26	41.833
761.57	41.847
761.88	41.780
762.18	41.836
762.49	41.792
762.80	41.871
763.11	41.935
763.42	41.848
763.73	41.751
764.04	41.703
764.35	41.490
764.66	41.233
764.97	40.876
765.28	40.811
765.59	40.557
765.90	40.188
766.21	39.846
766.52	39.362
766.83	39.194
767.14	38.893
767.44	38.640
767.75	38.658
768.06	38.570
768.37	38.665
768.68	38.557
768.99	38.454
769.30	38.645
769.61	38.586
769.91	38.548
770.22	38.351
770.53	38.488
770.84	38.522
771.15	38.304
771.46	38.143
771.77	38.182
772.07	38.101
772.38	38.037
772.69	37.840
773.00	37.914
773.31	38.147
773.61	38.152
773.92	38.275
774.23	38.366
774.54	38.443
774.85	38.694
775.15	38.617
775.46	38.620
775.77	38.847
776.08	38.952
776.39	38.938
776.69	39.033
777.00	39.286
777.31	39.314
777.62	39.124
777.92	39.023
778.23	38.942
778.54	39.197
778.85	39.237
779.15	39.281
779.46	39.452
779.77	39.706
780.07	39.605
780.38	39.826
780.69	39.748
781.00	39.908
781.30	40.001
781.61	39.991
781.92	40.341
782.22	40.629
782.53	40.619
782.84	40.631
783.14	40.773
783.45	40.898
783.76	41.124
784.06	41.188
784.37	41.125
784.68	41.291
784.98	41.623
785.29	41.521
785.60	41.183
785.90	41.350
786.21	41.470
786.51	41.483
786.82	41.682
787.13	41.645
787.43	41.729
787.74	42.055
788.04	42.174
788.35	42.268
788.66	42.034
788.96	42.330
789.27	42.439
789.57	42.478
789.88	42.381
790.19	42.442
790.49	42.271
790.80	42.447
791.10	42.487
791.41	42.424
791.71	42.351
792.02	42.744
792.32	42.671
792.63	42.800
792.93	42.903
793.24	43.142
793.54	43.218
793.85	43.304
794.15	43.131
794.46	43.300
794.76	43.456
795.07	43.661
795.37	43.617
795.68	43.667
795.98	43.759
796.29	44.107
796.59	44.129
796.90	44.126
797.20	44.008
797.51	44.152
797.81	43.842
798.12	43.890
798.42	43.632
798.72	43.449
799.03	43.454
799.33	43.335
799.64	43.169
799.94	43.364
800.25	43.192
800.55	43.652
800.85	43.956
801.16	44.254
801.46	44.134
801.77	44.135
802.07	44.555
802.37	44.965
802.68	44.981
802.98	45.343
803.28	45.328
803.59	45.509
803.89	45.552
804.20	45.676
804.50	45.342
804.80	45.517
805.11	45.793
805.41	45.875
805.71	45.973
806.02	46.126
806.32	45.705
806.62	45.877
806.93	46.174
807.23	46.192
807.53	46.033
807.83	46.607
808.14	47.075
808.44	47.197
808.74	46.877
809.05	46.360
809.35	46.579
809.65	47.011
809.95	46.906
810.26	46.501
810.56	46.713
810.86	46.974
811.16	46.998
811.47	47.167
811.77	47.608
812.07	47.641
812.37	47.974
812.68	47.716
812.98	47.667
813.28	47.891
813.58	48.529
813.88	48.327
814.19	48.828
814.49	49.034
814.79	48.893
815.09	49.127
815.39	49.630
815.70	49.849
816.00	50.085
816.30	50.105
816.60	50.000
816.90	49.918
817.20	50.444
817.50	50.364
817.81	50.207
818.11	50.429
818.41	50.422
818.71	50.514
819.01	50.796
819.31	51.162
819.61	51.456
819.92	51.752
820.22	51.952
820.52	51.993
820.82	52.162
821.12	52.450
821.42	52.682
821.72	52.780
822.02	53.084
822.32	53.369
822.62	53.508
822.92	53.654
823.22	53.895
823.52	54.159
823.83	54.361
824.13	54.440
824.43	54.368
824.73	54.463
825.03	54.593
825.33	54.717
825.63	54.531
825.93	54.535
826.23	54.377
826.53	54.033
826.83	53.893
827.13	53.941
827.43	53.925
827.73	54.254
828.03	54.331
828.33	54.706
828.63	54.514
828.93	54.513
829.23	54.350
829.53	54.380
829.83	54.272
830.13	54.182
830.42	54.000
830.72	53.761
831.02	53.571
831.32	53.118
831.62	53.141
831.92	53.021
832.22	53.285
832.52	53.282
832.82	53.525
833.12	53.714
833.42	53.581
833.72	53.602
834.01	53.959
834.31	54.104
834.61	54.420
834.91	54.455
835.21	54.334
835.51	54.203
835.81	54.024
836.11	54.094
836.40	54.166
836.70	54.553
837.00	54.622
837.30	54.542
837.60	54.777
837.90	55.104
838.19	54.699
838.49	55.044
838.79	55.163
839.09	55.316
839.39	55.178
839.68	55.252
839.98	54.604
840.28	54.842
840.58	55.743
840.88	56.014
841.17	55.126
841.47	55.471
841.77	56.201
842.07	55.649
842.36	55.723
842.66	55.586
842.96	55.352
843.26	55.067
843.55	55.485
843.85	53.412
844.15	51.773
844.45	51.592
844.74	51.449
845.04	50.442
845.34	50.707
845.63	51.059
845.93	51.351
846.23	52.584
846.53	53.475
846.82	52.271
847.12	52.499
847.42	52.832
847.71	53.150
848.01	52.956
848.31	51.972
848.60	51.439
848.90	49.625
849.19	49.307
849.49	48.710
849.79	48.974
850.08	50.111
850.38	49.704
850.68	50.037
850.97	50.482
851.27	50.375
851.56	50.367
851.86	50.037
852.16	52.278
852.45	51.557
852.75	51.797
853.04	52.962
853.34	51.653
853.64	51.524
853.93	49.915
854.23	49.302
854.52	50.463
854.82	52.278
855.11	52.565
855.41	52.121
855.70	53.244
856.00	52.179
856.30	51.524
856.59	51.857
856.89	54.556
857.18	56.890
857.48	57.813
857.77	56.387
858.07	55.043
858.36	54.964
858.66	54.476
858.95	53.873
859.25	53.883
859.54	53.351
859.84	52.328
860.13	49.354
860.42	49.311
860.72	48.332
861.01	49.068
861.31	51.151
861.60	53.110
861.90	53.210
862.19	54.088
862.49	53.155
862.78	51.814
863.07	52.465
863.37	53.757
863.66	52.301
863.96	54.350
864.25	54.209
864.54	53.908
864.84	52.502
865.13	53.961
865.43	54.028
865.72	59.666
866.01	67.403
866.31	49.953
866.60	59.216
866.89	63.104
>>>>>End Spectral Data<<<<<
