OOIBase32 Version 2.0.0.6 Data File
++++++++++++++++++++++++++++++++++++
Date: 01-23-2012, 23:28:08
User: Valued Ocean Optics Customer
Spectrometer Serial Number: USB2E2917
Spectrometer Channel: Master
Integration Time (msec): 5
Spectra Averaged: 10
Boxcar Smoothing: 5
Correct for Electrical Dark: Enabled
Time Normalized: Disabled
Dual-beam Reference: Disabled
Reference Channel: Master
Temperature: Not acquired
Spectrometer Type: S2000
ADC Type: USB2000
Number of Pixels in File: 2048
Graph Title: 
>>>>>Begin Spectral Data<<<<<
180.30	0.000
180.67	0.000
181.03	-93.742
181.40	227.225
181.77	-10677.599
182.14	137.611
182.51	-1070.576
182.88	-24.504
183.25	35.568
183.62	54.213
183.99	217.449
184.36	242.817
184.73	68.082
185.10	139.894
185.46	455.472
185.83	-98.275
186.20	517.110
186.57	217.238
186.94	105.854
187.31	60.100
187.68	147.253
188.05	72.710
188.42	100.918
188.78	203.269
189.15	753.586
189.52	-245.748
189.89	-65.139
190.26	-34.241
190.63	-5.686
191.00	-9.000
191.37	6.786
191.73	29.756
192.10	37.430
192.47	36.568
192.84	26.775
193.21	37.316
193.58	48.568
193.94	63.553
194.31	65.123
194.68	58.232
195.05	50.776
195.42	37.923
195.79	16.606
196.15	12.830
196.52	-12.271
196.89	5.979
197.26	-29.534
197.63	-44.693
198.00	-46.732
198.36	-51.347
198.73	-77.381
199.10	-63.234
199.47	-38.218
199.84	-39.173
200.20	-56.343
200.57	-29.741
200.94	-37.460
201.31	-20.149
201.68	-8.913
202.04	-19.974
202.41	-22.218
202.78	-31.840
203.15	-30.048
203.51	-33.633
203.88	-34.450
204.25	-13.016
204.62	-2.662
204.98	-0.538
205.35	-6.694
205.72	-4.021
206.09	12.738
206.46	-12.351
206.82	-1.777
207.19	1.714
207.56	-26.836
207.92	-31.070
208.29	-63.538
208.66	-57.309
209.03	-46.931
209.39	-24.411
209.76	-22.218
210.13	-74.719
210.50	-41.046
210.86	-27.598
211.23	-45.978
211.60	-24.411
211.96	-18.246
212.33	-1.161
212.70	-11.099
213.07	-20.858
213.43	-61.903
213.80	-70.605
214.17	-32.209
214.53	-27.804
214.90	-25.820
215.27	-17.661
215.63	-15.105
216.00	-16.509
216.37	-14.041
216.74	-23.282
217.10	-14.060
217.47	-14.271
217.84	-10.714
218.20	-12.786
218.57	-12.575
218.94	-16.886
219.30	-28.002
219.67	-39.937
220.04	-38.105
220.40	-42.037
220.77	-39.202
221.13	-39.288
221.50	-31.879
221.87	-28.634
222.23	-30.683
222.60	-31.673
222.97	-21.206
223.33	-10.766
223.70	-5.915
224.07	-6.281
224.43	-3.920
224.80	-1.005
225.16	-2.801
225.53	-4.332
225.90	-5.048
226.26	-4.305
226.63	-3.117
226.99	-4.059
227.36	-4.397
227.73	-2.468
228.09	-2.261
228.46	-1.235
228.82	-0.911
229.19	-0.039
229.56	1.639
229.92	3.265
230.29	3.643
230.65	3.606
231.02	2.459
231.38	0.148
231.75	-2.080
232.12	-1.264
232.48	-3.456
232.85	-4.274
233.21	-4.630
233.58	-8.100
233.94	-10.444
234.31	-12.120
234.68	-10.928
235.04	-10.835
235.41	-8.147
235.77	-7.572
236.14	-7.298
236.50	-5.053
236.87	-4.182
237.23	-3.743
237.60	-2.340
237.96	-0.460
238.33	0.127
238.69	-0.795
239.06	0.313
239.42	1.175
239.79	1.399
240.15	1.388
240.52	1.347
240.88	1.651
241.25	1.800
241.61	2.220
241.98	2.164
242.34	2.998
242.71	3.622
243.07	3.564
243.44	3.191
243.80	3.373
244.17	3.670
244.53	3.362
244.90	3.219
245.26	3.247
245.63	3.185
245.99	2.948
246.36	2.724
246.72	2.764
247.09	2.454
247.45	2.680
247.81	2.725
248.18	2.659
248.54	3.049
248.91	2.993
249.27	3.200
249.64	3.585
250.00	4.117
250.36	3.981
250.73	3.880
251.09	4.151
251.46	3.898
251.82	4.166
252.19	3.975
252.55	3.502
252.91	3.696
253.28	3.529
253.64	3.016
254.01	2.409
254.37	2.737
254.73	2.929
255.10	3.275
255.46	3.663
255.83	3.505
256.19	3.483
256.55	3.401
256.92	3.392
257.28	3.318
257.65	3.289
258.01	3.508
258.37	3.495
258.74	3.437
259.10	3.214
259.46	2.884
259.83	2.657
260.19	2.523
260.55	2.438
260.92	2.307
261.28	2.231
261.64	2.458
262.01	2.400
262.37	2.378
262.73	2.237
263.10	2.283
263.46	2.530
263.82	2.530
264.19	2.476
264.55	2.428
264.91	2.502
265.28	2.435
265.64	2.181
266.00	1.982
266.37	1.928
266.73	1.858
267.09	2.048
267.46	1.976
267.82	1.980
268.18	2.349
268.54	2.706
268.91	2.671
269.27	2.802
269.63	3.175
270.00	3.130
270.36	3.228
270.72	3.517
271.08	3.333
271.45	3.372
271.81	3.416
272.17	3.247
272.53	3.172
272.90	3.081
273.26	3.160
273.62	2.787
273.98	2.822
274.35	2.616
274.71	2.273
275.07	2.549
275.43	2.901
275.80	3.409
276.16	3.663
276.52	3.612
276.88	3.805
277.25	3.565
277.61	3.538
277.97	3.268
278.33	3.451
278.69	3.532
279.06	3.330
279.42	2.861
279.78	2.699
280.14	2.561
280.50	2.526
280.87	2.511
281.23	2.789
281.59	2.880
281.95	3.170
282.31	3.168
282.68	3.122
283.04	3.085
283.40	3.281
283.76	3.276
284.12	3.323
284.48	3.422
284.85	3.574
285.21	3.536
285.57	3.401
285.93	3.448
286.29	3.220
286.65	3.257
287.02	3.542
287.38	3.417
287.74	3.265
288.10	3.395
288.46	3.398
288.82	3.242
289.18	3.172
289.54	3.379
289.91	3.457
290.27	3.706
290.63	3.868
290.99	3.846
291.35	3.989
291.71	4.119
292.07	3.930
292.43	3.806
292.79	3.808
293.16	3.765
293.52	3.725
293.88	3.796
294.24	3.926
294.60	3.816
294.96	3.638
295.32	3.627
295.68	3.679
296.04	3.634
296.40	3.772
296.76	3.820
297.12	3.868
297.49	3.755
297.85	3.557
298.21	3.408
298.57	3.309
298.93	3.303
299.29	3.117
299.65	3.076
300.01	3.222
300.37	3.225
300.73	3.333
301.09	3.297
301.45	3.613
301.81	3.678
302.17	3.730
302.53	3.805
302.89	3.784
303.25	3.934
303.61	3.978
303.97	3.865
304.33	3.718
304.69	3.637
305.05	3.629
305.41	3.338
305.77	3.458
306.13	3.363
306.49	3.409
306.85	3.544
307.21	3.668
307.57	3.720
307.93	3.830
308.29	4.048
308.65	4.131
309.01	4.218
309.37	4.412
309.73	4.312
310.09	4.434
310.45	4.540
310.81	4.490
311.17	4.367
311.53	4.258
311.89	4.177
312.25	4.082
312.61	3.875
312.96	3.811
313.32	3.805
313.68	3.848
314.04	3.851
314.40	3.913
314.76	3.937
315.12	3.988
315.48	4.005
315.84	4.058
316.20	4.047
316.56	4.136
316.92	4.060
317.27	3.941
317.63	3.981
317.99	3.936
318.35	3.798
318.71	3.794
319.07	3.801
319.43	3.849
319.79	3.926
320.15	3.989
320.50	4.088
320.86	4.219
321.22	4.324
321.58	4.301
321.94	4.322
322.30	4.266
322.66	4.217
323.01	4.246
323.37	4.160
323.73	4.142
324.09	4.103
324.45	4.091
324.81	4.023
325.17	4.003
325.52	3.894
325.88	3.837
326.24	3.987
326.60	4.005
326.96	3.950
327.31	4.005
327.67	3.928
328.03	3.903
328.39	3.901
328.75	4.005
329.11	4.104
329.46	4.272
329.82	4.335
330.18	4.188
330.54	4.281
330.90	4.298
331.25	4.291
331.61	4.321
331.97	4.334
332.33	4.338
332.68	4.247
333.04	4.083
333.40	3.941
333.76	3.914
334.11	3.941
334.47	3.966
334.83	3.952
335.19	3.931
335.54	3.978
335.90	3.917
336.26	3.921
336.62	3.948
336.97	3.930
337.33	3.937
337.69	3.883
338.05	3.905
338.40	3.846
338.76	3.913
339.12	3.999
339.48	4.005
339.83	4.058
340.19	4.064
340.55	4.188
340.90	4.209
341.26	4.303
341.62	4.359
341.97	4.390
342.33	4.443
342.69	4.465
343.04	4.534
343.40	4.443
343.76	4.449
344.12	4.446
344.47	4.497
344.83	4.565
345.19	4.539
345.54	4.619
345.90	4.664
346.26	4.733
346.61	4.719
346.97	4.627
347.32	4.739
347.68	4.799
348.04	4.809
348.39	4.676
348.75	4.786
349.11	4.867
349.46	4.825
349.82	4.802
350.18	4.766
350.53	4.789
350.89	4.784
351.24	4.771
351.60	4.791
351.96	4.880
352.31	4.891
352.67	4.890
353.02	4.900
353.38	4.987
353.74	5.023
354.09	5.032
354.45	5.132
354.80	5.248
355.16	5.357
355.52	5.387
355.87	5.358
356.23	5.527
356.58	5.528
356.94	5.555
357.29	5.582
357.65	5.627
358.00	5.651
358.36	5.630
358.72	5.632
359.07	5.639
359.43	5.695
359.78	5.803
360.14	5.750
360.49	5.774
360.85	5.849
361.20	5.836
361.56	5.835
361.91	5.919
362.27	5.999
362.62	6.049
362.98	6.078
363.33	6.051
363.69	6.013
364.04	6.107
364.40	6.188
364.75	6.182
365.11	6.233
365.46	6.265
365.82	6.287
366.17	6.289
366.53	6.342
366.88	6.404
367.24	6.465
367.59	6.509
367.95	6.566
368.30	6.570
368.66	6.598
369.01	6.603
369.37	6.689
369.72	6.789
370.08	6.885
370.43	6.925
370.78	6.919
371.14	6.977
371.49	7.086
371.85	7.097
372.20	7.116
372.56	7.191
372.91	7.267
373.26	7.287
373.62	7.230
373.97	7.267
374.33	7.266
374.68	7.305
375.03	7.352
375.39	7.336
375.74	7.341
376.10	7.374
376.45	7.370
376.80	7.419
377.16	7.476
377.51	7.568
377.87	7.604
378.22	7.651
378.57	7.706
378.93	7.766
379.28	7.852
379.63	7.877
379.99	7.971
380.34	8.059
380.70	8.097
381.05	8.147
381.40	8.116
381.76	8.091
382.11	8.142
382.46	8.231
382.82	8.260
383.17	8.257
383.52	8.318
383.88	8.344
384.23	8.352
384.58	8.374
384.94	8.354
385.29	8.398
385.64	8.455
385.99	8.501
386.35	8.499
386.70	8.537
387.05	8.536
387.41	8.548
387.76	8.566
388.11	8.559
388.47	8.572
388.82	8.629
389.17	8.663
389.52	8.708
389.88	8.736
390.23	8.733
390.58	8.768
390.93	8.841
391.29	8.871
391.64	8.911
391.99	8.992
392.34	9.047
392.70	9.096
393.05	9.148
393.40	9.196
393.75	9.205
394.11	9.285
394.46	9.224
394.81	9.226
395.16	9.253
395.52	9.240
395.87	9.249
396.22	9.279
396.57	9.265
396.92	9.306
397.28	9.285
397.63	9.307
397.98	9.280
398.33	9.350
398.68	9.404
399.04	9.428
399.39	9.439
399.74	9.461
400.09	9.451
400.44	9.465
400.80	9.450
401.15	9.446
401.50	9.470
401.85	9.498
402.20	9.526
402.55	9.547
402.90	9.545
403.26	9.593
403.61	9.602
403.96	9.633
404.31	9.664
404.66	9.694
405.01	9.703
405.36	9.706
405.72	9.697
406.07	9.731
406.42	9.715
406.77	9.745
407.12	9.730
407.47	9.765
407.82	9.759
408.17	9.801
408.53	9.801
408.88	9.849
409.23	9.883
409.58	9.896
409.93	9.905
410.28	9.921
410.63	9.925
410.98	9.937
411.33	9.930
411.68	9.985
412.03	9.990
412.38	9.980
412.73	9.992
413.09	10.016
413.44	10.064
413.79	10.091
414.14	10.113
414.49	10.169
414.84	10.219
415.19	10.216
415.54	10.232
415.89	10.219
416.24	10.261
416.59	10.308
416.94	10.325
417.29	10.340
417.64	10.343
417.99	10.377
418.34	10.390
418.69	10.395
419.04	10.432
419.39	10.453
419.74	10.475
420.09	10.496
420.44	10.504
420.79	10.522
421.14	10.541
421.49	10.573
421.84	10.581
422.19	10.595
422.54	10.623
422.89	10.652
423.24	10.682
423.59	10.732
423.94	10.774
424.29	10.807
424.64	10.841
424.99	10.879
425.34	10.880
425.68	10.909
426.03	10.937
426.38	10.963
426.73	10.959
427.08	10.954
427.43	10.960
427.78	10.942
428.13	10.926
428.48	10.921
428.83	10.922
429.18	10.946
429.53	10.972
429.87	10.974
430.22	10.973
430.57	11.011
430.92	11.009
431.27	11.033
431.62	11.048
431.97	11.075
432.32	11.110
432.67	11.117
433.01	11.143
433.36	11.146
433.71	11.159
434.06	11.195
434.41	11.220
434.76	11.272
435.11	11.277
435.45	11.313
435.80	11.338
436.15	11.348
436.50	11.394
436.85	11.410
437.20	11.418
437.54	11.424
437.89	11.452
438.24	11.469
438.59	11.485
438.94	11.520
439.29	11.534
439.63	11.564
439.98	11.569
440.33	11.587
440.68	11.621
441.03	11.674
441.37	11.738
441.72	11.742
442.07	11.761
442.42	11.791
442.76	11.803
443.11	11.843
443.46	11.879
443.81	11.926
444.16	11.960
444.50	11.987
444.85	12.005
445.20	12.018
445.55	12.063
445.89	12.091
446.24	12.121
446.59	12.153
446.94	12.174
447.28	12.165
447.63	12.199
447.98	12.225
448.32	12.262
448.67	12.293
449.02	12.321
449.37	12.343
449.71	12.410
450.06	12.433
450.41	12.463
450.75	12.472
451.10	12.512
451.45	12.516
451.79	12.529
452.14	12.539
452.49	12.568
452.84	12.614
453.18	12.641
453.53	12.616
453.88	12.646
454.22	12.674
454.57	12.721
454.92	12.768
455.26	12.795
455.61	12.855
455.95	12.890
456.30	12.929
456.65	12.951
456.99	12.988
457.34	13.037
457.69	13.064
458.03	13.095
458.38	13.144
458.73	13.172
459.07	13.210
459.42	13.223
459.76	13.237
460.11	13.253
460.46	13.270
460.80	13.293
461.15	13.324
461.49	13.350
461.84	13.396
462.19	13.415
462.53	13.441
462.88	13.488
463.22	13.527
463.57	13.545
463.91	13.555
464.26	13.607
464.61	13.615
464.95	13.637
465.30	13.651
465.64	13.662
465.99	13.695
466.33	13.730
466.68	13.745
467.02	13.737
467.37	13.772
467.71	13.809
468.06	13.824
468.41	13.850
468.75	13.861
469.10	13.881
469.44	13.874
469.79	13.865
470.13	13.870
470.48	13.876
470.82	13.919
471.17	13.952
471.51	13.971
471.86	13.978
472.20	14.001
472.55	14.012
472.89	14.040
473.23	14.069
473.58	14.084
473.92	14.087
474.27	14.093
474.61	14.094
474.96	14.093
475.30	14.096
475.65	14.096
475.99	14.103
476.34	14.123
476.68	14.130
477.02	14.173
477.37	14.199
477.71	14.251
478.06	14.314
478.40	14.379
478.75	14.499
479.09	14.638
479.43	14.829
479.78	15.101
480.12	15.391
480.47	15.717
480.81	16.019
481.15	16.329
481.50	16.643
481.84	17.013
482.19	17.396
482.53	17.724
482.87	17.951
483.22	18.007
483.56	17.885
483.90	17.641
484.25	17.317
484.59	16.962
484.94	16.661
485.28	16.391
485.62	16.060
485.97	15.715
486.31	15.417
486.65	15.214
487.00	15.155
487.34	15.216
487.68	15.361
488.03	15.544
488.37	15.749
488.71	15.880
489.06	15.933
489.40	15.969
489.74	15.995
490.09	16.010
490.43	16.041
490.77	16.056
491.11	16.066
491.46	16.073
491.80	16.084
492.14	16.079
492.49	16.083
492.83	16.087
493.17	16.103
493.51	16.122
493.86	16.157
494.20	16.169
494.54	16.193
494.88	16.240
495.23	16.299
495.57	16.338
495.91	16.405
496.25	16.485
496.60	16.560
496.94	16.630
497.28	16.695
497.62	16.756
497.97	16.835
498.31	16.935
498.65	17.006
498.99	17.042
499.33	17.122
499.68	17.213
500.02	17.293
500.36	17.360
500.70	17.429
501.04	17.495
501.39	17.570
501.73	17.635
502.07	17.680
502.41	17.745
502.75	17.855
503.09	17.935
503.44	17.986
503.78	18.028
504.12	18.079
504.46	18.151
504.80	18.247
505.14	18.324
505.49	18.403
505.83	18.494
506.17	18.572
506.51	18.666
506.85	18.756
507.19	18.849
507.53	18.921
507.87	19.027
508.22	19.101
508.56	19.179
508.90	19.248
509.24	19.334
509.58	19.418
509.92	19.514
510.26	19.600
510.60	19.674
510.94	19.773
511.28	19.866
511.63	19.954
511.97	20.052
512.31	20.133
512.65	20.232
512.99	20.318
513.33	20.450
513.67	20.549
514.01	20.675
514.35	20.803
514.69	20.896
515.03	21.005
515.37	21.133
515.71	21.235
516.05	21.329
516.39	21.435
516.73	21.514
517.07	21.573
517.41	21.648
517.75	21.703
518.09	21.762
518.43	21.829
518.77	21.871
519.11	21.908
519.45	21.965
519.79	22.052
520.13	22.105
520.47	22.199
520.81	22.278
521.15	22.369
521.49	22.452
521.83	22.554
522.17	22.657
522.51	22.800
522.85	22.930
523.19	23.066
523.53	23.253
523.87	23.470
524.21	23.710
524.55	23.974
524.89	24.186
525.23	24.402
525.57	24.593
525.91	24.768
526.25	24.949
526.58	25.112
526.92	25.244
527.26	25.305
527.60	25.339
527.94	25.363
528.28	25.346
528.62	25.352
528.96	25.321
529.30	25.293
529.64	25.267
529.97	25.226
530.31	25.170
530.65	25.160
530.99	25.178
531.33	25.216
531.67	25.227
532.01	25.267
532.35	25.274
532.68	25.311
533.02	25.325
533.36	25.361
533.70	25.368
534.04	25.396
534.38	25.419
534.71	25.451
535.05	25.481
535.39	25.519
535.73	25.525
536.07	25.579
536.41	25.631
536.74	25.699
537.08	25.753
537.42	25.868
537.76	25.943
538.10	26.047
538.43	26.154
538.77	26.277
539.11	26.393
539.45	26.502
539.79	26.608
540.12	26.678
540.46	26.737
540.80	26.778
541.14	26.780
541.47	26.797
541.81	26.798
542.15	26.799
542.49	26.777
542.82	26.757
543.16	26.731
543.50	26.685
543.84	26.682
544.17	26.685
544.51	26.735
544.85	26.764
545.18	26.823
545.52	26.843
545.86	26.860
546.20	26.902
546.53	26.936
546.87	26.989
547.21	27.044
547.54	27.086
547.88	27.150
548.22	27.152
548.55	27.193
548.89	27.235
549.23	27.290
549.56	27.344
549.90	27.374
550.24	27.422
550.57	27.460
550.91	27.493
551.25	27.548
551.58	27.585
551.92	27.634
552.26	27.677
552.59	27.729
552.93	27.773
553.27	27.837
553.60	27.911
553.94	27.953
554.27	28.007
554.61	28.101
554.95	28.156
555.28	28.211
555.62	28.260
555.95	28.331
556.29	28.394
556.63	28.443
556.96	28.462
557.30	28.491
557.63	28.502
557.97	28.540
558.31	28.548
558.64	28.581
558.98	28.603
559.31	28.640
559.65	28.685
559.98	28.682
560.32	28.732
560.65	28.805
560.99	28.828
561.33	28.897
561.66	28.938
562.00	28.970
562.33	28.975
562.67	29.029
563.00	29.069
563.34	29.084
563.67	29.123
564.01	29.154
564.34	29.144
564.68	29.170
565.01	29.186
565.35	29.224
565.68	29.263
566.02	29.286
566.35	29.325
566.69	29.341
567.02	29.394
567.36	29.425
567.69	29.417
568.03	29.469
568.36	29.505
568.69	29.539
569.03	29.571
569.36	29.588
569.70	29.613
570.03	29.608
570.37	29.634
570.70	29.644
571.04	29.688
571.37	29.729
571.70	29.740
572.04	29.746
572.37	29.753
572.71	29.729
573.04	29.764
573.37	29.812
573.71	29.855
574.04	29.892
574.38	29.913
574.71	29.923
575.04	29.951
575.38	30.005
575.71	30.073
576.05	30.127
576.38	30.206
576.71	30.238
577.05	30.276
577.38	30.309
577.71	30.338
578.05	30.389
578.38	30.405
578.71	30.430
579.05	30.404
579.38	30.405
579.71	30.421
580.05	30.398
580.38	30.414
580.71	30.415
581.05	30.457
581.38	30.484
581.71	30.478
582.05	30.514
582.38	30.561
582.71	30.589
583.04	30.639
583.38	30.670
583.71	30.701
584.04	30.724
584.38	30.749
584.71	30.746
585.04	30.776
585.37	30.799
585.71	30.798
586.04	30.796
586.37	30.847
586.70	30.868
587.04	30.852
587.37	30.896
587.70	30.911
588.03	30.959
588.37	30.995
588.70	31.015
589.03	31.059
589.36	31.081
589.69	31.095
590.03	31.106
590.36	31.111
590.69	31.136
591.02	31.165
591.35	31.186
591.69	31.183
592.02	31.173
592.35	31.164
592.68	31.170
593.01	31.173
593.35	31.202
593.68	31.206
594.01	31.203
594.34	31.211
594.67	31.186
595.00	31.163
595.34	31.160
595.67	31.190
596.00	31.213
596.33	31.210
596.66	31.285
596.99	31.288
597.32	31.317
597.65	31.354
597.99	31.393
598.32	31.427
598.65	31.479
598.98	31.513
599.31	31.512
599.64	31.525
599.97	31.508
600.30	31.483
600.63	31.503
600.96	31.514
601.30	31.526
601.63	31.554
601.96	31.602
602.29	31.631
602.62	31.649
602.95	31.696
603.28	31.747
603.61	31.815
603.94	31.841
604.27	31.875
604.60	31.900
604.93	31.935
605.26	31.932
605.59	31.953
605.92	31.977
606.25	31.987
606.58	32.058
606.91	32.052
607.24	32.073
607.57	32.089
607.90	32.127
608.23	32.158
608.56	32.163
608.89	32.257
609.22	32.292
609.55	32.317
609.88	32.361
610.21	32.360
610.54	32.433
610.87	32.478
611.20	32.554
611.53	32.598
611.86	32.668
612.19	32.754
612.52	32.745
612.85	32.810
613.18	32.852
613.51	32.884
613.84	32.875
614.17	32.897
614.49	32.934
614.82	32.881
615.15	32.928
615.48	32.926
615.81	32.931
616.14	32.934
616.47	32.930
616.80	32.961
617.13	33.026
617.46	33.034
617.78	33.056
618.11	33.040
618.44	33.125
618.77	33.127
619.10	33.162
619.43	33.201
619.76	33.233
620.09	33.258
620.41	33.284
620.74	33.309
621.07	33.400
621.40	33.424
621.73	33.510
622.06	33.563
622.38	33.574
622.71	33.605
623.04	33.654
623.37	33.720
623.70	33.772
624.02	33.784
624.35	33.827
624.68	33.853
625.01	33.893
625.34	33.930
625.66	33.970
625.99	34.062
626.32	34.113
626.65	34.148
626.98	34.186
627.30	34.210
627.63	34.299
627.96	34.328
628.29	34.357
628.61	34.433
628.94	34.471
629.27	34.523
629.60	34.521
629.92	34.529
630.25	34.576
630.58	34.611
630.91	34.665
631.23	34.659
631.56	34.708
631.89	34.734
632.21	34.729
632.54	34.708
632.87	34.700
633.19	34.714
633.52	34.805
633.85	34.830
634.18	34.866
634.50	34.879
634.83	34.898
635.16	34.868
635.48	34.862
635.81	34.859
636.14	34.864
636.46	34.865
636.79	34.866
637.11	34.772
637.44	34.716
637.77	34.687
638.09	34.620
638.42	34.548
638.75	34.560
639.07	34.567
639.40	34.539
639.73	34.553
640.05	34.484
640.38	34.496
640.70	34.484
641.03	34.430
641.36	34.375
641.68	34.319
642.01	34.314
642.33	34.279
642.66	34.215
642.98	34.190
643.31	34.139
643.64	34.104
643.96	33.971
644.29	33.909
644.61	33.884
644.94	33.815
645.26	33.853
645.59	33.866
645.91	33.806
646.24	33.807
646.56	33.723
646.89	33.714
647.22	33.727
647.54	33.762
647.87	33.783
648.19	33.769
648.52	33.764
648.84	33.744
649.17	33.715
649.49	33.757
649.82	33.746
650.14	33.788
650.47	33.761
650.79	33.762
651.11	33.757
651.44	33.752
651.76	33.745
652.09	33.815
652.41	33.850
652.74	33.875
653.06	33.915
653.39	33.897
653.71	33.929
654.04	33.956
654.36	33.950
654.68	33.982
655.01	34.006
655.33	34.048
655.66	34.005
655.98	33.963
656.30	33.924
656.63	33.842
656.95	33.870
657.28	33.821
657.60	33.749
657.92	33.749
658.25	33.729
658.57	33.735
658.90	33.719
659.22	33.720
659.54	33.716
659.87	33.740
660.19	33.675
660.51	33.645
660.84	33.598
661.16	33.603
661.48	33.541
661.81	33.475
662.13	33.400
662.45	33.365
662.78	33.372
663.10	33.323
663.42	33.283
663.75	33.314
664.07	33.280
664.39	33.322
664.72	33.340
665.04	33.333
665.36	33.310
665.69	33.334
666.01	33.400
666.33	33.352
666.65	33.334
666.98	33.319
667.30	33.364
667.62	33.393
667.94	33.439
668.27	33.430
668.59	33.544
668.91	33.609
669.23	33.625
669.56	33.610
669.88	33.756
670.20	33.845
670.52	33.972
670.85	34.051
671.17	34.096
671.49	34.168
671.81	34.299
672.13	34.367
672.46	34.490
672.78	34.630
673.10	34.733
673.42	34.829
673.74	34.977
674.07	35.041
674.39	35.182
674.71	35.355
675.03	35.452
675.35	35.584
675.67	35.703
676.00	35.841
676.32	35.951
676.64	36.091
676.96	36.136
677.28	36.290
677.60	36.450
677.92	36.607
678.25	36.664
678.57	36.837
678.89	37.020
679.21	37.177
679.53	37.397
679.85	37.656
680.17	37.886
680.49	38.133
680.81	38.370
681.13	38.645
681.46	38.902
681.78	39.335
682.10	39.693
682.42	40.012
682.74	40.360
683.06	40.667
683.38	41.047
683.70	41.418
684.02	41.779
684.34	42.101
684.66	42.472
684.98	42.827
685.30	43.121
685.62	43.482
685.94	43.806
686.26	44.107
686.58	44.441
686.90	44.653
687.22	44.982
687.54	45.283
687.86	45.559
688.18	45.843
688.50	46.161
688.82	46.467
689.14	46.721
689.46	47.072
689.78	47.358
690.10	47.685
690.42	47.991
690.74	48.201
691.06	48.455
691.38	48.681
691.70	48.858
692.02	48.970
692.34	49.153
692.66	49.336
692.98	49.480
693.30	49.690
693.62	49.811
693.94	49.859
694.26	49.975
694.57	50.127
694.89	50.269
695.21	50.349
695.53	50.547
695.85	50.529
696.17	50.537
696.49	50.600
696.81	50.703
697.13	50.748
697.44	50.907
697.76	51.001
698.08	51.224
698.40	51.415
698.72	51.571
699.04	51.706
699.36	52.064
699.67	52.350
699.99	52.603
700.31	52.850
700.63	53.118
700.95	53.478
701.27	53.741
701.58	53.875
701.90	54.035
702.22	54.317
702.54	54.558
702.86	54.636
703.17	54.790
703.49	54.968
703.81	55.149
704.13	55.308
704.45	55.480
704.76	55.680
705.08	55.919
705.40	56.085
705.72	56.237
706.03	56.386
706.35	56.636
706.67	56.707
706.99	56.809
707.30	56.963
707.62	57.202
707.94	57.305
708.26	57.476
708.57	57.518
708.89	57.646
709.21	57.807
709.53	58.006
709.84	58.141
710.16	58.395
710.48	58.599
710.79	58.707
711.11	58.845
711.43	58.844
711.74	58.894
712.06	59.099
712.38	59.343
712.69	59.465
713.01	59.598
713.33	59.706
713.64	60.002
713.96	60.148
714.28	60.368
714.59	60.537
714.91	60.852
715.23	61.236
715.54	61.298
715.86	61.432
716.17	61.681
716.49	61.929
716.81	62.180
717.12	62.190
717.44	62.418
717.76	62.575
718.07	62.723
718.39	62.791
718.70	62.767
719.02	63.031
719.33	63.244
719.65	63.311
719.97	63.310
720.28	63.517
720.60	63.760
720.91	63.986
721.23	64.116
721.54	64.349
721.86	64.590
722.17	64.840
722.49	65.026
722.81	65.072
723.12	65.125
723.44	65.262
723.75	65.382
724.07	65.434
724.38	65.460
724.70	65.569
725.01	65.444
725.33	65.325
725.64	65.505
725.96	65.564
726.27	65.461
726.59	65.640
726.90	65.561
727.22	65.398
727.53	65.351
727.84	65.344
728.16	65.359
728.47	65.535
728.79	65.788
729.10	65.636
729.42	65.558
729.73	65.803
730.05	65.716
730.36	65.767
730.67	66.007
730.99	66.248
731.30	66.407
731.62	66.535
731.93	66.508
732.24	66.432
732.56	66.515
732.87	66.671
733.19	66.697
733.50	67.011
733.81	67.177
734.13	67.140
734.44	67.187
734.76	67.146
735.07	67.168
735.38	67.342
735.70	67.576
736.01	67.695
736.32	67.760
736.64	68.075
736.95	67.915
737.26	67.943
737.58	68.075
737.89	68.151
738.20	68.177
738.52	68.182
738.83	68.175
739.14	68.020
739.45	68.077
739.77	68.203
740.08	67.986
740.39	68.234
740.71	68.492
741.02	68.433
741.33	68.290
741.64	68.512
741.96	68.701
742.27	68.664
742.58	69.041
742.90	69.008
743.21	69.031
743.52	69.148
743.83	68.997
744.14	68.998
744.46	69.171
744.77	69.492
745.08	69.242
745.39	69.318
745.71	69.455
746.02	69.254
746.33	69.355
746.64	69.284
746.95	69.216
747.27	69.529
747.58	69.509
747.89	69.582
748.20	69.510
748.51	69.864
748.82	69.869
749.14	69.818
749.45	70.004
749.76	70.240
750.07	70.404
750.38	70.563
750.69	70.579
751.01	70.709
751.32	70.628
751.63	70.773
751.94	70.398
752.25	70.360
752.56	70.463
752.87	70.563
753.18	70.391
753.49	70.513
753.81	70.638
754.12	70.652
754.43	70.558
754.74	70.782
755.05	70.706
755.36	71.122
755.67	71.223
755.98	71.552
756.29	71.464
756.60	71.621
756.91	71.554
757.22	71.519
757.53	71.604
757.84	71.800
758.15	71.886
758.46	71.891
758.77	71.796
759.09	71.774
759.40	71.823
759.71	71.982
760.02	72.060
760.33	72.126
760.64	72.100
760.95	72.207
761.26	72.109
761.57	72.183
761.88	72.228
762.18	72.360
762.49	72.422
762.80	72.446
763.11	72.571
763.42	72.525
763.73	72.525
764.04	72.580
764.35	72.550
764.66	72.681
764.97	72.476
765.28	72.502
765.59	72.263
765.90	72.173
766.21	71.878
766.52	71.772
766.83	71.759
767.14	71.704
767.44	71.693
767.75	71.622
768.06	71.737
768.37	71.604
768.68	71.538
768.99	71.681
769.30	71.678
769.61	71.818
769.91	71.688
770.22	71.421
770.53	71.349
770.84	71.338
771.15	71.446
771.46	71.107
771.77	71.602
772.07	71.507
772.38	71.455
772.69	71.710
773.00	71.619
773.31	71.644
773.61	71.802
773.92	71.980
774.23	71.995
774.54	71.875
774.85	71.725
775.15	71.198
775.46	71.322
775.77	71.560
776.08	71.472
776.39	71.331
776.69	71.105
777.00	71.338
777.31	71.357
777.62	71.372
777.92	71.330
778.23	71.836
778.54	72.127
778.85	72.168
779.15	72.090
779.46	72.044
779.77	72.261
780.07	72.600
780.38	72.764
780.69	72.616
781.00	72.618
781.30	72.536
781.61	72.212
781.92	72.328
782.22	72.649
782.53	72.819
782.84	72.983
783.14	73.222
783.45	72.891
783.76	72.927
784.06	73.054
784.37	73.133
784.68	73.412
784.98	73.521
785.29	73.536
785.60	73.312
785.90	73.289
786.21	73.217
786.51	72.986
786.82	73.605
787.13	73.677
787.43	74.016
787.74	74.026
788.04	73.854
788.35	73.975
788.66	74.146
788.96	74.332
789.27	74.592
789.57	74.548
789.88	74.840
790.19	74.573
790.49	74.258
790.80	73.828
791.10	73.829
791.41	73.933
791.71	74.096
792.02	73.865
792.32	73.753
792.63	73.446
792.93	73.482
793.24	73.740
793.54	73.905
793.85	73.945
794.15	74.286
794.46	74.462
794.76	74.701
795.07	74.419
795.37	74.350
795.68	74.212
795.98	74.788
796.29	75.493
796.59	75.608
796.90	75.416
797.20	75.543
797.51	75.339
797.81	75.351
798.12	75.116
798.42	75.239
798.72	75.300
799.03	75.666
799.33	75.697
799.64	75.261
799.94	75.151
800.25	75.013
800.55	74.953
800.85	75.412
801.16	75.778
801.46	75.695
801.77	75.768
802.07	76.242
802.37	76.172
802.68	75.426
802.98	75.487
803.28	75.101
803.59	75.274
803.89	75.811
804.20	75.962
804.50	75.594
804.80	75.959
805.11	76.308
805.41	75.887
805.71	76.076
806.02	76.220
806.32	76.232
806.62	76.427
806.93	76.698
807.23	76.386
807.53	76.055
807.83	76.448
808.14	76.558
808.44	76.362
808.74	76.985
809.05	76.780
809.35	76.626
809.65	77.293
809.95	77.962
810.26	77.865
810.56	78.394
810.86	78.864
811.16	79.230
811.47	79.682
811.77	80.274
812.07	79.881
812.37	80.180
812.68	81.540
812.98	81.330
813.28	81.172
813.58	81.567
813.88	81.176
814.19	81.434
814.49	81.307
814.79	80.827
815.09	80.673
815.39	80.856
815.70	81.099
816.00	80.480
816.30	80.635
816.60	80.232
816.90	79.948
817.20	80.208
817.50	79.575
817.81	79.251
818.11	79.262
818.41	79.156
818.71	78.977
819.01	78.990
819.31	79.213
819.61	79.278
819.92	79.474
820.22	79.932
820.52	80.127
820.82	80.523
821.12	80.966
821.42	81.350
821.72	81.553
822.02	82.022
822.32	82.501
822.62	82.890
822.92	83.239
823.22	83.722
823.52	83.906
823.83	84.101
824.13	84.230
824.43	84.089
824.73	84.060
825.03	84.129
825.33	84.053
825.63	83.862
825.93	83.719
826.23	83.673
826.53	83.292
826.83	83.187
827.13	83.347
827.43	83.570
827.73	84.024
828.03	84.375
828.33	84.866
828.63	85.015
828.93	84.811
829.23	84.614
829.53	84.271
829.83	84.218
830.13	83.825
830.42	83.331
830.72	82.356
831.02	81.871
831.32	81.392
831.62	81.243
831.92	81.128
832.22	81.282
832.52	81.425
832.82	81.805
833.12	82.104
833.42	82.337
833.72	82.515
834.01	82.880
834.31	83.267
834.61	83.655
834.91	84.178
835.21	84.662
835.51	84.935
835.81	84.738
836.11	84.542
836.40	84.587
836.70	84.817
837.00	84.787
837.30	84.611
837.60	84.506
837.90	84.105
838.19	83.682
838.49	82.989
838.79	82.934
839.09	83.308
839.39	83.263
839.68	83.357
839.98	82.368
840.28	82.063
840.58	83.172
840.88	83.483
841.17	83.151
841.47	82.515
841.77	83.286
842.07	83.116
842.36	82.899
842.66	83.484
842.96	82.524
843.26	82.598
843.55	82.461
843.85	79.928
844.15	78.983
844.45	78.726
844.74	79.574
845.04	78.694
845.34	79.278
845.63	79.340
845.93	78.244
846.23	79.160
846.53	79.447
846.82	80.080
847.12	81.656
847.42	80.679
847.71	80.432
848.01	79.631
848.31	78.086
848.60	77.637
848.90	77.329
849.19	78.257
849.49	77.172
849.79	78.050
850.08	79.356
850.38	78.841
850.68	80.360
850.97	83.861
851.27	84.169
851.56	85.364
851.86	84.750
852.16	86.064
852.45	85.265
852.75	85.649
853.04	87.414
853.34	86.168
853.64	86.500
853.93	84.612
854.23	82.983
854.52	83.037
854.82	85.126
855.11	86.128
855.41	87.012
855.70	88.740
856.00	89.038
856.30	87.108
856.59	87.139
856.89	88.734
857.18	90.153
857.48	87.915
857.77	86.553
858.07	85.086
858.36	83.559
858.66	82.694
858.95	80.376
859.25	80.205
859.54	80.094
859.84	79.637
860.13	77.557
860.42	76.771
860.72	77.153
861.01	78.306
861.31	77.870
861.60	78.883
861.90	79.370
862.19	82.333
862.49	82.161
862.78	82.822
863.07	83.698
863.37	83.768
863.66	83.124
863.96	85.061
864.25	84.930
864.54	84.417
864.84	85.352
865.13	83.972
865.43	81.848
865.72	84.530
866.01	73.941
866.31	95.212
866.60	76.892
866.89	80.480
>>>>>End Spectral Data<<<<<
