OOIBase32 Version 2.0.0.6 Data File
++++++++++++++++++++++++++++++++++++
Date: 01-23-2012, 23:23:48
User: Valued Ocean Optics Customer
Spectrometer Serial Number: USB2E2917
Spectrometer Channel: Master
Integration Time (msec): 5
Spectra Averaged: 10
Boxcar Smoothing: 5
Correct for Electrical Dark: Enabled
Time Normalized: Disabled
Dual-beam Reference: Disabled
Reference Channel: Master
Temperature: Not acquired
Spectrometer Type: S2000
ADC Type: USB2000
Number of Pixels in File: 2048
Graph Title: 
>>>>>Begin Spectral Data<<<<<
180.30	0.000
180.67	0.000
181.03	-40.396
181.40	76.478
181.77	-6882.339
182.14	57.357
182.51	-1112.012
182.88	-155.005
183.25	43.195
183.62	111.594
183.99	78.938
184.36	149.625
184.73	47.895
185.10	87.987
185.46	203.549
185.83	-176.697
186.20	540.729
186.57	-43.050
186.94	45.488
187.31	55.184
187.68	73.263
188.05	120.962
188.42	186.615
188.78	279.892
189.15	766.665
189.52	-174.359
189.89	-50.700
190.26	-36.987
190.63	4.121
191.00	15.391
191.37	18.378
191.73	30.355
192.10	26.637
192.47	27.424
192.84	20.990
193.21	18.588
193.58	13.051
193.94	4.558
194.31	8.929
194.68	-9.668
195.05	-23.012
195.42	-14.830
195.79	-30.825
196.15	-38.292
196.52	-49.872
196.89	-42.823
197.26	-59.736
197.63	-33.523
198.00	-12.212
198.36	-18.475
198.73	-7.333
199.10	6.664
199.47	-1.376
199.84	-8.130
200.20	-10.153
200.57	-14.536
200.94	-24.456
201.31	-9.289
201.68	-18.259
202.04	-20.666
202.41	-12.780
202.78	-13.410
203.15	-10.568
203.51	-8.661
203.88	-10.356
204.25	-3.248
204.62	5.118
204.98	5.175
205.35	9.022
205.72	20.370
206.09	24.918
206.46	12.605
206.82	-0.434
207.19	-19.604
207.56	-60.617
207.92	-46.793
208.29	-64.864
208.66	-30.974
209.03	-18.549
209.39	-4.765
209.76	-1.225
210.13	-35.437
210.50	-31.064
210.86	-25.472
211.23	-29.970
211.60	-0.324
211.96	-2.097
212.33	-7.340
212.70	-22.617
213.07	-38.520
213.43	-89.121
213.80	-98.732
214.17	-48.109
214.53	-32.012
214.90	-26.347
215.27	-13.907
215.63	-15.063
216.00	-9.724
216.37	-6.525
216.74	-12.009
217.10	-6.038
217.47	4.181
217.84	13.450
218.20	7.649
218.57	7.711
218.94	9.793
219.30	1.877
219.67	-6.072
220.04	-8.182
220.40	-7.611
220.77	-7.566
221.13	-8.906
221.50	-11.502
221.87	-16.703
222.23	-19.777
222.60	-30.111
222.97	-28.201
223.33	-26.508
223.70	-23.325
224.07	-24.281
224.43	-22.844
224.80	-18.029
225.16	-15.492
225.53	-13.696
225.90	-15.539
226.26	-13.941
226.63	-8.438
226.99	-7.105
227.36	-5.992
227.73	-3.212
228.09	-2.832
228.46	0.051
228.82	0.611
229.19	1.674
229.56	0.138
229.92	2.343
230.29	3.392
230.65	1.659
231.02	-1.050
231.38	-2.771
231.75	-4.822
232.12	-5.809
232.48	-10.171
232.85	-10.341
233.21	-11.453
233.58	-10.001
233.94	-9.358
234.31	-9.832
234.68	-9.283
235.04	-9.310
235.41	-6.879
235.77	-5.422
236.14	-4.387
236.50	-2.273
236.87	-1.962
237.23	-0.279
237.60	-0.258
237.96	-0.291
238.33	-0.214
238.69	-0.380
239.06	0.151
239.42	0.140
239.79	-0.702
240.15	-0.252
240.52	0.151
240.88	0.081
241.25	-0.390
241.61	-0.120
241.98	-0.193
242.34	0.040
242.71	0.544
243.07	1.198
243.44	1.261
243.80	1.507
244.17	1.666
244.53	1.372
244.90	1.363
245.26	1.462
245.63	1.554
245.99	1.501
246.36	1.281
246.72	1.307
247.09	0.805
247.45	0.720
247.81	0.782
248.18	0.464
248.54	0.736
248.91	0.851
249.27	0.874
249.64	1.218
250.00	1.474
250.36	1.911
250.73	1.766
251.09	2.026
251.46	2.147
251.82	1.872
252.19	1.984
252.55	1.519
252.91	1.676
253.28	1.748
253.64	0.991
254.01	0.635
254.37	0.776
254.73	1.071
255.10	1.361
255.46	1.820
255.83	2.146
256.19	2.135
256.55	2.205
256.92	2.162
257.28	2.011
257.65	2.104
258.01	2.258
258.37	2.094
258.74	1.921
259.10	1.710
259.46	1.410
259.83	1.416
260.19	1.489
260.55	1.708
260.92	1.618
261.28	1.663
261.64	1.647
262.01	1.658
262.37	1.783
262.73	2.144
263.10	2.430
263.46	2.484
263.82	2.192
264.19	1.984
264.55	1.455
264.91	1.457
265.28	1.321
265.64	1.503
266.00	1.432
266.37	1.431
266.73	1.144
267.09	1.098
267.46	1.163
267.82	1.216
268.18	1.206
268.54	1.365
268.91	1.277
269.27	1.201
269.63	1.282
270.00	1.331
270.36	1.465
270.72	1.763
271.08	1.676
271.45	1.673
271.81	1.575
272.17	1.622
272.53	1.579
272.90	1.768
273.26	2.090
273.62	2.011
273.98	1.806
274.35	1.609
274.71	1.319
275.07	1.408
275.43	1.417
275.80	1.354
276.16	1.223
276.52	1.240
276.88	1.146
277.25	0.961
277.61	0.637
277.97	0.712
278.33	0.933
278.69	0.922
279.06	0.824
279.42	1.040
279.78	1.314
280.14	1.589
280.50	1.622
280.87	1.781
281.23	1.839
281.59	2.077
281.95	2.122
282.31	2.167
282.68	2.002
283.04	2.089
283.40	1.980
283.76	2.068
284.12	2.123
284.48	2.190
284.85	2.116
285.21	2.178
285.57	2.231
285.93	2.268
286.29	1.916
286.65	2.049
287.02	2.235
287.38	2.190
287.74	2.034
288.10	1.861
288.46	1.737
288.82	1.554
289.18	1.500
289.54	1.417
289.91	1.398
290.27	1.671
290.63	1.746
290.99	1.648
291.35	1.723
291.71	1.888
292.07	1.908
292.43	2.036
292.79	2.279
293.16	2.256
293.52	2.474
293.88	2.547
294.24	2.557
294.60	2.497
294.96	2.359
295.32	2.306
295.68	2.408
296.04	2.507
296.40	2.536
296.76	2.568
297.12	2.539
297.49	2.355
297.85	2.401
298.21	2.312
298.57	2.286
298.93	2.416
299.29	2.361
299.65	2.251
300.01	2.263
300.37	2.295
300.73	2.286
301.09	2.430
301.45	2.490
301.81	2.552
302.17	2.635
302.53	2.508
302.89	2.478
303.25	2.568
303.61	2.505
303.97	2.394
304.33	2.299
304.69	2.463
305.05	2.338
305.41	2.317
305.77	2.383
306.13	2.391
306.49	2.488
306.85	2.607
307.21	2.647
307.57	2.735
307.93	2.836
308.29	3.043
308.65	2.960
309.01	3.063
309.37	3.088
309.73	2.950
310.09	3.069
310.45	3.195
310.81	3.201
311.17	3.166
311.53	3.052
311.89	3.065
312.25	2.910
312.61	2.838
312.96	2.786
313.32	2.857
313.68	2.812
314.04	2.658
314.40	2.744
314.76	2.542
315.12	2.538
315.48	2.624
315.84	2.552
316.20	2.545
316.56	2.437
316.92	2.338
317.27	2.248
317.63	2.362
317.99	2.384
318.35	2.268
318.71	2.434
319.07	2.581
319.43	2.690
319.79	2.895
320.15	2.944
320.50	3.054
320.86	3.171
321.22	3.100
321.58	3.026
321.94	2.961
322.30	2.933
322.66	2.841
323.01	2.670
323.37	2.533
323.73	2.336
324.09	2.213
324.45	2.256
324.81	2.117
325.17	2.271
325.52	2.324
325.88	2.256
326.24	2.279
326.60	2.328
326.96	2.390
327.31	2.363
327.67	2.317
328.03	2.425
328.39	2.322
328.75	2.489
329.11	2.361
329.46	2.306
329.82	2.553
330.18	2.567
330.54	2.553
330.90	2.616
331.25	2.678
331.61	2.848
331.97	2.843
332.33	2.892
332.68	2.889
333.04	2.981
333.40	2.847
333.76	2.664
334.11	2.645
334.47	2.675
334.83	2.589
335.19	2.492
335.54	2.412
335.90	2.403
336.26	2.459
336.62	2.382
336.97	2.214
337.33	2.289
337.69	2.281
338.05	2.191
338.40	2.099
338.76	2.122
339.12	2.195
339.48	2.205
339.83	2.140
340.19	2.066
340.55	2.149
340.90	2.227
341.26	2.244
341.62	2.306
341.97	2.374
342.33	2.397
342.69	2.484
343.04	2.470
343.40	2.389
343.76	2.367
344.12	2.393
344.47	2.433
344.83	2.516
345.19	2.568
345.54	2.564
345.90	2.561
346.26	2.650
346.61	2.605
346.97	2.639
347.32	2.708
347.68	2.757
348.04	2.746
348.39	2.577
348.75	2.570
349.11	2.524
349.46	2.508
349.82	2.574
350.18	2.516
350.53	2.511
350.89	2.439
351.24	2.423
351.60	2.424
351.96	2.481
352.31	2.548
352.67	2.527
353.02	2.538
353.38	2.610
353.74	2.586
354.09	2.580
354.45	2.599
354.80	2.707
355.16	2.727
355.52	2.741
355.87	2.647
356.23	2.671
356.58	2.694
356.94	2.748
357.29	2.734
357.65	2.716
358.00	2.738
358.36	2.712
358.72	2.638
359.07	2.678
359.43	2.681
359.78	2.756
360.14	2.778
360.49	2.747
360.85	2.729
361.20	2.710
361.56	2.698
361.91	2.702
362.27	2.701
362.62	2.719
362.98	2.687
363.33	2.687
363.69	2.685
364.04	2.704
364.40	2.721
364.75	2.746
365.11	2.782
365.46	2.812
365.82	2.865
366.17	2.869
366.53	2.898
366.88	2.895
367.24	2.919
367.59	2.882
367.95	2.873
368.30	2.884
368.66	2.847
369.01	2.816
369.37	2.830
369.72	2.819
370.08	2.847
370.43	2.829
370.78	2.847
371.14	2.828
371.49	2.883
371.85	2.885
372.20	2.869
372.56	2.908
372.91	2.959
373.26	2.959
373.62	2.911
373.97	2.949
374.33	2.937
374.68	2.951
375.03	2.973
375.39	2.967
375.74	2.954
376.10	2.983
376.45	2.967
376.80	2.972
377.16	2.928
377.51	2.985
377.87	2.991
378.22	2.989
378.57	2.966
378.93	3.022
379.28	3.046
379.63	3.058
379.99	3.053
380.34	3.102
380.70	3.117
381.05	3.165
381.40	3.153
381.76	3.212
382.11	3.253
382.46	3.325
382.82	3.330
383.17	3.307
383.52	3.301
383.88	3.307
384.23	3.305
384.58	3.290
384.94	3.281
385.29	3.329
385.64	3.271
385.99	3.305
386.35	3.291
386.70	3.278
387.05	3.259
387.41	3.289
387.76	3.276
388.11	3.288
388.47	3.281
388.82	3.342
389.17	3.303
389.52	3.331
389.88	3.374
390.23	3.344
390.58	3.374
390.93	3.445
391.29	3.460
391.64	3.517
391.99	3.534
392.34	3.566
392.70	3.528
393.05	3.531
393.40	3.518
393.75	3.468
394.11	3.505
394.46	3.432
394.81	3.396
395.16	3.365
395.52	3.344
395.87	3.310
396.22	3.319
396.57	3.301
396.92	3.291
397.28	3.263
397.63	3.224
397.98	3.198
398.33	3.229
398.68	3.216
399.04	3.231
399.39	3.195
399.74	3.193
400.09	3.164
400.44	3.197
400.80	3.206
401.15	3.212
401.50	3.233
401.85	3.256
402.20	3.235
402.55	3.272
402.90	3.246
403.26	3.264
403.61	3.269
403.96	3.272
404.31	3.271
404.66	3.275
405.01	3.275
405.36	3.295
405.72	3.258
406.07	3.283
406.42	3.255
406.77	3.291
407.12	3.293
407.47	3.285
407.82	3.312
408.17	3.294
408.53	3.297
408.88	3.296
409.23	3.309
409.58	3.316
409.93	3.300
410.28	3.313
410.63	3.286
410.98	3.286
411.33	3.314
411.68	3.309
412.03	3.346
412.38	3.340
412.73	3.359
413.09	3.369
413.44	3.401
413.79	3.449
414.14	3.455
414.49	3.491
414.84	3.529
415.19	3.520
415.54	3.544
415.89	3.556
416.24	3.594
416.59	3.613
416.94	3.628
417.29	3.654
417.64	3.650
417.99	3.662
418.34	3.679
418.69	3.686
419.04	3.721
419.39	3.731
419.74	3.731
420.09	3.753
420.44	3.767
420.79	3.769
421.14	3.776
421.49	3.803
421.84	3.812
422.19	3.828
422.54	3.830
422.89	3.818
423.24	3.810
423.59	3.818
423.94	3.788
424.29	3.776
424.64	3.786
424.99	3.776
425.34	3.752
425.68	3.751
426.03	3.734
426.38	3.743
426.73	3.759
427.08	3.764
427.43	3.793
427.78	3.825
428.13	3.820
428.48	3.829
428.83	3.838
429.18	3.846
429.53	3.844
429.87	3.828
430.22	3.823
430.57	3.847
430.92	3.857
431.27	3.862
431.62	3.871
431.97	3.893
432.32	3.896
432.67	3.902
433.01	3.894
433.36	3.890
433.71	3.900
434.06	3.896
434.41	3.882
434.76	3.888
435.11	3.886
435.45	3.882
435.80	3.873
436.15	3.880
436.50	3.891
436.85	3.923
437.20	3.945
437.54	3.960
437.89	3.978
438.24	3.982
438.59	3.985
438.94	3.974
439.29	3.970
439.63	3.981
439.98	3.974
440.33	3.960
440.68	3.954
441.03	3.960
441.37	3.971
441.72	3.990
442.07	3.999
442.42	4.005
442.76	4.021
443.11	4.035
443.46	4.049
443.81	4.068
444.16	4.095
444.50	4.098
444.85	4.095
445.20	4.090
445.55	4.084
445.89	4.079
446.24	4.082
446.59	4.086
446.94	4.081
447.28	4.076
447.63	4.069
447.98	4.060
448.32	4.071
448.67	4.085
449.02	4.079
449.37	4.064
449.71	4.079
450.06	4.078
450.41	4.082
450.75	4.093
451.10	4.092
451.45	4.078
451.79	4.072
452.14	4.069
452.49	4.062
452.84	4.076
453.18	4.080
453.53	4.067
453.88	4.086
454.22	4.083
454.57	4.098
454.92	4.119
455.26	4.137
455.61	4.182
455.95	4.216
456.30	4.240
456.65	4.271
456.99	4.302
457.34	4.331
457.69	4.343
458.03	4.358
458.38	4.376
458.73	4.385
459.07	4.398
459.42	4.376
459.76	4.360
460.11	4.343
460.46	4.323
460.80	4.309
461.15	4.300
461.49	4.284
461.84	4.290
462.19	4.276
462.53	4.273
462.88	4.279
463.22	4.292
463.57	4.304
463.91	4.329
464.26	4.361
464.61	4.377
464.95	4.373
465.30	4.381
465.64	4.388
465.99	4.389
466.33	4.397
466.68	4.402
467.02	4.409
467.37	4.405
467.71	4.396
468.06	4.376
468.41	4.370
468.75	4.385
469.10	4.385
469.44	4.380
469.79	4.355
470.13	4.313
470.48	4.305
470.82	4.305
471.17	4.300
471.51	4.297
471.86	4.286
472.20	4.286
472.55	4.266
472.89	4.264
473.23	4.250
473.58	4.287
473.92	4.313
474.27	4.324
474.61	4.303
474.96	4.317
475.30	4.322
475.65	4.312
475.99	4.304
476.34	4.315
476.68	4.318
477.02	4.337
477.37	4.336
477.71	4.376
478.06	4.405
478.40	4.495
478.75	4.571
479.09	4.676
479.43	4.804
479.78	4.933
480.12	5.055
480.47	5.190
480.81	5.317
481.15	5.441
481.50	5.563
481.84	5.703
482.19	5.828
482.53	5.949
482.87	6.019
483.22	6.032
483.56	5.984
483.90	5.900
484.25	5.779
484.59	5.647
484.94	5.526
485.28	5.418
485.62	5.293
485.97	5.160
486.31	5.047
486.65	4.965
487.00	4.932
487.34	4.936
487.68	4.962
488.03	5.007
488.37	5.055
488.71	5.090
489.06	5.104
489.40	5.103
489.74	5.102
490.09	5.092
490.43	5.082
490.77	5.054
491.11	5.028
491.46	5.018
491.80	5.001
492.14	4.981
492.49	4.962
492.83	4.920
493.17	4.885
493.51	4.865
493.86	4.835
494.20	4.815
494.54	4.822
494.88	4.844
495.23	4.863
495.57	4.893
495.91	4.926
496.25	4.952
496.60	4.971
496.94	4.997
497.28	5.017
497.62	5.038
497.97	5.051
498.31	5.072
498.65	5.083
498.99	5.094
499.33	5.112
499.68	5.127
500.02	5.157
500.36	5.193
500.70	5.218
501.04	5.232
501.39	5.256
501.73	5.280
502.07	5.313
502.41	5.351
502.75	5.397
503.09	5.419
503.44	5.461
503.78	5.489
504.12	5.509
504.46	5.557
504.80	5.611
505.14	5.662
505.49	5.721
505.83	5.759
506.17	5.806
506.51	5.840
506.85	5.877
507.19	5.920
507.53	5.952
507.87	6.011
508.22	6.025
508.56	6.067
508.90	6.094
509.24	6.129
509.58	6.167
509.92	6.207
510.26	6.244
510.60	6.292
510.94	6.321
511.28	6.351
511.63	6.396
511.97	6.463
512.31	6.500
512.65	6.566
512.99	6.623
513.33	6.699
513.67	6.760
514.01	6.837
514.35	6.911
514.69	6.984
515.03	7.067
515.37	7.139
515.71	7.202
516.05	7.277
516.39	7.311
516.73	7.373
517.07	7.398
517.41	7.434
517.75	7.451
518.09	7.489
518.43	7.515
518.77	7.529
519.11	7.540
519.45	7.543
519.79	7.546
520.13	7.573
520.47	7.593
520.81	7.642
521.15	7.708
521.49	7.764
521.83	7.809
522.17	7.860
522.51	7.937
522.85	8.019
523.19	8.137
523.53	8.270
523.87	8.412
524.21	8.548
524.55	8.669
524.89	8.763
525.23	8.877
525.57	8.979
525.91	9.075
526.25	9.161
526.58	9.244
526.92	9.303
527.26	9.336
527.60	9.343
527.94	9.352
528.28	9.345
528.62	9.338
528.96	9.321
529.30	9.304
529.64	9.286
529.97	9.261
530.31	9.218
530.65	9.198
530.99	9.191
531.33	9.200
531.67	9.192
532.01	9.209
532.35	9.222
532.68	9.232
533.02	9.228
533.36	9.230
533.70	9.230
534.04	9.238
534.38	9.246
534.71	9.244
535.05	9.240
535.39	9.248
535.73	9.254
536.07	9.285
536.41	9.311
536.74	9.340
537.08	9.369
537.42	9.433
537.76	9.481
538.10	9.523
538.43	9.581
538.77	9.647
539.11	9.705
539.45	9.753
539.79	9.780
540.12	9.808
540.46	9.834
540.80	9.843
541.14	9.827
541.47	9.824
541.81	9.812
542.15	9.785
542.49	9.752
542.82	9.727
543.16	9.700
543.50	9.689
543.84	9.665
544.17	9.648
544.51	9.666
544.85	9.654
545.18	9.646
545.52	9.643
545.86	9.645
546.20	9.660
546.53	9.652
546.87	9.650
547.21	9.635
547.54	9.622
547.88	9.614
548.22	9.580
548.55	9.576
548.89	9.595
549.23	9.620
549.56	9.627
549.90	9.650
550.24	9.653
550.57	9.647
550.91	9.626
551.25	9.659
551.58	9.671
551.92	9.696
552.26	9.710
552.59	9.720
552.93	9.715
553.27	9.734
553.60	9.729
553.94	9.724
554.27	9.744
554.61	9.785
554.95	9.775
555.28	9.782
555.62	9.798
555.95	9.822
556.29	9.829
556.63	9.830
556.96	9.832
557.30	9.845
557.63	9.862
557.97	9.867
558.31	9.860
558.64	9.871
558.98	9.891
559.31	9.904
559.65	9.908
559.98	9.903
560.32	9.912
560.65	9.906
560.99	9.907
561.33	9.912
561.66	9.911
562.00	9.936
562.33	9.943
562.67	9.957
563.00	9.948
563.34	9.959
563.67	9.972
564.01	9.976
564.34	9.997
564.68	10.000
565.01	9.998
565.35	10.000
565.68	9.994
566.02	9.995
566.35	9.992
566.69	9.989
567.02	9.989
567.36	9.983
567.69	9.984
568.03	9.975
568.36	9.937
568.69	9.944
569.03	9.957
569.36	9.946
569.70	9.928
570.03	9.927
570.37	9.930
570.70	9.923
571.04	9.902
571.37	9.892
571.70	9.882
572.04	9.903
572.37	9.895
572.71	9.859
573.04	9.848
573.37	9.843
573.71	9.835
574.04	9.822
574.38	9.818
574.71	9.827
575.04	9.827
575.38	9.821
575.71	9.791
576.05	9.776
576.38	9.805
576.71	9.792
577.05	9.796
577.38	9.775
577.71	9.749
578.05	9.717
578.38	9.708
578.71	9.686
579.05	9.664
579.38	9.647
579.71	9.638
580.05	9.597
580.38	9.605
580.71	9.594
581.05	9.575
581.38	9.577
581.71	9.581
582.05	9.568
582.38	9.568
582.71	9.566
583.04	9.607
583.38	9.588
583.71	9.610
584.04	9.591
584.38	9.580
584.71	9.613
585.04	9.622
585.37	9.620
585.71	9.644
586.04	9.632
586.37	9.673
586.70	9.677
587.04	9.724
587.37	9.733
587.70	9.751
588.03	9.786
588.37	9.766
588.70	9.758
589.03	9.770
589.36	9.780
589.69	9.791
590.03	9.762
590.36	9.756
590.69	9.714
591.02	9.687
591.35	9.686
591.69	9.689
592.02	9.692
592.35	9.702
592.68	9.701
593.01	9.664
593.35	9.678
593.68	9.706
594.01	9.698
594.34	9.703
594.67	9.715
595.00	9.725
595.34	9.698
595.67	9.673
596.00	9.659
596.33	9.629
596.66	9.614
596.99	9.581
597.32	9.528
597.65	9.520
597.99	9.496
598.32	9.457
598.65	9.411
598.98	9.393
599.31	9.403
599.64	9.418
599.97	9.408
600.30	9.412
600.63	9.434
600.96	9.468
601.30	9.451
601.63	9.512
601.96	9.520
602.29	9.536
602.62	9.545
602.95	9.528
603.28	9.519
603.61	9.521
603.94	9.525
604.27	9.525
604.60	9.499
604.93	9.530
605.26	9.481
605.59	9.494
605.92	9.501
606.25	9.496
606.58	9.504
606.91	9.480
607.24	9.491
607.57	9.490
607.90	9.460
608.23	9.439
608.56	9.402
608.89	9.393
609.22	9.373
609.55	9.334
609.88	9.309
610.21	9.269
610.54	9.258
610.87	9.232
611.20	9.197
611.53	9.202
611.86	9.215
612.19	9.175
612.52	9.157
612.85	9.140
613.18	9.157
613.51	9.138
613.84	9.129
614.17	9.091
614.49	9.096
614.82	9.061
615.15	9.030
615.48	9.008
615.81	9.017
616.14	9.002
616.47	8.989
616.80	8.954
617.13	8.939
617.46	8.974
617.78	9.001
618.11	8.983
618.44	9.025
618.77	9.007
619.10	8.978
619.43	8.985
619.76	8.966
620.09	8.967
620.41	8.962
620.74	8.971
621.07	8.951
621.40	8.931
621.73	8.924
622.06	8.928
622.38	8.950
622.71	8.976
623.04	8.990
623.37	9.033
623.70	9.077
624.02	9.109
624.35	9.149
624.68	9.165
625.01	9.214
625.34	9.267
625.66	9.271
625.99	9.299
626.32	9.305
626.65	9.315
626.98	9.322
627.30	9.294
627.63	9.274
627.96	9.259
628.29	9.240
628.61	9.209
628.94	9.202
629.27	9.213
629.60	9.170
629.92	9.151
630.25	9.157
630.58	9.123
630.91	9.111
631.23	9.107
631.56	9.111
631.89	9.115
632.21	9.121
632.54	9.088
632.87	9.044
633.19	9.004
633.52	8.992
633.85	8.951
634.18	8.946
634.50	8.927
634.83	8.888
635.16	8.814
635.48	8.758
635.81	8.683
636.14	8.614
636.46	8.566
636.79	8.560
637.11	8.537
637.44	8.415
637.77	8.346
638.09	8.263
638.42	8.213
638.75	8.177
639.07	8.134
639.40	8.102
639.73	8.022
640.05	7.966
640.38	7.942
640.70	7.869
641.03	7.902
641.36	7.833
641.68	7.852
642.01	7.823
642.33	7.760
642.66	7.764
642.98	7.711
643.31	7.756
643.64	7.769
643.96	7.769
644.29	7.803
644.61	7.822
644.94	7.863
645.26	7.854
645.59	7.884
645.91	7.941
646.24	7.953
646.56	7.986
646.89	8.000
647.22	8.016
647.54	8.019
647.87	8.019
648.19	7.978
648.52	7.971
648.84	7.977
649.17	7.952
649.49	7.942
649.82	7.924
650.14	7.948
650.47	7.927
650.79	7.939
651.11	7.965
651.44	7.966
651.76	7.954
652.09	7.970
652.41	8.002
652.74	8.048
653.06	8.085
653.39	8.137
653.71	8.178
654.04	8.204
654.36	8.194
654.68	8.198
655.01	8.222
655.33	8.279
655.66	8.283
655.98	8.279
656.30	8.229
656.63	8.246
656.95	8.233
657.28	8.213
657.60	8.193
657.92	8.196
658.25	8.137
658.57	8.095
658.90	8.054
659.22	8.057
659.54	8.027
659.87	8.037
660.19	7.962
660.51	7.909
660.84	7.847
661.16	7.823
661.48	7.789
661.81	7.793
662.13	7.769
662.45	7.773
662.78	7.770
663.10	7.772
663.42	7.781
663.75	7.775
664.07	7.813
664.39	7.804
664.72	7.787
665.04	7.800
665.36	7.832
665.69	7.906
666.01	7.930
666.33	7.971
666.65	7.961
666.98	8.027
667.30	8.152
667.62	8.159
667.94	8.240
668.27	8.356
668.59	8.418
668.91	8.484
669.23	8.534
669.56	8.629
669.88	8.693
670.20	8.727
670.52	8.801
670.85	8.795
671.17	8.896
671.49	8.963
671.81	9.034
672.13	9.147
672.46	9.206
672.78	9.284
673.10	9.392
673.42	9.454
673.74	9.619
674.07	9.702
674.39	9.830
674.71	9.897
675.03	10.026
675.35	10.060
675.67	10.095
676.00	10.193
676.32	10.280
676.64	10.308
676.96	10.431
677.28	10.595
677.60	10.682
677.92	10.802
678.25	10.970
678.57	11.113
678.89	11.246
679.21	11.424
679.53	11.568
679.85	11.694
680.17	11.925
680.49	12.051
680.81	12.156
681.13	12.307
681.46	12.485
681.78	12.670
682.10	12.825
682.42	13.023
682.74	13.176
683.06	13.339
683.38	13.554
683.70	13.671
684.02	13.877
684.34	14.125
684.66	14.376
684.98	14.524
685.30	14.651
685.62	14.809
685.94	14.974
686.26	15.121
686.58	15.309
686.90	15.421
687.22	15.548
687.54	15.623
687.86	15.681
688.18	15.661
688.50	15.768
688.82	15.873
689.14	15.959
689.46	16.093
689.78	16.190
690.10	16.273
690.42	16.358
690.74	16.464
691.06	16.618
691.38	16.736
691.70	16.904
692.02	17.032
692.34	17.120
692.66	17.191
692.98	17.210
693.30	17.325
693.62	17.391
693.94	17.490
694.26	17.555
694.57	17.603
694.89	17.663
695.21	17.772
695.53	17.828
695.85	17.862
696.17	17.902
696.49	18.037
696.81	18.119
697.13	18.194
697.44	18.284
697.76	18.365
698.08	18.479
698.40	18.523
698.72	18.558
699.04	18.689
699.36	18.870
699.67	19.015
699.99	19.083
700.31	19.182
700.63	19.362
700.95	19.502
701.27	19.626
701.58	19.737
701.90	19.851
702.22	20.059
702.54	20.093
702.86	20.161
703.17	20.335
703.49	20.396
703.81	20.507
704.13	20.546
704.45	20.607
704.76	20.720
705.08	20.782
705.40	20.917
705.72	20.863
706.03	21.032
706.35	21.040
706.67	21.024
706.99	21.162
707.30	21.215
707.62	21.256
707.94	21.263
708.26	21.333
708.57	21.419
708.89	21.506
709.21	21.695
709.53	21.705
709.84	21.869
710.16	22.005
710.48	22.125
710.79	22.255
711.11	22.312
711.43	22.425
711.74	22.514
712.06	22.615
712.38	22.726
712.69	22.813
713.01	22.969
713.33	23.070
713.64	23.236
713.96	23.344
714.28	23.505
714.59	23.753
714.91	23.950
715.23	24.138
715.54	24.235
715.86	24.365
716.17	24.490
716.49	24.632
716.81	24.791
717.12	24.934
717.44	25.075
717.76	25.155
718.07	25.239
718.39	25.339
718.70	25.464
719.02	25.558
719.33	25.601
719.65	25.623
719.97	25.542
720.28	25.583
720.60	25.630
720.91	25.713
721.23	25.918
721.54	26.024
721.86	26.144
722.17	26.177
722.49	26.403
722.81	26.518
723.12	26.773
723.44	27.028
723.75	27.128
724.07	27.162
724.38	27.338
724.70	27.456
725.01	27.448
725.33	27.527
725.64	27.626
725.96	27.629
726.27	27.607
726.59	27.652
726.90	27.660
727.22	27.661
727.53	27.837
727.84	27.862
728.16	27.724
728.47	27.809
728.79	27.807
729.10	27.815
729.42	27.815
729.73	28.015
730.05	27.944
730.36	27.953
730.67	28.109
730.99	28.059
731.30	28.006
731.62	28.057
731.93	28.041
732.24	28.014
732.56	28.049
732.87	28.105
733.19	28.033
733.50	27.985
733.81	27.988
734.13	28.025
734.44	28.036
734.76	28.013
735.07	28.054
735.38	28.113
735.70	28.317
736.01	28.362
736.32	28.422
736.64	28.604
736.95	28.747
737.26	28.715
737.58	28.757
737.89	28.927
738.20	28.925
738.52	28.977
738.83	29.008
739.14	28.941
739.45	28.908
739.77	28.836
740.08	28.601
740.39	28.501
740.71	28.543
741.02	28.268
741.33	28.083
741.64	28.154
741.96	28.033
742.27	27.828
742.58	27.919
742.90	27.866
743.21	27.907
743.52	28.082
743.83	28.152
744.14	28.340
744.46	28.633
744.77	28.758
745.08	28.858
745.39	28.892
745.71	29.066
746.02	28.948
746.33	29.057
746.64	29.020
746.95	28.934
747.27	28.960
747.58	28.908
747.89	28.811
748.20	28.523
748.51	28.481
748.82	28.374
749.14	28.437
749.45	28.418
749.76	28.531
750.07	28.744
750.38	28.830
750.69	28.985
751.01	29.016
751.32	28.943
751.63	29.222
751.94	29.159
752.25	29.230
752.56	29.183
752.87	29.216
753.18	29.154
753.49	29.036
753.81	28.995
754.12	28.795
754.43	28.971
754.74	29.146
755.05	29.150
755.36	29.289
755.67	29.488
755.98	29.875
756.29	30.268
756.60	30.519
756.91	30.818
757.22	31.168
757.53	31.601
757.84	31.808
758.15	32.216
758.46	32.607
758.77	32.912
759.09	33.163
759.40	33.318
759.71	33.370
760.02	33.413
760.33	33.417
760.64	33.353
760.95	33.387
761.26	33.222
761.57	33.088
761.88	33.020
762.18	32.947
762.49	32.863
762.80	32.706
763.11	32.672
763.42	32.510
763.73	32.409
764.04	32.353
764.35	32.177
764.66	32.092
764.97	31.868
765.28	31.569
765.59	31.206
765.90	30.916
766.21	30.584
766.52	30.151
766.83	29.908
767.14	29.710
767.44	29.511
767.75	29.198
768.06	29.077
768.37	28.717
768.68	28.740
768.99	28.839
769.30	28.751
769.61	28.694
769.91	28.790
770.22	28.527
770.53	28.492
770.84	28.341
771.15	28.381
771.46	28.354
771.77	28.597
772.07	28.457
772.38	28.433
772.69	28.533
773.00	28.658
773.31	28.400
773.61	28.644
773.92	28.428
774.23	28.356
774.54	28.149
774.85	27.944
775.15	27.837
775.46	27.743
775.77	27.547
776.08	27.401
776.39	27.190
776.69	27.274
777.00	27.343
777.31	27.617
777.62	27.748
777.92	28.052
778.23	28.212
778.54	28.300
778.85	28.460
779.15	28.646
779.46	28.647
779.77	28.891
780.07	28.834
780.38	28.945
780.69	28.687
781.00	28.835
781.30	28.763
781.61	28.705
781.92	28.716
782.22	28.613
782.53	28.352
782.84	28.466
783.14	28.461
783.45	28.378
783.76	28.695
784.06	28.927
784.37	28.800
784.68	28.845
784.98	28.907
785.29	29.024
785.60	29.123
785.90	29.751
786.21	29.740
786.51	29.948
786.82	30.369
787.13	30.375
787.43	30.751
787.74	31.039
788.04	31.203
788.35	31.407
788.66	31.437
788.96	31.694
789.27	31.385
789.57	31.421
789.88	31.216
790.19	31.066
790.49	30.923
790.80	30.546
791.10	30.368
791.41	30.578
791.71	30.669
792.02	30.727
792.32	30.383
792.63	30.513
792.93	30.729
793.24	31.090
793.54	31.084
793.85	31.013
794.15	31.020
794.46	31.237
794.76	30.984
795.07	31.048
795.37	31.325
795.68	31.370
795.98	31.432
796.29	31.667
796.59	31.344
796.90	31.353
797.20	31.384
797.51	31.529
797.81	30.938
798.12	31.170
798.42	31.435
798.72	31.473
799.03	31.573
799.33	31.404
799.64	31.208
799.94	31.245
800.25	31.520
800.55	31.299
800.85	31.449
801.16	32.082
801.46	31.782
801.77	31.089
802.07	30.804
802.37	30.984
802.68	30.862
802.98	30.852
803.28	30.808
803.59	30.821
803.89	31.128
804.20	31.256
804.50	31.139
804.80	31.452
805.11	31.774
805.41	31.820
805.71	31.788
806.02	32.192
806.32	32.314
806.62	32.601
806.93	32.493
807.23	32.798
807.53	32.681
807.83	33.143
808.14	33.316
808.44	33.383
808.74	33.466
809.05	33.671
809.35	33.688
809.65	34.282
809.95	34.496
810.26	34.783
810.56	34.477
810.86	34.299
811.16	33.792
811.47	33.835
811.77	34.004
812.07	34.525
812.37	34.535
812.68	34.785
812.98	34.712
813.28	34.682
813.58	34.879
813.88	35.455
814.19	36.036
814.49	36.451
814.79	36.522
815.09	36.920
815.39	36.773
815.70	37.212
816.00	37.391
816.30	37.233
816.60	37.056
816.90	36.730
817.20	36.811
817.50	36.886
817.81	37.214
818.11	37.621
818.41	37.797
818.71	37.871
819.01	38.152
819.31	38.365
819.61	38.550
819.92	38.837
820.22	39.143
820.52	39.270
820.82	39.416
821.12	39.638
821.42	39.789
821.72	39.915
822.02	40.155
822.32	40.303
822.62	40.422
822.92	40.474
823.22	40.616
823.52	40.728
823.83	40.736
824.13	40.777
824.43	40.626
824.73	40.538
825.03	40.478
825.33	40.486
825.63	40.239
825.93	40.099
826.23	40.051
826.53	39.952
826.83	39.756
827.13	39.934
827.43	40.003
827.73	40.252
828.03	40.314
828.33	40.536
828.63	40.274
828.93	40.390
829.23	40.497
829.53	40.608
829.83	40.386
830.13	40.360
830.42	40.168
830.72	39.890
831.02	39.738
831.32	39.666
831.62	39.588
831.92	39.750
832.22	39.632
832.52	39.428
832.82	39.480
833.12	39.655
833.42	39.567
833.72	39.536
834.01	39.556
834.31	39.560
834.61	39.666
834.91	39.634
835.21	39.688
835.51	40.000
835.81	39.913
836.11	40.007
836.40	39.894
836.70	40.012
837.00	40.313
837.30	40.206
837.60	39.942
837.90	39.808
838.19	39.648
838.49	39.306
838.79	38.824
839.09	39.296
839.39	39.242
839.68	39.435
839.98	39.117
840.28	38.684
840.58	38.461
840.88	38.545
841.17	37.779
841.47	37.312
841.77	36.556
842.07	36.332
842.36	35.522
842.66	34.248
842.96	32.911
843.26	31.608
843.55	31.218
843.85	31.364
844.15	30.176
844.45	30.317
844.74	31.228
845.04	31.456
845.34	31.246
845.63	32.276
845.93	33.272
846.23	34.491
846.53	36.430
846.82	35.321
847.12	34.701
847.42	35.168
847.71	35.174
848.01	34.516
848.31	35.125
848.60	34.992
848.90	34.289
849.19	34.029
849.49	32.963
849.79	31.907
850.08	33.482
850.38	33.632
850.68	32.666
850.97	33.292
851.27	32.935
851.56	32.894
851.86	32.514
852.16	32.707
852.45	31.882
852.75	31.487
853.04	32.992
853.34	32.368
853.64	32.452
853.93	33.658
854.23	33.723
854.52	34.280
854.82	35.089
855.11	36.043
855.41	37.603
855.70	40.000
856.00	40.229
856.30	39.437
856.59	39.926
856.89	41.973
857.18	42.466
857.48	42.582
857.77	40.719
858.07	40.129
858.36	39.367
858.66	36.933
858.95	35.452
859.25	35.472
859.54	36.121
859.84	34.643
860.13	33.031
860.42	32.380
860.72	31.363
861.01	32.621
861.31	33.130
861.60	34.095
861.90	35.236
862.19	36.018
862.49	34.959
862.78	34.793
863.07	35.421
863.37	35.093
863.66	34.141
863.96	37.076
864.25	38.791
864.54	38.403
864.84	38.443
865.13	36.220
865.43	35.684
865.72	57.302
866.01	41.591
866.31	42.422
866.60	14.307
866.89	33.461
>>>>>End Spectral Data<<<<<
