OOIBase32 Version 2.0.0.6 Data File
++++++++++++++++++++++++++++++++++++
Date: 01-23-2012, 21:56:03
User: Valued Ocean Optics Customer
Spectrometer Serial Number: USB2E2917
Spectrometer Channel: Master
Integration Time (msec): 5
Spectra Averaged: 10
Boxcar Smoothing: 5
Correct for Electrical Dark: Enabled
Time Normalized: Disabled
Dual-beam Reference: Disabled
Reference Channel: Master
Temperature: Not acquired
Spectrometer Type: S2000
ADC Type: USB2000
Number of Pixels in File: 2048
Graph Title: 
>>>>>Begin Spectral Data<<<<<
180.30	0.000
180.67	0.000
181.03	304.511
181.40	-137.132
181.77	8766.467
182.14	-65.988
182.51	54.821
182.88	7598.941
183.25	-1.124
183.62	-246.242
183.99	75.932
184.36	124.676
184.73	135.374
185.10	23.196
185.46	23.123
185.83	109.844
186.20	45.634
186.57	277.306
186.94	-11.618
187.31	9.324
187.68	-410.033
188.05	19.187
188.42	20.403
188.78	23.533
189.15	6.585
189.52	-12.426
189.89	-23.000
190.26	-39.266
190.63	-20.577
191.00	-24.851
191.37	-9.653
191.73	-7.507
192.10	-10.159
192.47	-18.697
192.84	-8.797
193.21	-6.889
193.58	1.679
193.94	-0.261
194.31	-5.967
194.68	-2.611
195.05	-17.910
195.42	-28.815
195.79	-37.175
196.15	-25.897
196.52	-15.955
196.89	-41.266
197.26	-32.474
197.63	-34.137
198.00	-26.104
198.36	-20.833
198.73	-21.919
199.10	-3.735
199.47	-3.470
199.84	-3.714
200.20	6.179
200.57	-15.886
200.94	-10.854
201.31	-17.207
201.68	0.961
202.04	-1.003
202.41	5.314
202.78	2.407
203.15	3.690
203.51	-15.252
203.88	-15.647
204.25	-32.666
204.62	-9.202
204.98	-1.003
205.35	-6.397
205.72	-16.318
206.09	-16.476
206.46	-15.147
206.82	-6.614
207.19	-20.271
207.56	-15.643
207.92	-20.833
208.29	-13.251
208.66	-6.231
209.03	1.684
209.39	2.458
209.76	-13.578
210.13	-27.811
210.50	-45.599
210.86	-43.250
211.23	-22.694
211.60	-17.255
211.96	-8.813
212.33	-11.989
212.70	-4.118
213.07	-16.258
213.43	-5.801
213.80	8.050
214.17	10.473
214.53	19.432
214.90	17.949
215.27	12.601
215.63	13.833
216.00	6.329
216.37	9.735
216.74	-9.913
217.10	-5.723
217.47	-16.200
217.84	-13.855
218.20	4.806
218.57	3.349
218.94	-1.280
219.30	-1.325
219.67	0.784
220.04	3.384
220.40	2.351
220.77	15.820
221.13	21.846
221.50	28.083
221.87	24.511
222.23	18.529
222.60	11.931
222.97	6.090
223.33	3.466
223.70	-0.740
224.07	3.718
224.43	5.335
224.80	5.253
225.16	4.358
225.53	4.293
225.90	-0.709
226.26	-3.111
226.63	-2.542
226.99	0.587
227.36	2.104
227.73	1.819
228.09	-0.052
228.46	-1.461
228.82	-0.051
229.19	-0.456
229.56	-2.331
229.92	0.762
230.29	3.579
230.65	4.224
231.02	5.602
231.38	3.358
231.75	3.717
232.12	4.852
232.48	6.092
232.85	2.003
233.21	3.293
233.58	5.650
233.94	7.963
234.31	5.105
234.68	4.508
235.04	2.920
235.41	3.694
235.77	4.555
236.14	4.170
236.50	2.971
236.87	5.148
237.23	3.569
237.60	2.683
237.96	0.841
238.33	2.246
238.69	2.652
239.06	2.353
239.42	3.126
239.79	3.109
240.15	3.248
240.52	3.345
240.88	2.910
241.25	3.234
241.61	3.041
241.98	3.459
242.34	2.753
242.71	3.000
243.07	3.456
243.44	3.316
243.80	3.128
244.17	3.190
244.53	3.333
244.90	3.174
245.26	3.311
245.63	3.400
245.99	3.107
246.36	3.384
246.72	3.109
247.09	2.873
247.45	2.621
247.81	2.535
248.18	2.253
248.54	2.081
248.91	2.477
249.27	2.689
249.64	2.820
250.00	3.190
250.36	3.506
250.73	3.776
251.09	3.342
251.46	3.107
251.82	3.644
252.19	3.877
252.55	3.492
252.91	3.138
253.28	2.624
253.64	2.711
254.01	2.781
254.37	2.664
254.73	2.774
255.10	3.617
255.46	3.962
255.83	3.521
256.19	3.340
256.55	3.456
256.92	3.413
257.28	3.427
257.65	3.534
258.01	3.589
258.37	3.390
258.74	3.224
259.10	2.992
259.46	3.034
259.83	3.273
260.19	3.284
260.55	3.481
260.92	3.355
261.28	3.067
261.64	2.800
262.01	2.606
262.37	2.566
262.73	2.626
263.10	2.778
263.46	2.864
263.82	2.589
264.19	2.493
264.55	2.193
264.91	2.407
265.28	2.755
265.64	2.562
266.00	2.346
266.37	2.360
266.73	2.593
267.09	2.546
267.46	2.660
267.82	2.792
268.18	2.857
268.54	2.998
268.91	3.092
269.27	3.072
269.63	3.152
270.00	3.220
270.36	3.480
270.72	3.369
271.08	3.093
271.45	3.046
271.81	3.171
272.17	3.320
272.53	3.223
272.90	3.136
273.26	3.042
273.62	3.143
273.98	3.201
274.35	2.898
274.71	3.182
275.07	3.594
275.43	3.623
275.80	3.488
276.16	3.585
276.52	3.337
276.88	3.115
277.25	3.147
277.61	3.195
277.97	3.238
278.33	3.238
278.69	2.821
279.06	2.830
279.42	2.418
279.78	2.100
280.14	1.934
280.50	2.170
280.87	2.520
281.23	2.790
281.59	2.879
281.95	2.828
282.31	3.048
282.68	3.097
283.04	2.994
283.40	3.146
283.76	3.236
284.12	3.297
284.48	3.299
284.85	3.173
285.21	2.911
285.57	2.699
285.93	2.650
286.29	2.421
286.65	2.438
287.02	2.359
287.38	2.440
287.74	2.644
288.10	2.576
288.46	2.647
288.82	2.546
289.18	2.557
289.54	2.738
289.91	2.830
290.27	2.879
290.63	2.955
290.99	2.995
291.35	3.089
291.71	3.232
292.07	3.228
292.43	3.133
292.79	3.478
293.16	3.615
293.52	3.528
293.88	3.503
294.24	3.694
294.60	3.660
294.96	3.624
295.32	3.529
295.68	3.282
296.04	3.416
296.40	3.421
296.76	3.152
297.12	3.069
297.49	3.152
297.85	3.267
298.21	3.295
298.57	3.272
298.93	3.250
299.29	3.208
299.65	3.185
300.01	3.021
300.37	2.929
300.73	3.195
301.09	3.351
301.45	3.388
301.81	3.258
302.17	3.136
302.53	3.101
302.89	3.044
303.25	2.997
303.61	3.110
303.97	3.043
304.33	3.204
304.69	3.000
305.05	2.911
305.41	2.832
305.77	2.984
306.13	3.092
306.49	3.266
306.85	3.494
307.21	3.632
307.57	3.596
307.93	3.690
308.29	3.690
308.65	3.724
309.01	3.766
309.37	3.881
309.73	3.820
310.09	3.715
310.45	3.622
310.81	3.632
311.17	3.538
311.53	3.568
311.89	3.697
312.25	3.614
312.61	3.643
312.96	3.695
313.32	3.658
313.68	3.620
314.04	3.661
314.40	3.582
314.76	3.507
315.12	3.590
315.48	3.666
315.84	3.487
316.20	3.635
316.56	3.679
316.92	3.658
317.27	3.516
317.63	3.426
317.99	3.412
318.35	3.476
318.71	3.457
319.07	3.389
319.43	3.297
319.79	3.274
320.15	3.169
320.50	3.070
320.86	3.093
321.22	3.214
321.58	3.309
321.94	3.274
322.30	3.340
322.66	3.432
323.01	3.398
323.37	3.406
323.73	3.499
324.09	3.555
324.45	3.632
324.81	3.505
325.17	3.447
325.52	3.515
325.88	3.480
326.24	3.468
326.60	3.440
326.96	3.645
327.31	3.676
327.67	3.647
328.03	3.631
328.39	3.565
328.75	3.642
329.11	3.692
329.46	3.680
329.82	3.765
330.18	3.734
330.54	3.758
330.90	3.710
331.25	3.605
331.61	3.587
331.97	3.557
332.33	3.698
332.68	3.558
333.04	3.561
333.40	3.625
333.76	3.665
334.11	3.689
334.47	3.646
334.83	3.617
335.19	3.745
335.54	3.920
335.90	3.993
336.26	3.875
336.62	4.024
336.97	3.862
337.33	3.766
337.69	3.755
338.05	3.736
338.40	3.764
338.76	3.829
339.12	3.796
339.48	3.781
339.83	3.726
340.19	3.786
340.55	3.722
340.90	3.807
341.26	3.750
341.62	3.712
341.97	3.761
342.33	3.795
342.69	3.694
343.04	3.694
343.40	3.589
343.76	3.662
344.12	3.692
344.47	3.735
344.83	3.722
345.19	3.756
345.54	3.832
345.90	3.793
346.26	3.683
346.61	3.766
346.97	3.774
347.32	3.768
347.68	3.661
348.04	3.634
348.39	3.693
348.75	3.767
349.11	3.776
349.46	3.763
349.82	3.738
350.18	3.785
350.53	3.643
350.89	3.680
351.24	3.643
351.60	3.635
351.96	3.645
352.31	3.671
352.67	3.711
353.02	3.708
353.38	3.684
353.74	3.715
354.09	3.712
354.45	3.850
354.80	3.816
355.16	3.790
355.52	3.856
355.87	3.804
356.23	3.722
356.58	3.662
356.94	3.651
357.29	3.636
357.65	3.591
358.00	3.607
358.36	3.552
358.72	3.548
359.07	3.611
359.43	3.622
359.78	3.701
360.14	3.702
360.49	3.714
360.85	3.699
361.20	3.720
361.56	3.815
361.91	3.800
362.27	3.829
362.62	3.790
362.98	3.736
363.33	3.714
363.69	3.631
364.04	3.646
364.40	3.606
364.75	3.644
365.11	3.660
365.46	3.598
365.82	3.552
366.17	3.540
366.53	3.607
366.88	3.646
367.24	3.686
367.59	3.743
367.95	3.749
368.30	3.770
368.66	3.772
369.01	3.766
369.37	3.778
369.72	3.841
370.08	3.833
370.43	3.795
370.78	3.780
371.14	3.735
371.49	3.740
371.85	3.742
372.20	3.778
372.56	3.800
372.91	3.759
373.26	3.771
373.62	3.757
373.97	3.774
374.33	3.791
374.68	3.829
375.03	3.922
375.39	3.868
375.74	3.856
376.10	3.840
376.45	3.817
376.80	3.852
377.16	3.846
377.51	3.900
377.87	3.871
378.22	3.873
378.57	3.898
378.93	3.860
379.28	3.905
379.63	3.972
379.99	3.992
380.34	4.068
380.70	4.116
381.05	4.163
381.40	4.153
381.76	4.196
382.11	4.237
382.46	4.217
382.82	4.214
383.17	4.273
383.52	4.274
383.88	4.255
384.23	4.216
384.58	4.200
384.94	4.196
385.29	4.228
385.64	4.246
385.99	4.247
386.35	4.306
386.70	4.333
387.05	4.294
387.41	4.302
387.76	4.360
388.11	4.352
388.47	4.408
388.82	4.408
389.17	4.394
389.52	4.414
389.88	4.442
390.23	4.435
390.58	4.457
390.93	4.494
391.29	4.509
391.64	4.534
391.99	4.574
392.34	4.589
392.70	4.607
393.05	4.615
393.40	4.639
393.75	4.665
394.11	4.686
394.46	4.699
394.81	4.687
395.16	4.700
395.52	4.694
395.87	4.689
396.22	4.643
396.57	4.640
396.92	4.683
397.28	4.700
397.63	4.693
397.98	4.723
398.33	4.755
398.68	4.815
399.04	4.859
399.39	4.884
399.74	4.948
400.09	5.002
400.44	5.038
400.80	5.033
401.15	5.061
401.50	5.089
401.85	5.138
402.20	5.156
402.55	5.178
402.90	5.163
403.26	5.204
403.61	5.233
403.96	5.252
404.31	5.297
404.66	5.361
405.01	5.420
405.36	5.473
405.72	5.444
406.07	5.477
406.42	5.493
406.77	5.541
407.12	5.543
407.47	5.567
407.82	5.587
408.17	5.642
408.53	5.681
408.88	5.681
409.23	5.716
409.58	5.773
409.93	5.786
410.28	5.827
410.63	5.863
410.98	5.933
411.33	5.947
411.68	6.001
412.03	6.013
412.38	6.044
412.73	6.084
413.09	6.091
413.44	6.136
413.79	6.194
414.14	6.232
414.49	6.244
414.84	6.257
415.19	6.317
415.54	6.359
415.89	6.391
416.24	6.403
416.59	6.435
416.94	6.467
417.29	6.500
417.64	6.510
417.99	6.537
418.34	6.578
418.69	6.616
419.04	6.642
419.39	6.659
419.74	6.685
420.09	6.707
420.44	6.726
420.79	6.743
421.14	6.747
421.49	6.784
421.84	6.797
422.19	6.818
422.54	6.841
422.89	6.850
423.24	6.870
423.59	6.886
423.94	6.933
424.29	6.939
424.64	6.955
424.99	6.989
425.34	7.010
425.68	7.063
426.03	7.112
426.38	7.137
426.73	7.189
427.08	7.214
427.43	7.267
427.78	7.291
428.13	7.362
428.48	7.424
428.83	7.475
429.18	7.488
429.53	7.512
429.87	7.514
430.22	7.503
430.57	7.522
430.92	7.543
431.27	7.549
431.62	7.551
431.97	7.534
432.32	7.554
432.67	7.558
433.01	7.579
433.36	7.598
433.71	7.621
434.06	7.678
434.41	7.712
434.76	7.755
435.11	7.780
435.45	7.814
435.80	7.868
436.15	7.867
436.50	7.879
436.85	7.904
437.20	7.903
437.54	7.898
437.89	7.895
438.24	7.890
438.59	7.884
438.94	7.903
439.29	7.900
439.63	7.887
439.98	7.916
440.33	7.940
440.68	7.946
441.03	7.961
441.37	7.982
441.72	7.990
442.07	8.009
442.42	8.032
442.76	8.018
443.11	8.026
443.46	8.023
443.81	8.008
444.16	8.006
444.50	7.996
444.85	8.003
445.20	8.009
445.55	8.023
445.89	8.011
446.24	7.998
446.59	8.007
446.94	8.019
447.28	8.052
447.63	8.077
447.98	8.082
448.32	8.105
448.67	8.107
449.02	8.139
449.37	8.145
449.71	8.146
450.06	8.155
450.41	8.184
450.75	8.181
451.10	8.164
451.45	8.181
451.79	8.183
452.14	8.196
452.49	8.212
452.84	8.200
453.18	8.219
453.53	8.248
453.88	8.269
454.22	8.276
454.57	8.317
454.92	8.353
455.26	8.364
455.61	8.406
455.95	8.445
456.30	8.471
456.65	8.496
456.99	8.511
457.34	8.541
457.69	8.578
458.03	8.591
458.38	8.601
458.73	8.619
459.07	8.660
459.42	8.690
459.76	8.705
460.11	8.727
460.46	8.770
460.80	8.828
461.15	8.842
461.49	8.856
461.84	8.919
462.19	8.963
462.53	9.015
462.88	9.020
463.22	9.029
463.57	9.087
463.91	9.134
464.26	9.165
464.61	9.174
464.95	9.240
465.30	9.269
465.64	9.296
465.99	9.336
466.33	9.364
466.68	9.417
467.02	9.451
467.37	9.465
467.71	9.462
468.06	9.487
468.41	9.515
468.75	9.528
469.10	9.567
469.44	9.574
469.79	9.568
470.13	9.597
470.48	9.586
470.82	9.586
471.17	9.594
471.51	9.617
471.86	9.616
472.20	9.610
472.55	9.623
472.89	9.618
473.23	9.626
473.58	9.658
473.92	9.649
474.27	9.665
474.61	9.691
474.96	9.675
475.30	9.676
475.65	9.686
475.99	9.684
476.34	9.681
476.68	9.703
477.02	9.718
477.37	9.695
477.71	9.711
478.06	9.736
478.40	9.770
478.75	9.850
479.09	9.951
479.43	10.034
479.78	10.155
480.12	10.286
480.47	10.434
480.81	10.582
481.15	10.757
481.50	10.928
481.84	11.124
482.19	11.335
482.53	11.496
482.87	11.576
483.22	11.573
483.56	11.463
483.90	11.297
484.25	11.086
484.59	10.895
484.94	10.743
485.28	10.594
485.62	10.402
485.97	10.196
486.31	10.031
486.65	9.933
487.00	9.936
487.34	10.040
487.68	10.175
488.03	10.331
488.37	10.448
488.71	10.506
489.06	10.542
489.40	10.577
489.74	10.598
490.09	10.621
490.43	10.641
490.77	10.646
491.11	10.669
491.46	10.684
491.80	10.719
492.14	10.767
492.49	10.811
492.83	10.848
493.17	10.885
493.51	10.935
493.86	11.006
494.20	11.068
494.54	11.159
494.88	11.212
495.23	11.287
495.57	11.343
495.91	11.413
496.25	11.474
496.60	11.520
496.94	11.597
497.28	11.677
497.62	11.746
497.97	11.839
498.31	11.911
498.65	11.987
498.99	12.088
499.33	12.194
499.68	12.290
500.02	12.394
500.36	12.506
500.70	12.607
501.04	12.695
501.39	12.778
501.73	12.892
502.07	12.988
502.41	13.101
502.75	13.192
503.09	13.304
503.44	13.420
503.78	13.514
504.12	13.635
504.46	13.745
504.80	13.873
505.14	13.991
505.49	14.081
505.83	14.185
506.17	14.278
506.51	14.369
506.85	14.442
507.19	14.523
507.53	14.623
507.87	14.695
508.22	14.785
508.56	14.874
508.90	14.966
509.24	15.057
509.58	15.158
509.92	15.255
510.26	15.350
510.60	15.469
510.94	15.564
511.28	15.650
511.63	15.782
511.97	15.870
512.31	15.964
512.65	16.071
512.99	16.169
513.33	16.277
513.67	16.410
514.01	16.543
514.35	16.636
514.69	16.743
515.03	16.852
515.37	16.920
515.71	17.018
516.05	17.097
516.39	17.159
516.73	17.230
517.07	17.331
517.41	17.393
517.75	17.430
518.09	17.504
518.43	17.565
518.77	17.645
519.11	17.734
519.45	17.811
519.79	17.897
520.13	17.994
520.47	18.078
520.81	18.118
521.15	18.192
521.49	18.310
521.83	18.374
522.17	18.460
522.51	18.517
522.85	18.583
523.19	18.718
523.53	18.865
523.87	18.993
524.21	19.168
524.55	19.328
524.89	19.458
525.23	19.577
525.57	19.696
525.91	19.804
526.25	19.914
526.58	20.010
526.92	20.068
527.26	20.096
527.60	20.130
527.94	20.119
528.28	20.105
528.62	20.095
528.96	20.069
529.30	20.055
529.64	20.031
529.97	19.994
530.31	19.967
530.65	19.936
530.99	19.947
531.33	19.963
531.67	20.005
532.01	20.027
532.35	20.042
532.68	20.062
533.02	20.075
533.36	20.097
533.70	20.127
534.04	20.143
534.38	20.164
534.71	20.191
535.05	20.195
535.39	20.194
535.73	20.243
536.07	20.303
536.41	20.387
536.74	20.459
537.08	20.529
537.42	20.593
537.76	20.676
538.10	20.753
538.43	20.811
538.77	20.884
539.11	20.940
539.45	20.980
539.79	21.005
540.12	20.999
540.46	21.000
540.80	20.992
541.14	20.982
541.47	20.964
541.81	20.951
542.15	20.934
542.49	20.919
542.82	20.906
543.16	20.886
543.50	20.869
543.84	20.903
544.17	20.928
544.51	20.963
544.85	21.000
545.18	21.030
545.52	21.054
545.86	21.064
546.20	21.082
546.53	21.096
546.87	21.110
547.21	21.148
547.54	21.175
547.88	21.203
548.22	21.212
548.55	21.234
548.89	21.270
549.23	21.308
549.56	21.335
549.90	21.388
550.24	21.439
550.57	21.480
550.91	21.495
551.25	21.492
551.58	21.490
551.92	21.535
552.26	21.532
552.59	21.550
552.93	21.570
553.27	21.627
553.60	21.646
553.94	21.673
554.27	21.710
554.61	21.758
554.95	21.791
555.28	21.835
555.62	21.866
555.95	21.934
556.29	21.932
556.63	21.957
556.96	21.951
557.30	21.954
557.63	21.962
557.97	21.984
558.31	22.003
558.64	22.013
558.98	22.024
559.31	22.043
559.65	22.058
559.98	22.073
560.32	22.076
560.65	22.091
560.99	22.104
561.33	22.143
561.66	22.149
562.00	22.162
562.33	22.171
562.67	22.186
563.00	22.189
563.34	22.174
563.67	22.204
564.01	22.179
564.34	22.171
564.68	22.179
565.01	22.151
565.35	22.138
565.68	22.134
566.02	22.137
566.35	22.140
566.69	22.134
567.02	22.151
567.36	22.161
567.69	22.200
568.03	22.225
568.36	22.228
568.69	22.239
569.03	22.250
569.36	22.250
569.70	22.250
570.03	22.262
570.37	22.250
570.70	22.257
571.04	22.248
571.37	22.245
571.70	22.257
572.04	22.271
572.37	22.276
572.71	22.281
573.04	22.300
573.37	22.315
573.71	22.317
574.04	22.343
574.38	22.365
574.71	22.378
575.04	22.413
575.38	22.419
575.71	22.433
576.05	22.471
576.38	22.497
576.71	22.522
577.05	22.525
577.38	22.565
577.71	22.578
578.05	22.564
578.38	22.586
578.71	22.586
579.05	22.583
579.38	22.595
579.71	22.562
580.05	22.571
580.38	22.590
580.71	22.622
581.05	22.607
581.38	22.581
581.71	22.607
582.05	22.589
582.38	22.589
582.71	22.618
583.04	22.614
583.38	22.659
583.71	22.643
584.04	22.631
584.38	22.614
584.71	22.590
585.04	22.614
585.37	22.594
585.71	22.584
586.04	22.570
586.37	22.540
586.70	22.519
587.04	22.469
587.37	22.444
587.70	22.416
588.03	22.406
588.37	22.414
588.70	22.369
589.03	22.375
589.36	22.387
589.69	22.350
590.03	22.319
590.36	22.278
590.69	22.286
591.02	22.289
591.35	22.229
591.69	22.188
592.02	22.136
592.35	22.118
592.68	22.092
593.01	22.023
593.35	22.004
593.68	21.982
594.01	21.949
594.34	21.920
594.67	21.926
595.00	21.934
595.34	21.913
595.67	21.919
596.00	21.915
596.33	21.869
596.66	21.874
596.99	21.861
597.32	21.842
597.65	21.880
597.99	21.856
598.32	21.791
598.65	21.773
598.98	21.765
599.31	21.735
599.64	21.693
599.97	21.654
600.30	21.613
600.63	21.545
600.96	21.522
601.30	21.461
601.63	21.394
601.96	21.352
602.29	21.290
602.62	21.261
602.95	21.216
603.28	21.218
603.61	21.231
603.94	21.212
604.27	21.234
604.60	21.212
604.93	21.196
605.26	21.213
605.59	21.215
605.92	21.243
606.25	21.194
606.58	21.206
606.91	21.181
607.24	21.137
607.57	21.083
607.90	21.054
608.23	21.018
608.56	21.003
608.89	20.983
609.22	20.936
609.55	20.895
609.88	20.910
610.21	20.879
610.54	20.858
610.87	20.816
611.20	20.832
611.53	20.797
611.86	20.787
612.19	20.771
612.52	20.711
612.85	20.711
613.18	20.688
613.51	20.667
613.84	20.599
614.17	20.560
614.49	20.540
614.82	20.514
615.15	20.514
615.48	20.478
615.81	20.451
616.14	20.451
616.47	20.437
616.80	20.403
617.13	20.388
617.46	20.369
617.78	20.314
618.11	20.283
618.44	20.249
618.77	20.221
619.10	20.206
619.43	20.159
619.76	20.160
620.09	20.066
620.41	20.054
620.74	19.992
621.07	19.970
621.40	19.965
621.73	19.990
622.06	19.976
622.38	19.961
622.71	19.912
623.04	19.883
623.37	19.842
623.70	19.889
624.02	19.854
624.35	19.866
624.68	19.835
625.01	19.842
625.34	19.780
625.66	19.758
625.99	19.723
626.32	19.750
626.65	19.750
626.98	19.713
627.30	19.686
627.63	19.662
627.96	19.642
628.29	19.629
628.61	19.578
628.94	19.575
629.27	19.554
629.60	19.547
629.92	19.501
630.25	19.479
630.58	19.429
630.91	19.393
631.23	19.366
631.56	19.309
631.89	19.317
632.21	19.284
632.54	19.218
632.87	19.189
633.19	19.131
633.52	19.107
633.85	19.067
634.18	19.069
634.50	19.011
634.83	18.986
635.16	18.985
635.48	18.907
635.81	18.888
636.14	18.900
636.46	18.857
636.79	18.858
637.11	18.824
637.44	18.805
637.77	18.819
638.09	18.792
638.42	18.768
638.75	18.742
639.07	18.748
639.40	18.694
639.73	18.658
640.05	18.692
640.38	18.657
640.70	18.629
641.03	18.627
641.36	18.554
641.68	18.535
642.01	18.520
642.33	18.478
642.66	18.441
642.98	18.426
643.31	18.391
643.64	18.277
643.96	18.225
644.29	18.197
644.61	18.170
644.94	18.160
645.26	18.140
645.59	18.134
645.91	18.135
646.24	18.119
646.56	18.123
646.89	18.076
647.22	18.123
647.54	18.149
647.87	18.116
648.19	18.086
648.52	18.060
648.84	18.080
649.17	18.000
649.49	17.936
649.82	17.919
650.14	17.887
650.47	17.880
650.79	17.816
651.11	17.774
651.44	17.783
651.76	17.730
652.09	17.696
652.41	17.637
652.74	17.640
653.06	17.566
653.39	17.550
653.71	17.523
654.04	17.560
654.36	17.567
654.68	17.528
655.01	17.467
655.33	17.441
655.66	17.407
655.98	17.323
656.30	17.280
656.63	17.289
656.95	17.232
657.28	17.192
657.60	17.107
657.92	17.017
658.25	16.965
658.57	16.943
658.90	16.912
659.22	16.899
659.54	16.915
659.87	16.858
660.19	16.811
660.51	16.823
660.84	16.823
661.16	16.785
661.48	16.774
661.81	16.725
662.13	16.702
662.45	16.619
662.78	16.561
663.10	16.548
663.42	16.613
663.75	16.616
664.07	16.552
664.39	16.460
664.72	16.436
665.04	16.418
665.36	16.416
665.69	16.358
666.01	16.387
666.33	16.444
666.65	16.462
666.98	16.397
667.30	16.343
667.62	16.272
667.94	16.285
668.27	16.297
668.59	16.302
668.91	16.269
669.23	16.282
669.56	16.273
669.88	16.216
670.20	16.070
670.52	15.988
670.85	16.050
671.17	16.103
671.49	16.122
671.81	16.088
672.13	16.020
672.46	16.060
672.78	15.958
673.10	15.895
673.42	15.877
673.74	15.969
674.07	16.043
674.39	16.005
674.71	15.960
675.03	15.930
675.35	15.892
675.67	15.900
676.00	15.877
676.32	15.951
676.64	15.974
676.96	15.936
677.28	15.927
677.60	15.913
677.92	15.904
678.25	15.909
678.57	15.849
678.89	15.835
679.21	15.844
679.53	15.881
679.85	15.847
680.17	15.847
680.49	15.795
680.81	15.804
681.13	15.793
681.46	15.768
681.78	15.825
682.10	15.864
682.42	15.905
682.74	15.929
683.06	15.830
683.38	15.852
683.70	15.893
684.02	15.941
684.34	15.862
684.66	15.891
684.98	15.869
685.30	15.847
685.62	15.875
685.94	15.855
686.26	15.820
686.58	15.869
686.90	15.880
687.22	15.810
687.54	15.800
687.86	15.796
688.18	15.716
688.50	15.737
688.82	15.646
689.14	15.507
689.46	15.433
689.78	15.354
690.10	15.286
690.42	15.206
690.74	15.170
691.06	15.129
691.38	15.105
691.70	15.039
692.02	14.962
692.34	14.985
692.66	14.970
692.98	14.987
693.30	15.076
693.62	15.018
693.94	15.017
694.26	15.029
694.57	14.996
694.89	15.021
695.21	15.100
695.53	15.052
695.85	15.020
696.17	15.066
696.49	15.024
696.81	14.985
697.13	14.984
697.44	15.039
697.76	14.971
698.08	14.987
698.40	14.936
698.72	14.837
699.04	14.816
699.36	14.748
699.67	14.637
699.99	14.563
700.31	14.476
700.63	14.435
700.95	14.269
701.27	14.176
701.58	14.118
701.90	13.987
702.22	13.995
702.54	13.884
702.86	13.904
703.17	13.867
703.49	13.895
703.81	13.811
704.13	13.687
704.45	13.672
704.76	13.711
705.08	13.653
705.40	13.671
705.72	13.558
706.03	13.657
706.35	13.645
706.67	13.655
706.99	13.637
707.30	13.719
707.62	13.867
707.94	13.870
708.26	13.844
708.57	13.845
708.89	13.884
709.21	13.947
709.53	14.001
709.84	13.914
710.16	14.014
710.48	14.111
710.79	14.028
711.11	13.953
711.43	13.968
711.74	13.929
712.06	13.900
712.38	13.893
712.69	13.893
713.01	13.832
713.33	13.930
713.64	13.910
713.96	13.834
714.28	13.969
714.59	14.010
714.91	14.106
715.23	14.221
715.54	14.305
715.86	14.419
716.17	14.512
716.49	14.583
716.81	14.590
717.12	14.534
717.44	14.531
717.76	14.509
718.07	14.561
718.39	14.403
718.70	14.396
719.02	14.422
719.33	14.312
719.65	14.159
719.97	14.083
720.28	14.037
720.60	14.039
720.91	14.102
721.23	14.009
721.54	13.957
721.86	14.060
722.17	13.936
722.49	13.826
722.81	13.821
723.12	13.867
723.44	13.877
723.75	13.921
724.07	13.952
724.38	13.948
724.70	13.970
725.01	13.993
725.33	13.956
725.64	14.119
725.96	14.139
726.27	14.112
726.59	14.165
726.90	14.290
727.22	14.239
727.53	14.282
727.84	14.246
728.16	14.166
728.47	14.119
728.79	14.073
729.10	13.959
729.42	13.941
729.73	13.886
730.05	13.795
730.36	13.645
730.67	13.591
730.99	13.481
731.30	13.434
731.62	13.380
731.93	13.410
732.24	13.259
732.56	13.185
732.87	13.045
733.19	13.005
733.50	12.967
733.81	12.775
734.13	12.703
734.44	12.622
734.76	12.575
735.07	12.585
735.38	12.367
735.70	12.299
736.01	12.275
736.32	12.407
736.64	12.498
736.95	12.459
737.26	12.452
737.58	12.377
737.89	12.400
738.20	12.304
738.52	12.280
738.83	12.287
739.14	12.310
739.45	12.366
739.77	12.221
740.08	12.052
740.39	11.955
740.71	11.975
741.02	12.096
741.33	12.134
741.64	12.004
741.96	11.912
742.27	11.812
742.58	11.748
742.90	11.620
743.21	11.615
743.52	11.563
743.83	11.790
744.14	11.801
744.46	11.513
744.77	11.378
745.08	11.572
745.39	11.493
745.71	11.521
746.02	11.666
746.33	11.597
746.64	11.549
746.95	11.634
747.27	11.555
747.58	11.530
747.89	11.520
748.20	11.260
748.51	11.207
748.82	11.335
749.14	11.347
749.45	11.346
749.76	11.368
750.07	11.326
750.38	11.234
750.69	11.236
751.01	11.249
751.32	11.522
751.63	11.850
751.94	11.781
752.25	11.799
752.56	11.825
752.87	11.815
753.18	11.801
753.49	11.854
753.81	11.975
754.12	11.880
754.43	11.963
754.74	11.985
755.05	12.021
755.36	12.198
755.67	12.353
755.98	12.460
756.29	12.603
756.60	12.854
756.91	13.169
757.22	13.497
757.53	13.662
757.84	13.987
758.15	14.190
758.46	14.572
758.77	14.781
759.09	15.133
759.40	15.364
759.71	15.594
760.02	15.734
760.33	15.739
760.64	15.794
760.95	15.909
761.26	15.890
761.57	15.952
761.88	15.806
762.18	15.848
762.49	15.681
762.80	15.608
763.11	15.496
763.42	15.347
763.73	15.256
764.04	14.999
764.35	14.746
764.66	14.459
764.97	14.192
765.28	13.969
765.59	13.603
765.90	13.284
766.21	13.052
766.52	12.589
766.83	12.439
767.14	12.208
767.44	12.076
767.75	12.034
768.06	12.056
768.37	11.829
768.68	11.867
768.99	11.648
769.30	11.545
769.61	11.360
769.91	11.403
770.22	11.178
770.53	11.002
770.84	10.862
771.15	10.902
771.46	10.883
771.77	10.777
772.07	10.556
772.38	10.537
772.69	10.305
773.00	10.161
773.31	10.459
773.61	10.701
773.92	10.714
774.23	10.798
774.54	10.612
774.85	10.300
775.15	10.310
775.46	10.422
775.77	10.362
776.08	10.477
776.39	10.487
776.69	10.094
777.00	9.893
777.31	9.925
777.62	9.816
777.92	9.748
778.23	9.884
778.54	9.709
778.85	9.725
779.15	10.016
779.46	10.188
779.77	10.572
780.07	10.517
780.38	10.553
780.69	10.728
781.00	10.809
781.30	10.713
781.61	10.758
781.92	11.066
782.22	10.900
782.53	10.710
782.84	10.752
783.14	10.493
783.45	10.761
783.76	10.881
784.06	10.815
784.37	11.070
784.68	11.541
784.98	11.748
785.29	12.024
785.60	12.147
785.90	12.479
786.21	12.369
786.51	12.486
786.82	12.430
787.13	12.664
787.43	12.801
787.74	12.767
788.04	12.700
788.35	12.481
788.66	12.356
788.96	12.445
789.27	12.647
789.57	12.889
789.88	12.852
790.19	13.065
790.49	12.774
790.80	12.838
791.10	12.871
791.41	12.792
791.71	12.966
792.02	13.051
792.32	13.056
792.63	12.789
792.93	12.690
793.24	12.513
793.54	12.416
793.85	12.772
794.15	12.830
794.46	12.558
794.76	12.647
795.07	12.466
795.37	12.341
795.68	12.269
795.98	12.282
796.29	12.698
796.59	12.904
796.90	12.780
797.20	12.673
797.51	12.558
797.81	12.868
798.12	13.075
798.42	13.091
798.72	12.966
799.03	13.014
799.33	12.779
799.64	12.290
799.94	12.368
800.25	12.725
800.55	12.802
800.85	12.548
801.16	12.416
801.46	12.131
801.77	12.320
802.07	12.306
802.37	12.141
802.68	12.226
802.98	12.153
803.28	12.041
803.59	11.794
803.89	11.829
804.20	12.257
804.50	12.095
804.80	11.656
805.11	11.788
805.41	11.892
805.71	12.253
806.02	12.506
806.32	12.796
806.62	13.016
806.93	13.072
807.23	12.994
807.53	12.522
807.83	12.672
808.14	13.235
808.44	13.229
808.74	13.618
809.05	13.792
809.35	13.721
809.65	13.583
809.95	13.634
810.26	13.627
810.56	13.486
810.86	13.689
811.16	13.565
811.47	13.524
811.77	13.695
812.07	13.532
812.37	13.159
812.68	13.328
812.98	13.730
813.28	13.864
813.58	13.787
813.88	13.823
814.19	14.083
814.49	14.322
814.79	14.438
815.09	14.437
815.39	14.977
815.70	15.100
816.00	15.204
816.30	14.805
816.60	15.050
816.90	15.706
817.20	16.136
817.50	16.535
817.81	16.933
818.11	17.253
818.41	17.377
818.71	17.336
819.01	17.507
819.31	17.639
819.61	17.891
819.92	17.772
820.22	17.761
820.52	17.808
820.82	17.793
821.12	17.731
821.42	17.715
821.72	17.710
822.02	17.648
822.32	17.569
822.62	17.510
822.92	17.345
823.22	17.341
823.52	17.331
823.83	17.123
824.13	17.091
824.43	17.002
824.73	16.878
825.03	16.787
825.33	16.849
825.63	16.936
825.93	16.843
826.23	16.895
826.53	16.809
826.83	16.661
827.13	16.648
827.43	16.482
827.73	16.637
828.03	16.468
828.33	16.487
828.63	16.447
828.93	16.245
829.23	16.158
829.53	16.055
829.83	16.175
830.13	16.294
830.42	16.457
830.72	16.733
831.02	16.413
831.32	16.674
831.62	16.403
831.92	16.520
832.22	16.704
832.52	16.800
832.82	17.160
833.12	17.288
833.42	17.225
833.72	17.431
834.01	17.184
834.31	17.189
834.61	17.172
834.91	17.380
835.21	17.165
835.51	16.982
835.81	16.960
836.11	16.489
836.40	16.063
836.70	15.799
837.00	15.430
837.30	15.569
837.60	16.129
837.90	16.222
838.19	15.872
838.49	15.609
838.79	15.398
839.09	15.184
839.39	15.167
839.68	15.605
839.98	15.665
840.28	15.267
840.58	15.098
840.88	14.466
841.17	14.023
841.47	14.125
841.77	14.083
842.07	13.840
842.36	13.899
842.66	13.348
842.96	13.496
843.26	12.889
843.55	13.011
843.85	12.872
844.15	11.931
844.45	12.182
844.74	12.232
845.04	12.306
845.34	12.846
845.63	12.306
845.93	11.647
846.23	9.379
846.53	9.907
846.82	9.733
847.12	9.708
847.42	9.664
847.71	8.968
848.01	9.851
848.31	9.526
848.60	9.312
848.90	7.649
849.19	9.381
849.49	10.859
849.79	10.944
850.08	12.101
850.38	11.265
850.68	11.696
850.97	11.934
851.27	10.987
851.56	10.552
851.86	9.191
852.16	11.896
852.45	12.563
852.75	11.696
853.04	11.149
853.34	10.589
853.64	10.490
853.93	10.752
854.23	11.117
854.52	10.465
854.82	11.496
855.11	12.014
855.41	9.986
855.70	7.415
856.00	8.159
856.30	8.800
856.59	7.901
856.89	9.306
857.18	9.477
857.48	9.132
857.77	9.095
858.07	7.000
858.36	7.732
858.66	8.602
858.95	9.804
859.25	9.651
859.54	8.334
859.84	8.814
860.13	6.438
860.42	6.473
860.72	7.155
861.01	7.645
861.31	8.334
861.60	8.194
861.90	6.890
862.19	6.876
862.49	5.894
862.78	7.484
863.07	7.221
863.37	6.847
863.66	5.444
863.96	3.850
864.25	3.354
864.54	5.267
864.84	4.472
865.13	5.986
865.43	4.031
865.72	5.789
866.01	20.297
866.31	2.527
866.60	9.929
866.89	-9.576
>>>>>End Spectral Data<<<<<
