OOIBase32 Version 2.0.0.6 Data File
++++++++++++++++++++++++++++++++++++
Date: 01-22-2012, 20:59:34
User: Valued Ocean Optics Customer
Spectrometer Serial Number: USB2E2917
Spectrometer Channel: Master
Integration Time (msec): 4
Spectra Averaged: 10
Boxcar Smoothing: 5
Correct for Electrical Dark: Enabled
Time Normalized: Disabled
Dual-beam Reference: Disabled
Reference Channel: Master
Temperature: Not acquired
Spectrometer Type: S2000
ADC Type: USB2000
Number of Pixels in File: 2048
Graph Title: 
>>>>>Begin Spectral Data<<<<<
180.30	0.000
180.67	0.000
181.03	-202.701
181.40	-25.899
181.77	-203.181
182.14	-79.824
182.51	331.015
182.88	138.880
183.25	-102.164
183.62	53.625
183.99	38.136
184.36	59.568
184.73	-20.411
185.10	844.931
185.46	10.682
185.83	149.692
186.20	-109.394
186.57	114.970
186.94	100.764
187.31	-73.491
187.68	148.131
188.05	-443.656
188.42	-127.616
188.78	192.668
189.15	125.557
189.52	86.519
189.89	71.802
190.26	65.284
190.63	72.580
191.00	77.808
191.37	93.974
191.73	99.363
192.10	68.825
192.47	46.061
192.84	5.132
193.21	-96.338
193.58	-79.590
193.94	-91.278
194.31	-25.920
194.68	-26.514
195.05	-34.512
195.42	-26.739
195.79	-23.485
196.15	5.823
196.52	5.779
196.89	16.401
197.26	13.467
197.63	-4.740
198.00	21.870
198.36	36.681
198.73	127.745
199.10	47.259
199.47	19.198
199.84	32.963
200.20	34.979
200.57	37.517
200.94	43.667
201.31	51.725
201.68	58.134
202.04	52.101
202.41	44.247
202.78	42.002
203.15	54.166
203.51	57.030
203.88	54.569
204.25	44.058
204.62	45.103
204.98	42.448
205.35	36.516
205.72	41.027
206.09	-5.254
206.46	9.273
206.82	-8.198
207.19	-29.071
207.56	-38.902
207.92	-11.786
208.29	1.699
208.66	-0.591
209.03	-21.779
209.39	-9.251
209.76	-24.808
210.13	4.458
210.50	-0.948
210.86	-23.702
211.23	-64.790
211.60	-99.284
211.96	-140.101
212.33	-268.702
212.70	9667.048
213.07	879.548
213.43	717.012
213.80	2058.268
214.17	394.533
214.53	2146.744
214.90	-248.558
215.27	-99.226
215.63	-100.420
216.00	-43.377
216.37	-4.116
216.74	-7.718
217.10	-10.874
217.47	-11.094
217.84	1.442
218.20	3.565
218.57	13.882
218.94	4.428
219.30	0.009
219.67	7.054
220.04	6.031
220.40	10.354
220.77	29.229
221.13	39.569
221.50	39.134
221.87	31.758
222.23	39.874
222.60	33.189
222.97	28.248
223.33	20.753
223.70	9.776
224.07	9.218
224.43	3.765
224.80	4.777
225.16	1.262
225.53	-2.506
225.90	-1.592
226.26	-2.252
226.63	-1.526
226.99	-1.456
227.36	2.673
227.73	2.836
228.09	2.839
228.46	4.082
228.82	2.344
229.19	4.232
229.56	4.231
229.92	5.459
230.29	5.553
230.65	6.914
231.02	5.818
231.38	5.506
231.75	6.938
232.12	7.401
232.48	5.354
232.85	6.967
233.21	7.176
233.58	7.894
233.94	6.724
234.31	6.922
234.68	5.592
235.04	7.476
235.41	6.498
235.77	4.330
236.14	4.535
236.50	7.731
236.87	7.980
237.23	7.790
237.60	7.125
237.96	6.770
238.33	5.817
238.69	5.543
239.06	4.473
239.42	4.175
239.79	4.977
240.15	4.765
240.52	4.001
240.88	3.001
241.25	2.224
241.61	2.038
241.98	2.323
242.34	2.126
242.71	2.290
243.07	3.099
243.44	3.272
243.80	3.452
244.17	2.963
244.53	2.378
244.90	2.999
245.26	3.347
245.63	3.610
245.99	3.648
246.36	3.863
246.72	3.446
247.09	2.914
247.45	2.901
247.81	2.869
248.18	3.235
248.54	3.544
248.91	3.133
249.27	2.441
249.64	2.638
250.00	3.053
250.36	3.554
250.73	3.861
251.09	3.490
251.46	2.839
251.82	3.182
252.19	3.102
252.55	3.074
252.91	3.476
253.28	3.698
253.64	3.212
254.01	2.612
254.37	2.123
254.73	2.165
255.10	2.838
255.46	3.635
255.83	3.414
256.19	3.339
256.55	3.547
256.92	3.263
257.28	3.382
257.65	3.344
258.01	3.136
258.37	3.065
258.74	2.940
259.10	3.054
259.46	2.844
259.83	2.770
260.19	2.867
260.55	2.676
260.92	2.614
261.28	2.417
261.64	2.435
262.01	2.381
262.37	2.181
262.73	2.279
263.10	1.873
263.46	2.299
263.82	2.108
264.19	1.496
264.55	1.727
264.91	1.765
265.28	2.106
265.64	1.941
266.00	1.967
266.37	2.489
266.73	2.802
267.09	2.888
267.46	2.168
267.82	2.456
268.18	2.858
268.54	2.709
268.91	3.070
269.27	3.006
269.63	3.126
270.00	3.250
270.36	2.930
270.72	2.836
271.08	2.916
271.45	3.380
271.81	3.394
272.17	3.610
272.53	3.814
272.90	3.636
273.26	3.535
273.62	3.661
273.98	3.932
274.35	4.012
274.71	3.763
275.07	3.677
275.43	3.644
275.80	3.408
276.16	3.227
276.52	2.971
276.88	3.219
277.25	2.978
277.61	2.877
277.97	2.307
278.33	2.223
278.69	2.395
279.06	2.281
279.42	2.217
279.78	2.246
280.14	1.858
280.50	1.990
280.87	1.784
281.23	1.900
281.59	2.008
281.95	2.151
282.31	2.153
282.68	2.199
283.04	2.159
283.40	2.020
283.76	2.022
284.12	2.320
284.48	2.233
284.85	2.154
285.21	2.308
285.57	2.209
285.93	2.339
286.29	2.233
286.65	2.184
287.02	2.571
287.38	2.680
287.74	2.751
288.10	2.572
288.46	2.475
288.82	2.471
289.18	2.246
289.54	2.146
289.91	2.088
290.27	2.193
290.63	2.213
290.99	1.980
291.35	1.953
291.71	1.626
292.07	1.706
292.43	1.842
292.79	2.026
293.16	2.425
293.52	2.566
293.88	2.515
294.24	2.574
294.60	2.670
294.96	2.708
295.32	2.827
295.68	2.963
296.04	3.031
296.40	3.048
296.76	2.931
297.12	2.871
297.49	2.881
297.85	3.158
298.21	3.218
298.57	3.127
298.93	3.360
299.29	3.377
299.65	3.564
300.01	3.622
300.37	3.840
300.73	4.035
301.09	3.974
301.45	4.048
301.81	3.907
302.17	3.884
302.53	3.850
302.89	3.734
303.25	3.639
303.61	3.486
303.97	3.599
304.33	3.489
304.69	3.566
305.05	3.699
305.41	3.752
305.77	3.770
306.13	3.807
306.49	3.919
306.85	3.987
307.21	3.996
307.57	4.037
307.93	3.943
308.29	3.986
308.65	3.677
309.01	3.565
309.37	3.531
309.73	3.598
310.09	3.564
310.45	3.516
310.81	3.452
311.17	3.476
311.53	3.549
311.89	3.652
312.25	3.559
312.61	3.786
312.96	3.936
313.32	3.978
313.68	3.831
314.04	3.971
314.40	4.059
314.76	4.091
315.12	4.219
315.48	4.297
315.84	3.975
316.20	3.964
316.56	4.079
316.92	3.953
317.27	3.981
317.63	4.027
317.99	4.024
318.35	4.220
318.71	4.298
319.07	4.389
319.43	4.314
319.79	4.591
320.15	4.719
320.50	4.748
320.86	4.997
321.22	5.200
321.58	5.328
321.94	5.413
322.30	5.527
322.66	5.666
323.01	5.683
323.37	6.097
323.73	6.110
324.09	6.486
324.45	6.651
324.81	6.956
325.17	7.164
325.52	7.342
325.88	7.445
326.24	7.392
326.60	7.474
326.96	7.726
327.31	7.620
327.67	7.934
328.03	7.933
328.39	8.017
328.75	7.942
329.11	7.990
329.46	8.216
329.82	8.313
330.18	8.585
330.54	8.752
330.90	8.864
331.25	9.011
331.61	9.073
331.97	9.149
332.33	9.252
332.68	9.417
333.04	9.365
333.40	9.359
333.76	9.572
334.11	9.628
334.47	9.744
334.83	9.767
335.19	9.865
335.54	9.857
335.90	9.783
336.26	9.765
336.62	9.750
336.97	9.753
337.33	9.870
337.69	9.795
338.05	9.725
338.40	9.651
338.76	9.727
339.12	9.669
339.48	9.629
339.83	9.786
340.19	9.871
340.55	9.877
340.90	9.974
341.26	9.858
341.62	9.765
341.97	9.832
342.33	9.869
342.69	9.736
343.04	9.651
343.40	9.716
343.76	9.654
344.12	9.623
344.47	9.497
344.83	9.463
345.19	9.553
345.54	9.672
345.90	9.578
346.26	9.520
346.61	9.477
346.97	9.627
347.32	9.600
347.68	9.583
348.04	9.484
348.39	9.632
348.75	9.631
349.11	9.560
349.46	9.596
349.82	9.681
350.18	9.624
350.53	9.749
350.89	9.649
351.24	9.664
351.60	9.628
351.96	9.758
352.31	9.660
352.67	9.636
353.02	9.718
353.38	9.668
353.74	9.613
354.09	9.694
354.45	9.642
354.80	9.655
355.16	9.730
355.52	9.756
355.87	9.597
356.23	9.655
356.58	9.651
356.94	9.625
357.29	9.615
357.65	9.616
358.00	9.573
358.36	9.580
358.72	9.539
359.07	9.488
359.43	9.479
359.78	9.552
360.14	9.535
360.49	9.622
360.85	9.549
361.20	9.558
361.56	9.548
361.91	9.629
362.27	9.666
362.62	9.774
362.98	9.861
363.33	9.918
363.69	10.013
364.04	10.011
364.40	9.992
364.75	10.008
365.11	10.048
365.46	10.082
365.82	9.994
366.17	9.966
366.53	9.956
366.88	9.915
367.24	9.893
367.59	9.825
367.95	9.828
368.30	9.827
368.66	9.924
369.01	10.005
369.37	10.061
369.72	10.136
370.08	10.192
370.43	10.207
370.78	10.241
371.14	10.310
371.49	10.390
371.85	10.446
372.20	10.497
372.56	10.527
372.91	10.500
373.26	10.536
373.62	10.586
373.97	10.636
374.33	10.652
374.68	10.738
375.03	10.746
375.39	10.733
375.74	10.795
376.10	10.841
376.45	10.893
376.80	10.976
377.16	11.013
377.51	11.056
377.87	11.146
378.22	11.243
378.57	11.264
378.93	11.335
379.28	11.417
379.63	11.523
379.99	11.572
380.34	11.612
380.70	11.673
381.05	11.776
381.40	11.798
381.76	11.813
382.11	11.869
382.46	11.913
382.82	11.970
383.17	12.013
383.52	12.037
383.88	12.082
384.23	12.155
384.58	12.175
384.94	12.233
385.29	12.386
385.64	12.462
385.99	12.513
386.35	12.587
386.70	12.672
387.05	12.780
387.41	12.863
387.76	12.918
388.11	12.912
388.47	12.949
388.82	12.949
389.17	12.960
389.52	12.978
389.88	13.052
390.23	13.083
390.58	13.069
390.93	13.115
391.29	13.161
391.64	13.232
391.99	13.315
392.34	13.389
392.70	13.436
393.05	13.457
393.40	13.490
393.75	13.527
394.11	13.553
394.46	13.619
394.81	13.637
395.16	13.632
395.52	13.662
395.87	13.687
396.22	13.727
396.57	13.751
396.92	13.789
397.28	13.829
397.63	13.785
397.98	13.826
398.33	13.890
398.68	13.901
399.04	13.897
399.39	13.883
399.74	13.921
400.09	13.944
400.44	13.958
400.80	13.970
401.15	13.959
401.50	14.018
401.85	14.008
402.20	13.968
402.55	13.957
402.90	14.012
403.26	14.034
403.61	14.025
403.96	14.005
404.31	14.018
404.66	14.054
405.01	14.055
405.36	14.042
405.72	14.084
406.07	14.094
406.42	14.150
406.77	14.130
407.12	14.142
407.47	14.141
407.82	14.134
408.17	14.108
408.53	14.096
408.88	14.113
409.23	14.124
409.58	14.141
409.93	14.170
410.28	14.152
410.63	14.146
410.98	14.123
411.33	14.131
411.68	14.155
412.03	14.153
412.38	14.123
412.73	14.083
413.09	14.043
413.44	14.026
413.79	13.986
414.14	13.989
414.49	13.914
414.84	13.896
415.19	13.850
415.54	13.809
415.89	13.771
416.24	13.751
416.59	13.737
416.94	13.719
417.29	13.648
417.64	13.608
417.99	13.561
418.34	13.569
418.69	13.523
419.04	13.502
419.39	13.498
419.74	13.497
420.09	13.468
420.44	13.458
420.79	13.434
421.14	13.429
421.49	13.427
421.84	13.406
422.19	13.395
422.54	13.398
422.89	13.387
423.24	13.353
423.59	13.345
423.94	13.362
424.29	13.363
424.64	13.403
424.99	13.451
425.34	13.483
425.68	13.528
426.03	13.573
426.38	13.615
426.73	13.657
427.08	13.685
427.43	13.699
427.78	13.688
428.13	13.689
428.48	13.674
428.83	13.675
429.18	13.674
429.53	13.696
429.87	13.677
430.22	13.684
430.57	13.692
430.92	13.683
431.27	13.689
431.62	13.694
431.97	13.705
432.32	13.702
432.67	13.691
433.01	13.696
433.36	13.668
433.71	13.680
434.06	13.689
434.41	13.680
434.76	13.707
435.11	13.730
435.45	13.756
435.80	13.751
436.15	13.755
436.50	13.718
436.85	13.719
437.20	13.716
437.54	13.699
437.89	13.685
438.24	13.683
438.59	13.666
438.94	13.629
439.29	13.593
439.63	13.586
439.98	13.554
440.33	13.563
440.68	13.541
441.03	13.530
441.37	13.526
441.72	13.522
442.07	13.514
442.42	13.520
442.76	13.536
443.11	13.524
443.46	13.504
443.81	13.524
444.16	13.524
444.50	13.517
444.85	13.505
445.20	13.507
445.55	13.487
445.89	13.483
446.24	13.478
446.59	13.468
446.94	13.475
447.28	13.489
447.63	13.462
447.98	13.462
448.32	13.476
448.67	13.471
449.02	13.462
449.37	13.467
449.71	13.482
450.06	13.497
450.41	13.516
450.75	13.537
451.10	13.537
451.45	13.569
451.79	13.566
452.14	13.584
452.49	13.585
452.84	13.571
453.18	13.588
453.53	13.602
453.88	13.595
454.22	13.602
454.57	13.608
454.92	13.626
455.26	13.621
455.61	13.626
455.95	13.604
456.30	13.624
456.65	13.643
456.99	13.638
457.34	13.624
457.69	13.647
458.03	13.663
458.38	13.683
458.73	13.694
459.07	13.714
459.42	13.739
459.76	13.763
460.11	13.785
460.46	13.815
460.80	13.832
461.15	13.862
461.49	13.853
461.84	13.854
462.19	13.857
462.53	13.901
462.88	13.943
463.22	13.969
463.57	14.020
463.91	14.064
464.26	14.115
464.61	14.166
464.95	14.216
465.30	14.270
465.64	14.302
465.99	14.353
466.33	14.384
466.68	14.381
467.02	14.419
467.37	14.427
467.71	14.438
468.06	14.436
468.41	14.442
468.75	14.461
469.10	14.484
469.44	14.523
469.79	14.517
470.13	14.500
470.48	14.518
470.82	14.540
471.17	14.556
471.51	14.559
471.86	14.579
472.20	14.591
472.55	14.582
472.89	14.586
473.23	14.562
473.58	14.557
473.92	14.558
474.27	14.565
474.61	14.530
474.96	14.517
475.30	14.532
475.65	14.522
475.99	14.522
476.34	14.507
476.68	14.472
477.02	14.469
477.37	14.463
477.71	14.471
478.06	14.463
478.40	14.486
478.75	14.560
479.09	14.624
479.43	14.698
479.78	14.807
480.12	14.900
480.47	15.031
480.81	15.169
481.15	15.309
481.50	15.465
481.84	15.660
482.19	15.851
482.53	15.975
482.87	15.992
483.22	15.902
483.56	15.704
483.90	15.509
484.25	15.354
484.59	15.261
484.94	15.148
485.28	15.004
485.62	14.812
485.97	14.602
486.31	14.436
486.65	14.396
487.00	14.465
487.34	14.635
487.68	14.827
488.03	14.952
488.37	14.964
488.71	14.977
489.06	14.993
489.40	15.013
489.74	15.027
490.09	15.043
490.43	15.040
490.77	15.049
491.11	15.074
491.46	15.113
491.80	15.140
492.14	15.154
492.49	15.199
492.83	15.236
493.17	15.267
493.51	15.312
493.86	15.351
494.20	15.398
494.54	15.469
494.88	15.543
495.23	15.570
495.57	15.596
495.91	15.657
496.25	15.682
496.60	15.717
496.94	15.761
497.28	15.824
497.62	15.865
497.97	15.916
498.31	15.971
498.65	16.013
498.99	16.083
499.33	16.166
499.68	16.235
500.02	16.328
500.36	16.414
500.70	16.468
501.04	16.527
501.39	16.613
501.73	16.714
502.07	16.768
502.41	16.857
502.75	16.920
503.09	16.974
503.44	17.030
503.78	17.085
504.12	17.129
504.46	17.182
504.80	17.232
505.14	17.297
505.49	17.321
505.83	17.375
506.17	17.420
506.51	17.459
506.85	17.493
507.19	17.560
507.53	17.598
507.87	17.683
508.22	17.760
508.56	17.826
508.90	17.861
509.24	17.924
509.58	17.967
509.92	18.004
510.26	18.063
510.60	18.132
510.94	18.184
511.28	18.250
511.63	18.281
511.97	18.332
512.31	18.359
512.65	18.434
512.99	18.491
513.33	18.560
513.67	18.622
514.01	18.682
514.35	18.737
514.69	18.773
515.03	18.817
515.37	18.855
515.71	18.890
516.05	18.924
516.39	18.943
516.73	18.963
517.07	18.995
517.41	19.036
517.75	19.043
518.09	19.060
518.43	19.086
518.77	19.110
519.11	19.122
519.45	19.150
519.79	19.195
520.13	19.230
520.47	19.287
520.81	19.314
521.15	19.337
521.49	19.387
521.83	19.416
522.17	19.444
522.51	19.463
522.85	19.511
523.19	19.581
523.53	19.670
523.87	19.773
524.21	19.858
524.55	19.967
524.89	20.053
525.23	20.133
525.57	20.225
525.91	20.317
526.25	20.384
526.58	20.455
526.92	20.505
527.26	20.549
527.60	20.548
527.94	20.540
528.28	20.517
528.62	20.501
528.96	20.483
529.30	20.452
529.64	20.408
529.97	20.378
530.31	20.337
530.65	20.287
530.99	20.237
531.33	20.238
531.67	20.258
532.01	20.264
532.35	20.277
532.68	20.278
533.02	20.269
533.36	20.270
533.70	20.266
534.04	20.263
534.38	20.270
534.71	20.266
535.05	20.264
535.39	20.229
535.73	20.219
536.07	20.222
536.41	20.245
536.74	20.282
537.08	20.309
537.42	20.354
537.76	20.399
538.10	20.449
538.43	20.492
538.77	20.519
539.11	20.565
539.45	20.605
539.79	20.620
540.12	20.634
540.46	20.636
540.80	20.614
541.14	20.608
541.47	20.591
541.81	20.555
542.15	20.524
542.49	20.515
542.82	20.485
543.16	20.467
543.50	20.444
543.84	20.419
544.17	20.412
544.51	20.448
544.85	20.461
545.18	20.447
545.52	20.454
545.86	20.477
546.20	20.483
546.53	20.522
546.87	20.525
547.21	20.551
547.54	20.583
547.88	20.612
548.22	20.618
548.55	20.615
548.89	20.646
549.23	20.685
549.56	20.681
549.90	20.654
550.24	20.625
550.57	20.619
550.91	20.628
551.25	20.628
551.58	20.625
551.92	20.625
552.26	20.641
552.59	20.634
552.93	20.663
553.27	20.669
553.60	20.677
553.94	20.708
554.27	20.728
554.61	20.726
554.95	20.724
555.28	20.742
555.62	20.721
555.95	20.731
556.29	20.759
556.63	20.727
556.96	20.735
557.30	20.786
557.63	20.764
557.97	20.764
558.31	20.773
558.64	20.780
558.98	20.751
559.31	20.755
559.65	20.695
559.98	20.649
560.32	20.643
560.65	20.646
560.99	20.600
561.33	20.591
561.66	20.554
562.00	20.514
562.33	20.480
562.67	20.440
563.00	20.429
563.34	20.453
563.67	20.440
564.01	20.403
564.34	20.383
564.68	20.373
565.01	20.339
565.35	20.349
565.68	20.332
566.02	20.324
566.35	20.324
566.69	20.307
567.02	20.279
567.36	20.317
567.69	20.282
568.03	20.250
568.36	20.219
568.69	20.216
569.03	20.195
569.36	20.149
569.70	20.128
570.03	20.115
570.37	20.105
570.70	20.088
571.04	20.030
571.37	20.041
571.70	20.021
572.04	20.002
572.37	19.988
572.71	19.963
573.04	19.958
573.37	19.963
573.71	19.956
574.04	19.944
574.38	19.944
574.71	19.944
575.04	19.942
575.38	19.954
575.71	19.965
576.05	19.963
576.38	19.968
576.71	19.968
577.05	19.972
577.38	19.966
577.71	19.954
578.05	19.941
578.38	19.929
578.71	19.885
579.05	19.843
579.38	19.806
579.71	19.805
580.05	19.792
580.38	19.800
580.71	19.739
581.05	19.709
581.38	19.688
581.71	19.702
582.05	19.690
582.38	19.659
582.71	19.651
583.04	19.643
583.38	19.594
583.71	19.550
584.04	19.527
584.38	19.507
584.71	19.467
585.04	19.402
585.37	19.315
585.71	19.263
586.04	19.211
586.37	19.183
586.70	19.137
587.04	19.122
587.37	19.054
587.70	19.003
588.03	18.958
588.37	18.911
588.70	18.879
589.03	18.836
589.36	18.804
589.69	18.786
590.03	18.728
590.36	18.709
590.69	18.629
591.02	18.598
591.35	18.544
591.69	18.507
592.02	18.490
592.35	18.476
592.68	18.401
593.01	18.340
593.35	18.296
593.68	18.225
594.01	18.158
594.34	18.119
594.67	18.050
595.00	17.965
595.34	17.910
595.67	17.824
596.00	17.731
596.33	17.685
596.66	17.613
596.99	17.548
597.32	17.510
597.65	17.435
597.99	17.362
598.32	17.312
598.65	17.283
598.98	17.208
599.31	17.183
599.64	17.183
599.97	17.170
600.30	17.119
600.63	17.069
600.96	17.037
601.30	17.017
601.63	16.978
601.96	16.971
602.29	16.949
602.62	16.910
602.95	16.861
603.28	16.805
603.61	16.738
603.94	16.707
604.27	16.689
604.60	16.623
604.93	16.594
605.26	16.555
605.59	16.487
605.92	16.457
606.25	16.438
606.58	16.427
606.91	16.344
607.24	16.287
607.57	16.265
607.90	16.213
608.23	16.196
608.56	16.111
608.89	16.094
609.22	16.035
609.55	16.000
609.88	15.928
610.21	15.844
610.54	15.815
610.87	15.752
611.20	15.673
611.53	15.599
611.86	15.530
612.19	15.482
612.52	15.390
612.85	15.389
613.18	15.293
613.51	15.234
613.84	15.167
614.17	15.137
614.49	15.146
614.82	15.167
615.15	15.128
615.48	15.098
615.81	15.075
616.14	15.039
616.47	14.977
616.80	14.977
617.13	14.966
617.46	14.921
617.78	14.841
618.11	14.795
618.44	14.707
618.77	14.691
619.10	14.619
619.43	14.555
619.76	14.506
620.09	14.441
620.41	14.347
620.74	14.308
621.07	14.288
621.40	14.304
621.73	14.298
622.06	14.282
622.38	14.248
622.71	14.203
623.04	14.164
623.37	14.165
623.70	14.126
624.02	14.101
624.35	14.081
624.68	14.055
625.01	13.989
625.34	13.932
625.66	13.872
625.99	13.818
626.32	13.813
626.65	13.849
626.98	13.814
627.30	13.792
627.63	13.787
627.96	13.702
628.29	13.632
628.61	13.620
628.94	13.572
629.27	13.534
629.60	13.494
629.92	13.469
630.25	13.345
630.58	13.258
630.91	13.230
631.23	13.159
631.56	13.136
631.89	13.119
632.21	13.086
632.54	13.050
632.87	13.034
633.19	13.047
633.52	12.979
633.85	12.966
634.18	12.940
634.50	12.932
634.83	12.884
635.16	12.847
635.48	12.812
635.81	12.771
636.14	12.720
636.46	12.662
636.79	12.525
637.11	12.488
637.44	12.422
637.77	12.400
638.09	12.309
638.42	12.257
638.75	12.216
639.07	12.162
639.40	12.122
639.73	12.078
640.05	12.017
640.38	12.023
640.70	11.981
641.03	12.001
641.36	11.976
641.68	11.949
642.01	11.952
642.33	11.951
642.66	11.906
642.98	11.908
643.31	11.862
643.64	11.867
643.96	11.859
644.29	11.902
644.61	11.830
644.94	11.832
645.26	11.871
645.59	11.856
645.91	11.859
646.24	11.885
646.56	11.862
646.89	11.869
647.22	11.852
647.54	11.801
647.87	11.745
648.19	11.737
648.52	11.690
648.84	11.608
649.17	11.611
649.49	11.542
649.82	11.477
650.14	11.425
650.47	11.395
650.79	11.379
651.11	11.391
651.44	11.333
651.76	11.368
652.09	11.329
652.41	11.313
652.74	11.244
653.06	11.233
653.39	11.202
653.71	11.200
654.04	11.228
654.36	11.182
654.68	11.212
655.01	11.205
655.33	11.179
655.66	11.148
655.98	11.117
656.30	11.127
656.63	11.087
656.95	11.098
657.28	11.056
657.60	11.032
657.92	10.993
658.25	10.923
658.57	10.879
658.90	10.798
659.22	10.781
659.54	10.712
659.87	10.637
660.19	10.594
660.51	10.521
660.84	10.423
661.16	10.300
661.48	10.295
661.81	10.263
662.13	10.237
662.45	10.234
662.78	10.177
663.10	10.152
663.42	10.141
663.75	10.070
664.07	10.179
664.39	10.184
664.72	10.233
665.04	10.202
665.36	10.178
665.69	10.205
666.01	10.148
666.33	10.165
666.65	10.193
666.98	10.168
667.30	10.241
667.62	10.156
667.94	10.156
668.27	10.119
668.59	10.052
668.91	10.021
669.23	9.961
669.56	9.962
669.88	9.908
670.20	9.834
670.52	9.838
670.85	9.780
671.17	9.691
671.49	9.670
671.81	9.624
672.13	9.605
672.46	9.586
672.78	9.600
673.10	9.556
673.42	9.532
673.74	9.533
674.07	9.485
674.39	9.481
674.71	9.397
675.03	9.378
675.35	9.358
675.67	9.413
676.00	9.424
676.32	9.395
676.64	9.403
676.96	9.479
677.28	9.593
677.60	9.605
677.92	9.582
678.25	9.644
678.57	9.682
678.89	9.716
679.21	9.715
679.53	9.675
679.85	9.711
680.17	9.744
680.49	9.648
680.81	9.541
681.13	9.612
681.46	9.571
681.78	9.617
682.10	9.610
682.42	9.580
682.74	9.558
683.06	9.578
683.38	9.567
683.70	9.574
684.02	9.625
684.34	9.618
684.66	9.591
684.98	9.671
685.30	9.690
685.62	9.749
685.94	9.767
686.26	9.789
686.58	9.785
686.90	9.734
687.22	9.718
687.54	9.743
687.86	9.784
688.18	9.729
688.50	9.636
688.82	9.637
689.14	9.513
689.46	9.469
689.78	9.434
690.10	9.441
690.42	9.411
690.74	9.370
691.06	9.334
691.38	9.273
691.70	9.269
692.02	9.245
692.34	9.087
692.66	9.044
692.98	9.023
693.30	9.035
693.62	9.013
693.94	9.060
694.26	9.061
694.57	9.107
694.89	9.080
695.21	9.111
695.53	9.154
695.85	9.212
696.17	9.292
696.49	9.318
696.81	9.334
697.13	9.353
697.44	9.355
697.76	9.348
698.08	9.310
698.40	9.322
698.72	9.209
699.04	9.156
699.36	9.082
699.67	8.868
699.99	8.747
700.31	8.592
700.63	8.461
700.95	8.320
701.27	8.161
701.58	8.036
701.90	7.962
702.22	7.880
702.54	7.924
702.86	7.872
703.17	7.921
703.49	7.919
703.81	7.951
704.13	7.932
704.45	7.849
704.76	7.890
705.08	7.840
705.40	7.757
705.72	7.770
706.03	7.751
706.35	7.834
706.67	7.881
706.99	7.871
707.30	7.809
707.62	7.841
707.94	7.937
708.26	7.945
708.57	7.926
708.89	8.022
709.21	8.084
709.53	8.008
709.84	8.000
710.16	7.964
710.48	7.992
710.79	8.030
711.11	8.000
711.43	8.065
711.74	8.103
712.06	8.210
712.38	8.194
712.69	8.179
713.01	8.271
713.33	8.290
713.64	8.403
713.96	8.523
714.28	8.648
714.59	8.736
714.91	8.741
715.23	8.885
715.54	8.812
715.86	8.853
716.17	8.983
716.49	8.900
716.81	8.866
717.12	8.897
717.44	8.838
717.76	8.754
718.07	8.691
718.39	8.613
718.70	8.485
719.02	8.492
719.33	8.408
719.65	8.261
719.97	8.307
720.28	8.355
720.60	8.166
720.91	8.177
721.23	8.082
721.54	8.047
721.86	8.085
722.17	8.042
722.49	8.151
722.81	8.321
723.12	8.326
723.44	8.427
723.75	8.530
724.07	8.648
724.38	8.616
724.70	8.689
725.01	8.699
725.33	8.647
725.64	8.690
725.96	8.616
726.27	8.640
726.59	8.716
726.90	8.628
727.22	8.557
727.53	8.659
727.84	8.676
728.16	8.587
728.47	8.680
728.79	8.608
729.10	8.520
729.42	8.568
729.73	8.431
730.05	8.321
730.36	8.220
730.67	8.187
730.99	8.000
731.30	7.829
731.62	7.910
731.93	7.862
732.24	7.793
732.56	7.814
732.87	7.623
733.19	7.521
733.50	7.606
733.81	7.515
734.13	7.449
734.44	7.483
734.76	7.700
735.07	7.592
735.38	7.458
735.70	7.387
736.01	7.215
736.32	7.233
736.64	7.173
736.95	6.889
737.26	7.046
737.58	6.975
737.89	6.873
738.20	6.651
738.52	6.476
738.83	6.516
739.14	6.693
739.45	6.765
739.77	6.576
740.08	6.594
740.39	6.617
740.71	6.402
741.02	6.177
741.33	6.086
741.64	5.880
741.96	5.902
742.27	5.689
742.58	5.604
742.90	5.492
743.21	5.612
743.52	5.676
743.83	5.578
744.14	5.525
744.46	5.442
744.77	5.364
745.08	5.444
745.39	5.451
745.71	5.492
746.02	5.511
746.33	5.551
746.64	5.540
746.95	5.431
747.27	5.544
747.58	5.677
747.89	5.853
748.20	5.775
748.51	5.781
748.82	5.737
749.14	5.763
749.45	5.648
749.76	5.629
750.07	5.639
750.38	5.511
750.69	5.488
751.01	5.482
751.32	5.465
751.63	5.503
751.94	5.547
752.25	5.611
752.56	5.476
752.87	5.496
753.18	5.324
753.49	5.309
753.81	5.464
754.12	5.597
754.43	5.620
754.74	5.703
755.05	5.948
755.36	6.006
755.67	6.277
755.98	6.700
756.29	6.898
756.60	7.279
756.91	7.542
757.22	7.840
757.53	8.063
757.84	8.449
758.15	8.803
758.46	9.009
758.77	9.427
759.09	9.600
759.40	9.664
759.71	9.830
760.02	9.934
760.33	9.972
760.64	10.025
760.95	10.122
761.26	10.060
761.57	9.889
761.88	9.915
762.18	9.808
762.49	9.655
762.80	9.567
763.11	9.431
763.42	9.297
763.73	9.106
764.04	8.831
764.35	8.562
764.66	8.396
764.97	8.347
765.28	7.930
765.59	7.470
765.90	7.304
766.21	6.978
766.52	6.492
766.83	6.230
767.14	5.945
767.44	5.773
767.75	5.330
768.06	5.008
768.37	4.743
768.68	4.773
768.99	4.762
769.30	4.261
769.61	4.039
769.91	4.177
770.22	4.144
770.53	4.221
770.84	4.140
771.15	4.420
771.46	4.398
771.77	4.338
772.07	4.149
772.38	3.925
772.69	4.292
773.00	4.301
773.31	4.380
773.61	4.117
773.92	4.152
774.23	4.176
774.54	3.965
774.85	3.868
775.15	3.657
775.46	3.541
775.77	3.718
776.08	3.559
776.39	3.504
776.69	3.333
777.00	3.647
777.31	3.692
777.62	3.613
777.92	3.966
778.23	3.931
778.54	4.241
778.85	4.465
779.15	4.448
779.46	4.426
779.77	4.452
780.07	4.446
780.38	4.213
780.69	3.991
781.00	4.238
781.30	3.800
781.61	3.852
781.92	3.710
782.22	3.592
782.53	3.741
782.84	3.811
783.14	3.731
783.45	3.749
783.76	3.925
784.06	4.082
784.37	4.356
784.68	4.519
784.98	4.624
785.29	4.810
785.60	5.063
785.90	5.354
786.21	5.314
786.51	5.760
786.82	5.787
787.13	5.947
787.43	5.924
787.74	5.579
788.04	5.810
788.35	5.951
788.66	5.825
788.96	5.788
789.27	5.670
789.57	5.772
789.88	5.555
790.19	5.622
790.49	5.658
790.80	5.800
791.10	6.099
791.41	6.070
791.71	5.992
792.02	5.950
792.32	5.923
792.63	5.557
792.93	5.647
793.24	5.597
793.54	5.946
793.85	5.868
794.15	5.875
794.46	5.679
794.76	5.627
795.07	5.760
795.37	5.782
795.68	5.948
795.98	6.207
796.29	6.539
796.59	6.865
796.90	6.823
797.20	6.909
797.51	7.004
797.81	7.296
798.12	7.362
798.42	7.649
798.72	7.972
799.03	7.911
799.33	8.177
799.64	8.184
799.94	8.157
800.25	8.141
800.55	8.155
800.85	8.235
801.16	8.229
801.46	7.950
801.77	7.650
802.07	7.580
802.37	7.700
802.68	7.613
802.98	7.510
803.28	7.316
803.59	7.257
803.89	7.263
804.20	7.385
804.50	7.350
804.80	7.489
805.11	7.334
805.41	7.158
805.71	7.046
806.02	7.094
806.32	7.061
806.62	7.070
806.93	7.000
807.23	7.149
807.53	7.167
807.83	7.181
808.14	7.736
808.44	7.965
808.74	8.434
809.05	8.589
809.35	8.751
809.65	8.393
809.95	8.672
810.26	8.864
810.56	8.810
810.86	8.662
811.16	8.565
811.47	8.915
811.77	9.246
812.07	9.284
812.37	9.305
812.68	9.513
812.98	10.107
813.28	10.395
813.58	10.616
813.88	10.472
814.19	11.211
814.49	11.834
814.79	11.665
815.09	11.373
815.39	11.070
815.70	11.412
816.00	11.235
816.30	11.517
816.60	11.249
816.90	10.938
817.20	11.234
817.50	11.034
817.81	11.064
818.11	11.277
818.41	11.505
818.71	11.735
819.01	11.697
819.31	11.812
819.61	11.833
819.92	11.950
820.22	12.175
820.52	12.164
820.82	12.177
821.12	12.194
821.42	12.126
821.72	12.145
822.02	12.097
822.32	12.105
822.62	12.127
822.92	12.102
823.22	12.038
823.52	12.019
823.83	12.058
824.13	12.058
824.43	12.013
824.73	12.075
825.03	12.023
825.33	12.086
825.63	11.971
825.93	11.896
826.23	11.789
826.53	11.887
826.83	11.767
827.13	11.545
827.43	11.427
827.73	11.413
828.03	11.353
828.33	11.494
828.63	11.326
828.93	11.593
829.23	11.503
829.53	11.743
829.83	11.513
830.13	11.349
830.42	11.728
830.72	11.921
831.02	11.736
831.32	11.490
831.62	11.319
831.92	11.565
832.22	11.494
832.52	11.503
832.82	11.536
833.12	11.630
833.42	11.812
833.72	11.563
834.01	11.396
834.31	11.360
834.61	11.517
834.91	11.351
835.21	11.159
835.51	10.915
835.81	10.678
836.11	10.379
836.40	10.347
836.70	9.831
837.00	9.969
837.30	10.137
837.60	10.520
837.90	10.818
838.19	10.944
838.49	11.319
838.79	11.504
839.09	11.646
839.39	11.441
839.68	11.243
839.98	11.441
840.28	11.645
840.58	11.362
840.88	10.706
841.17	10.037
841.47	9.899
841.77	8.944
842.07	9.037
842.36	9.482
842.66	9.479
842.96	9.016
843.26	8.766
843.55	7.462
843.85	6.591
844.15	5.944
844.45	4.588
844.74	4.824
845.04	6.255
845.34	6.081
845.63	5.577
845.93	5.811
846.23	7.204
846.53	7.706
846.82	7.444
847.12	8.279
847.42	9.145
847.71	10.261
848.01	10.120
848.31	9.326
848.60	9.850
848.90	9.970
849.19	10.222
849.49	9.058
849.79	7.700
850.08	8.366
850.38	7.761
850.68	7.391
850.97	8.298
851.27	7.681
851.56	7.059
851.86	5.594
852.16	5.847
852.45	5.446
852.75	5.174
853.04	4.965
853.34	5.883
853.64	6.506
853.93	7.076
854.23	7.371
854.52	7.834
854.82	7.500
855.11	8.772
855.41	7.302
855.70	6.413
856.00	6.551
856.30	7.463
856.59	5.550
856.89	4.662
857.18	4.846
857.48	4.246
857.77	5.255
858.07	6.601
858.36	5.622
858.66	6.271
858.95	6.867
859.25	7.479
859.54	8.345
859.84	10.113
860.13	9.602
860.42	10.767
860.72	11.036
861.01	9.615
861.31	9.226
861.60	11.062
861.90	10.532
862.19	9.364
862.49	9.392
862.78	10.156
863.07	9.004
863.37	10.855
863.66	10.378
863.96	9.340
864.25	9.176
864.54	9.140
864.84	7.787
865.13	7.165
865.43	8.350
865.72	3.225
866.01	8.207
866.31	8.937
866.60	-9.956
866.89	7.881
>>>>>End Spectral Data<<<<<
