OOIBase32 Version 2.0.0.6 Data File
++++++++++++++++++++++++++++++++++++
Date: 01-22-2012, 21:00:01
User: Valued Ocean Optics Customer
Spectrometer Serial Number: USB2E2917
Spectrometer Channel: Master
Integration Time (msec): 4
Spectra Averaged: 10
Boxcar Smoothing: 5
Correct for Electrical Dark: Enabled
Time Normalized: Disabled
Dual-beam Reference: Disabled
Reference Channel: Master
Temperature: Not acquired
Spectrometer Type: S2000
ADC Type: USB2000
Number of Pixels in File: 2048
Graph Title: 
>>>>>Begin Spectral Data<<<<<
180.30	0.000
180.67	0.000
181.03	-4.838
181.40	142.994
181.77	-200.005
182.14	21.659
182.51	341.837
182.88	-57.272
183.25	18.018
183.62	345.949
183.99	18.705
184.36	173.087
184.73	113.398
185.10	926.015
185.46	-28.369
185.83	-2.551
186.20	10.716
186.57	240.099
186.94	71.804
187.31	38.296
187.68	-4331.022
188.05	-267.287
188.42	-56.369
188.78	163.954
189.15	110.354
189.52	104.580
189.89	81.373
190.26	75.130
190.63	95.975
191.00	63.929
191.37	36.225
191.73	84.748
192.10	65.474
192.47	49.134
192.84	34.086
193.21	0.259
193.58	-146.742
193.94	-236.782
194.31	-114.449
194.68	-62.972
195.05	-77.714
195.42	-70.466
195.79	-63.088
196.15	-17.706
196.52	16.992
196.89	25.379
197.26	15.586
197.63	22.307
198.00	82.422
198.36	121.313
198.73	158.239
199.10	142.601
199.47	89.600
199.84	61.726
200.20	46.731
200.57	30.469
200.94	44.394
201.31	48.874
201.68	53.746
202.04	37.401
202.41	33.032
202.78	40.668
203.15	39.797
203.51	40.510
203.88	37.810
204.25	26.890
204.62	12.433
204.98	-1.254
205.35	-18.040
205.72	-63.468
206.09	-114.879
206.46	-59.804
206.82	-110.610
207.19	-110.168
207.56	-148.055
207.92	-130.707
208.29	-67.309
208.66	-23.181
209.03	-23.620
209.39	-3.264
209.76	22.827
210.13	39.244
210.50	38.294
210.86	41.566
211.23	21.218
211.60	25.856
211.96	25.078
212.33	2.881
212.70	2104.595
213.07	190.275
213.43	238.495
213.80	1014.736
214.17	232.684
214.53	1175.684
214.90	-120.812
215.27	-31.154
215.63	-94.179
216.00	-42.653
216.37	-11.622
216.74	4.951
217.10	-3.085
217.47	4.344
217.84	4.828
218.20	5.121
218.57	11.308
218.94	-2.664
219.30	-2.953
219.67	12.584
220.04	8.688
220.40	20.130
220.77	13.392
221.13	29.016
221.50	34.463
221.87	34.926
222.23	42.670
222.60	37.286
222.97	37.569
223.33	33.983
223.70	27.544
224.07	19.294
224.43	12.725
224.80	19.850
225.16	11.110
225.53	7.324
225.90	4.893
226.26	2.333
226.63	1.146
226.99	1.850
227.36	4.031
227.73	4.730
228.09	4.855
228.46	5.921
228.82	3.101
229.19	6.318
229.56	5.530
229.92	8.112
230.29	8.896
230.65	9.921
231.02	7.127
231.38	6.716
231.75	6.810
232.12	8.669
232.48	6.376
232.85	7.431
233.21	6.726
233.58	8.753
233.94	6.901
234.31	6.361
234.68	5.864
235.04	8.771
235.41	7.141
235.77	3.327
236.14	2.197
236.50	3.319
236.87	4.412
237.23	5.417
237.60	2.475
237.96	2.527
238.33	1.844
238.69	2.977
239.06	2.172
239.42	2.264
239.79	3.494
240.15	4.499
240.52	4.260
240.88	3.348
241.25	2.180
241.61	2.086
241.98	2.001
242.34	2.080
242.71	1.445
243.07	2.039
243.44	2.781
243.80	3.078
244.17	2.339
244.53	2.166
244.90	2.371
245.26	3.012
245.63	3.363
245.99	3.350
246.36	3.706
246.72	3.878
247.09	3.464
247.45	3.498
247.81	3.253
248.18	3.378
248.54	3.559
248.91	3.440
249.27	2.614
249.64	3.164
250.00	3.340
250.36	3.767
250.73	3.723
251.09	3.960
251.46	3.389
251.82	3.651
252.19	3.504
252.55	3.746
252.91	4.200
253.28	4.794
253.64	4.202
254.01	4.169
254.37	3.460
254.73	3.126
255.10	2.960
255.46	3.669
255.83	3.536
256.19	3.826
256.55	3.612
256.92	3.380
257.28	3.233
257.65	3.228
258.01	3.081
258.37	3.034
258.74	3.079
259.10	3.260
259.46	2.841
259.83	2.897
260.19	2.952
260.55	2.959
260.92	2.750
261.28	2.588
261.64	2.478
262.01	2.406
262.37	2.032
262.73	2.041
263.10	1.692
263.46	2.170
263.82	1.985
264.19	1.641
264.55	1.798
264.91	2.371
265.28	2.700
265.64	2.552
266.00	2.583
266.37	3.250
266.73	3.224
267.09	3.265
267.46	2.718
267.82	2.899
268.18	3.253
268.54	3.123
268.91	3.215
269.27	3.159
269.63	3.237
270.00	3.256
270.36	3.093
270.72	3.020
271.08	2.939
271.45	3.157
271.81	3.282
272.17	3.174
272.53	3.258
272.90	3.167
273.26	3.132
273.62	3.277
273.98	3.405
274.35	3.543
274.71	3.701
275.07	3.905
275.43	3.952
275.80	3.922
276.16	3.850
276.52	3.826
276.88	3.824
277.25	3.616
277.61	3.657
277.97	3.649
278.33	3.479
278.69	3.405
279.06	3.199
279.42	3.247
279.78	3.101
280.14	2.937
280.50	2.893
280.87	2.844
281.23	3.096
281.59	3.036
281.95	2.898
282.31	2.823
282.68	2.958
283.04	2.987
283.40	2.681
283.76	2.714
284.12	2.859
284.48	2.754
284.85	2.711
285.21	2.662
285.57	2.641
285.93	2.917
286.29	2.928
286.65	2.767
287.02	2.892
287.38	3.164
287.74	3.281
288.10	3.272
288.46	3.313
288.82	3.065
289.18	2.851
289.54	2.785
289.91	2.563
290.27	2.607
290.63	2.678
290.99	2.639
291.35	2.532
291.71	2.289
292.07	2.390
292.43	2.462
292.79	2.712
293.16	2.857
293.52	3.027
293.88	3.046
294.24	2.944
294.60	3.045
294.96	2.890
295.32	2.986
295.68	2.817
296.04	2.712
296.40	2.750
296.76	2.779
297.12	2.951
297.49	2.868
297.85	3.173
298.21	3.417
298.57	3.246
298.93	3.680
299.29	3.794
299.65	4.170
300.01	4.236
300.37	4.344
300.73	4.323
301.09	4.351
301.45	4.271
301.81	4.081
302.17	3.962
302.53	4.057
302.89	3.820
303.25	3.818
303.61	3.712
303.97	3.761
304.33	3.800
304.69	3.984
305.05	4.065
305.41	4.338
305.77	4.226
306.13	4.292
306.49	4.371
306.85	4.486
307.21	4.371
307.57	4.428
307.93	4.410
308.29	4.419
308.65	4.122
309.01	3.954
309.37	3.817
309.73	3.905
310.09	3.876
310.45	3.892
310.81	3.871
311.17	3.889
311.53	3.896
311.89	3.882
312.25	3.863
312.61	4.147
312.96	4.283
313.32	4.378
313.68	4.289
314.04	4.388
314.40	4.394
314.76	4.449
315.12	4.469
315.48	4.566
315.84	4.511
316.20	4.438
316.56	4.392
316.92	4.161
317.27	4.161
317.63	4.355
317.99	4.196
318.35	4.181
318.71	4.140
319.07	4.300
319.43	4.172
319.79	4.302
320.15	4.435
320.50	4.650
320.86	4.854
321.22	4.878
321.58	4.756
321.94	4.944
322.30	5.104
322.66	5.128
323.01	5.160
323.37	5.383
323.73	5.321
324.09	5.403
324.45	5.222
324.81	5.299
325.17	5.392
325.52	5.407
325.88	5.350
326.24	5.262
326.60	5.353
326.96	5.470
327.31	5.188
327.67	5.390
328.03	5.293
328.39	5.251
328.75	5.283
329.11	5.289
329.46	5.424
329.82	5.480
330.18	5.612
330.54	5.528
330.90	5.383
331.25	5.598
331.61	5.496
331.97	5.496
332.33	5.623
332.68	5.681
333.04	5.707
333.40	5.750
333.76	5.814
334.11	5.823
334.47	6.052
334.83	5.971
335.19	6.001
335.54	6.072
335.90	6.091
336.26	6.040
336.62	6.106
336.97	5.963
337.33	6.014
337.69	5.992
338.05	6.038
338.40	5.952
338.76	6.132
339.12	6.261
339.48	6.178
339.83	6.165
340.19	6.256
340.55	6.194
340.90	6.396
341.26	6.373
341.62	6.356
341.97	6.397
342.33	6.309
342.69	6.316
343.04	6.167
343.40	6.299
343.76	6.340
344.12	6.278
344.47	6.232
344.83	6.191
345.19	6.152
345.54	6.210
345.90	6.156
346.26	6.226
346.61	6.164
346.97	6.322
347.32	6.265
347.68	6.301
348.04	6.370
348.39	6.407
348.75	6.379
349.11	6.389
349.46	6.314
349.82	6.271
350.18	6.307
350.53	6.291
350.89	6.258
351.24	6.316
351.60	6.290
351.96	6.269
352.31	6.230
352.67	6.265
353.02	6.343
353.38	6.394
353.74	6.393
354.09	6.380
354.45	6.383
354.80	6.294
355.16	6.335
355.52	6.334
355.87	6.248
356.23	6.316
356.58	6.317
356.94	6.304
357.29	6.318
357.65	6.314
358.00	6.266
358.36	6.296
358.72	6.301
359.07	6.198
359.43	6.282
359.78	6.399
360.14	6.400
360.49	6.459
360.85	6.412
361.20	6.456
361.56	6.482
361.91	6.555
362.27	6.568
362.62	6.594
362.98	6.704
363.33	6.706
363.69	6.758
364.04	6.818
364.40	6.782
364.75	6.813
365.11	6.777
365.46	6.792
365.82	6.727
366.17	6.721
366.53	6.712
366.88	6.711
367.24	6.764
367.59	6.735
367.95	6.709
368.30	6.793
368.66	6.832
369.01	6.878
369.37	6.895
369.72	6.947
370.08	7.009
370.43	7.054
370.78	7.084
371.14	7.048
371.49	7.069
371.85	7.088
372.20	7.038
372.56	7.110
372.91	7.140
373.26	7.201
373.62	7.268
373.97	7.322
374.33	7.351
374.68	7.401
375.03	7.443
375.39	7.424
375.74	7.504
376.10	7.598
376.45	7.622
376.80	7.646
377.16	7.658
377.51	7.731
377.87	7.800
378.22	7.877
378.57	7.908
378.93	8.015
379.28	8.161
379.63	8.196
379.99	8.243
380.34	8.294
380.70	8.410
381.05	8.525
381.40	8.547
381.76	8.603
382.11	8.666
382.46	8.722
382.82	8.746
383.17	8.781
383.52	8.872
383.88	8.947
384.23	9.050
384.58	9.077
384.94	9.154
385.29	9.271
385.64	9.347
385.99	9.432
386.35	9.522
386.70	9.600
387.05	9.720
387.41	9.790
387.76	9.830
388.11	9.864
388.47	9.963
388.82	10.005
389.17	10.112
389.52	10.167
389.88	10.270
390.23	10.349
390.58	10.448
390.93	10.546
391.29	10.679
391.64	10.855
391.99	11.000
392.34	11.108
392.70	11.271
393.05	11.355
393.40	11.482
393.75	11.580
394.11	11.665
394.46	11.743
394.81	11.835
395.16	11.900
395.52	11.992
395.87	12.107
396.22	12.204
396.57	12.279
396.92	12.370
397.28	12.458
397.63	12.530
397.98	12.647
398.33	12.805
398.68	12.936
399.04	13.065
399.39	13.160
399.74	13.239
400.09	13.330
400.44	13.446
400.80	13.581
401.15	13.688
401.50	13.824
401.85	13.931
402.20	13.979
402.55	14.053
402.90	14.152
403.26	14.249
403.61	14.334
403.96	14.462
404.31	14.591
404.66	14.648
405.01	14.756
405.36	14.851
405.72	14.983
406.07	15.138
406.42	15.272
406.77	15.389
407.12	15.521
407.47	15.685
407.82	15.814
408.17	15.894
408.53	16.001
408.88	16.133
409.23	16.238
409.58	16.303
409.93	16.420
410.28	16.540
410.63	16.610
410.98	16.700
411.33	16.778
411.68	16.878
412.03	16.951
412.38	17.065
412.73	17.151
413.09	17.223
413.44	17.307
413.79	17.385
414.14	17.440
414.49	17.503
414.84	17.557
415.19	17.603
415.54	17.622
415.89	17.677
416.24	17.726
416.59	17.749
416.94	17.813
417.29	17.840
417.64	17.872
417.99	17.902
418.34	17.963
418.69	17.998
419.04	18.036
419.39	18.098
419.74	18.164
420.09	18.210
420.44	18.275
420.79	18.317
421.14	18.414
421.49	18.487
421.84	18.540
422.19	18.594
422.54	18.670
422.89	18.762
423.24	18.826
423.59	18.893
423.94	18.982
424.29	19.085
424.64	19.201
424.99	19.293
425.34	19.383
425.68	19.496
426.03	19.655
426.38	19.787
426.73	19.893
427.08	20.014
427.43	20.150
427.78	20.231
428.13	20.314
428.48	20.407
428.83	20.467
429.18	20.533
429.53	20.636
429.87	20.654
430.22	20.677
430.57	20.751
430.92	20.808
431.27	20.836
431.62	20.909
431.97	20.946
432.32	20.998
432.67	21.062
433.01	21.161
433.36	21.222
433.71	21.307
434.06	21.383
434.41	21.431
434.76	21.518
435.11	21.617
435.45	21.675
435.80	21.696
436.15	21.726
436.50	21.756
436.85	21.753
437.20	21.759
437.54	21.778
437.89	21.841
438.24	21.855
438.59	21.850
438.94	21.846
439.29	21.861
439.63	21.891
439.98	21.927
440.33	21.961
440.68	22.020
441.03	22.062
441.37	22.115
441.72	22.120
442.07	22.158
442.42	22.181
442.76	22.206
443.11	22.202
443.46	22.222
443.81	22.238
444.16	22.252
444.50	22.230
444.85	22.242
445.20	22.262
445.55	22.259
445.89	22.262
446.24	22.292
446.59	22.320
446.94	22.384
447.28	22.421
447.63	22.451
447.98	22.487
448.32	22.539
448.67	22.587
449.02	22.599
449.37	22.671
449.71	22.727
450.06	22.785
450.41	22.809
450.75	22.782
451.10	22.833
451.45	22.847
451.79	22.905
452.14	22.946
452.49	22.967
452.84	23.006
453.18	23.042
453.53	23.065
453.88	23.117
454.22	23.149
454.57	23.232
454.92	23.267
455.26	23.299
455.61	23.282
455.95	23.281
456.30	23.312
456.65	23.326
456.99	23.348
457.34	23.375
457.69	23.373
458.03	23.402
458.38	23.428
458.73	23.482
459.07	23.535
459.42	23.598
459.76	23.681
460.11	23.760
460.46	23.832
460.80	23.906
461.15	24.022
461.49	24.112
461.84	24.208
462.19	24.300
462.53	24.359
462.88	24.434
463.22	24.520
463.57	24.575
463.91	24.640
464.26	24.710
464.61	24.759
464.95	24.826
465.30	24.914
465.64	24.992
465.99	25.061
466.33	25.107
466.68	25.154
467.02	25.202
467.37	25.264
467.71	25.305
468.06	25.338
468.41	25.376
468.75	25.418
469.10	25.448
469.44	25.449
469.79	25.481
470.13	25.553
470.48	25.597
470.82	25.630
471.17	25.642
471.51	25.667
471.86	25.738
472.20	25.751
472.55	25.732
472.89	25.747
473.23	25.762
473.58	25.750
473.92	25.706
474.27	25.722
474.61	25.696
474.96	25.701
475.30	25.686
475.65	25.664
475.99	25.680
476.34	25.673
476.68	25.644
477.02	25.675
477.37	25.704
477.71	25.728
478.06	25.724
478.40	25.786
478.75	25.893
479.09	26.033
479.43	26.165
479.78	26.323
480.12	26.529
480.47	26.763
480.81	26.999
481.15	27.251
481.50	27.504
481.84	27.841
482.19	28.178
482.53	28.415
482.87	28.472
483.22	28.312
483.56	27.981
483.90	27.613
484.25	27.338
484.59	27.176
484.94	26.983
485.28	26.760
485.62	26.419
485.97	26.066
486.31	25.779
486.65	25.681
487.00	25.836
487.34	26.186
487.68	26.555
488.03	26.763
488.37	26.802
488.71	26.828
489.06	26.870
489.40	26.927
489.74	26.976
490.09	27.024
490.43	27.061
490.77	27.082
491.11	27.123
491.46	27.171
491.80	27.245
492.14	27.301
492.49	27.397
492.83	27.466
493.17	27.544
493.51	27.591
493.86	27.692
494.20	27.798
494.54	27.919
494.88	28.003
495.23	28.096
495.57	28.174
495.91	28.304
496.25	28.379
496.60	28.491
496.94	28.623
497.28	28.739
497.62	28.867
497.97	28.981
498.31	29.119
498.65	29.268
498.99	29.439
499.33	29.623
499.68	29.760
500.02	29.908
500.36	30.037
500.70	30.157
501.04	30.282
501.39	30.398
501.73	30.480
502.07	30.592
502.41	30.729
502.75	30.828
503.09	30.912
503.44	31.011
503.78	31.120
504.12	31.250
504.46	31.374
504.80	31.543
505.14	31.657
505.49	31.825
505.83	31.921
506.17	32.051
506.51	32.164
506.85	32.288
507.19	32.383
507.53	32.482
507.87	32.601
508.22	32.709
508.56	32.796
508.90	32.903
509.24	32.994
509.58	33.141
509.92	33.226
510.26	33.334
510.60	33.459
510.94	33.566
511.28	33.678
511.63	33.801
511.97	33.922
512.31	34.058
512.65	34.189
512.99	34.324
513.33	34.389
513.67	34.518
514.01	34.631
514.35	34.725
514.69	34.834
515.03	34.931
515.37	35.000
515.71	35.070
516.05	35.118
516.39	35.142
516.73	35.192
517.07	35.307
517.41	35.341
517.75	35.416
518.09	35.478
518.43	35.534
518.77	35.590
519.11	35.619
519.45	35.658
519.79	35.733
520.13	35.824
520.47	35.907
520.81	35.954
521.15	36.030
521.49	36.059
521.83	36.081
522.17	36.140
522.51	36.182
522.85	36.248
523.19	36.350
523.53	36.488
523.87	36.636
524.21	36.814
524.55	36.983
524.89	37.135
525.23	37.302
525.57	37.463
525.91	37.590
526.25	37.724
526.58	37.855
526.92	37.952
527.26	38.017
527.60	38.047
527.94	38.035
528.28	37.992
528.62	37.949
528.96	37.892
529.30	37.835
529.64	37.796
529.97	37.722
530.31	37.628
530.65	37.543
530.99	37.466
531.33	37.457
531.67	37.457
532.01	37.454
532.35	37.484
532.68	37.500
533.02	37.500
533.36	37.451
533.70	37.441
534.04	37.439
534.38	37.446
534.71	37.448
535.05	37.399
535.39	37.376
535.73	37.399
536.07	37.372
536.41	37.376
536.74	37.395
537.08	37.455
537.42	37.513
537.76	37.566
538.10	37.630
538.43	37.694
538.77	37.770
539.11	37.811
539.45	37.823
539.79	37.846
540.12	37.875
540.46	37.857
540.80	37.824
541.14	37.809
541.47	37.781
541.81	37.732
542.15	37.686
542.49	37.633
542.82	37.568
543.16	37.538
543.50	37.518
543.84	37.436
544.17	37.446
544.51	37.462
544.85	37.444
545.18	37.439
545.52	37.463
545.86	37.457
546.20	37.450
546.53	37.474
546.87	37.492
547.21	37.495
547.54	37.560
547.88	37.556
548.22	37.575
548.55	37.578
548.89	37.564
549.23	37.554
549.56	37.540
549.90	37.499
550.24	37.457
550.57	37.439
550.91	37.431
551.25	37.393
551.58	37.374
551.92	37.353
552.26	37.374
552.59	37.394
552.93	37.410
553.27	37.390
553.60	37.415
553.94	37.446
554.27	37.446
554.61	37.457
554.95	37.491
555.28	37.494
555.62	37.499
555.95	37.479
556.29	37.482
556.63	37.461
556.96	37.439
557.30	37.434
557.63	37.411
557.97	37.368
558.31	37.331
558.64	37.282
558.98	37.300
559.31	37.292
559.65	37.230
559.98	37.185
560.32	37.139
560.65	37.145
560.99	37.103
561.33	37.047
561.66	37.001
562.00	36.969
562.33	36.927
562.67	36.850
563.00	36.794
563.34	36.805
563.67	36.802
564.01	36.725
564.34	36.675
564.68	36.668
565.01	36.653
565.35	36.663
565.68	36.652
566.02	36.593
566.35	36.580
566.69	36.542
567.02	36.505
567.36	36.487
567.69	36.481
568.03	36.438
568.36	36.369
568.69	36.363
569.03	36.338
569.36	36.262
569.70	36.235
570.03	36.197
570.37	36.143
570.70	36.060
571.04	35.989
571.37	35.955
571.70	35.948
572.04	35.902
572.37	35.854
572.71	35.812
573.04	35.804
573.37	35.790
573.71	35.771
574.04	35.758
574.38	35.798
574.71	35.803
575.04	35.814
575.38	35.809
575.71	35.854
576.05	35.858
576.38	35.874
576.71	35.854
577.05	35.909
577.38	35.877
577.71	35.906
578.05	35.877
578.38	35.823
578.71	35.809
579.05	35.748
579.38	35.674
579.71	35.633
580.05	35.567
580.38	35.542
580.71	35.429
581.05	35.397
581.38	35.314
581.71	35.250
582.05	35.221
582.38	35.092
582.71	35.055
583.04	35.035
583.38	34.961
583.71	34.908
584.04	34.818
584.38	34.762
584.71	34.696
585.04	34.633
585.37	34.549
585.71	34.505
586.04	34.472
586.37	34.399
586.70	34.294
587.04	34.256
587.37	34.197
587.70	34.130
588.03	34.046
588.37	33.978
588.70	33.932
589.03	33.877
589.36	33.764
589.69	33.697
590.03	33.618
590.36	33.588
590.69	33.461
591.02	33.386
591.35	33.338
591.69	33.278
592.02	33.194
592.35	33.098
592.68	32.996
593.01	32.892
593.35	32.806
593.68	32.708
594.01	32.591
594.34	32.525
594.67	32.437
595.00	32.328
595.34	32.254
595.67	32.197
596.00	32.140
596.33	32.108
596.66	32.114
596.99	32.091
597.32	32.068
597.65	32.009
597.99	31.998
598.32	31.933
598.65	31.895
598.98	31.813
599.31	31.724
599.64	31.623
599.97	31.524
600.30	31.397
600.63	31.255
600.96	31.168
601.30	31.073
601.63	30.951
601.96	30.875
602.29	30.821
602.62	30.777
602.95	30.724
603.28	30.679
603.61	30.602
603.94	30.539
604.27	30.510
604.60	30.457
604.93	30.484
605.26	30.440
605.59	30.361
605.92	30.310
606.25	30.233
606.58	30.167
606.91	30.088
607.24	30.011
607.57	29.953
607.90	29.900
608.23	29.851
608.56	29.724
608.89	29.688
609.22	29.578
609.55	29.513
609.88	29.485
610.21	29.455
610.54	29.423
610.87	29.426
611.20	29.393
611.53	29.356
611.86	29.311
612.19	29.280
612.52	29.185
612.85	29.250
613.18	29.152
613.51	29.048
613.84	28.975
614.17	28.914
614.49	28.818
614.82	28.772
615.15	28.670
615.48	28.586
615.81	28.544
616.14	28.482
616.47	28.377
616.80	28.375
617.13	28.338
617.46	28.216
617.78	28.120
618.11	28.125
618.44	28.065
618.77	27.996
619.10	27.905
619.43	27.835
619.76	27.777
620.09	27.693
620.41	27.583
620.74	27.506
621.07	27.486
621.40	27.431
621.73	27.296
622.06	27.200
622.38	27.130
622.71	27.073
623.04	26.970
623.37	26.910
623.70	26.890
624.02	26.814
624.35	26.725
624.68	26.649
625.01	26.585
625.34	26.551
625.66	26.487
625.99	26.431
626.32	26.398
626.65	26.375
626.98	26.333
627.30	26.258
627.63	26.213
627.96	26.167
628.29	26.128
628.61	26.068
628.94	25.960
629.27	25.886
629.60	25.794
629.92	25.683
630.25	25.575
630.58	25.449
630.91	25.381
631.23	25.320
631.56	25.241
631.89	25.166
632.21	25.109
632.54	25.107
632.87	25.084
633.19	25.088
633.52	25.050
633.85	24.980
634.18	24.936
634.50	24.882
634.83	24.812
635.16	24.772
635.48	24.685
635.81	24.609
636.14	24.518
636.46	24.448
636.79	24.374
637.11	24.246
637.44	24.258
637.77	24.232
638.09	24.184
638.42	24.130
638.75	24.071
639.07	23.993
639.40	24.008
639.73	23.970
640.05	23.838
640.38	23.727
640.70	23.724
641.03	23.644
641.36	23.542
641.68	23.415
642.01	23.409
642.33	23.386
642.66	23.372
642.98	23.289
643.31	23.184
643.64	23.240
643.96	23.225
644.29	23.182
644.61	23.131
644.94	23.142
645.26	23.137
645.59	23.022
645.91	22.921
646.24	22.868
646.56	22.782
646.89	22.765
647.22	22.640
647.54	22.570
647.87	22.548
648.19	22.496
648.52	22.426
648.84	22.363
649.17	22.340
649.49	22.305
649.82	22.261
650.14	22.238
650.47	22.177
650.79	22.144
651.11	22.077
651.44	22.008
651.76	21.967
652.09	21.934
652.41	21.897
652.74	21.875
653.06	21.791
653.39	21.727
653.71	21.665
654.04	21.693
654.36	21.613
654.68	21.592
655.01	21.545
655.33	21.516
655.66	21.422
655.98	21.405
656.30	21.353
656.63	21.314
656.95	21.245
657.28	21.178
657.60	21.074
657.92	21.035
658.25	21.012
658.57	20.964
658.90	20.892
659.22	20.882
659.54	20.764
659.87	20.654
660.19	20.598
660.51	20.582
660.84	20.537
661.16	20.478
661.48	20.476
661.81	20.399
662.13	20.319
662.45	20.269
662.78	20.213
663.10	20.173
663.42	20.126
663.75	20.122
664.07	20.074
664.39	20.077
664.72	20.048
665.04	19.975
665.36	19.931
665.69	19.922
666.01	19.847
666.33	19.765
666.65	19.738
666.98	19.725
667.30	19.748
667.62	19.725
667.94	19.653
668.27	19.631
668.59	19.567
668.91	19.602
669.23	19.528
669.56	19.564
669.88	19.536
670.20	19.479
670.52	19.423
670.85	19.350
671.17	19.301
671.49	19.258
671.81	19.161
672.13	19.141
672.46	19.001
672.78	18.975
673.10	18.821
673.42	18.807
673.74	18.809
674.07	18.839
674.39	18.757
674.71	18.691
675.03	18.704
675.35	18.721
675.67	18.687
676.00	18.758
676.32	18.733
676.64	18.768
676.96	18.787
677.28	18.847
677.60	18.792
677.92	18.776
678.25	18.740
678.57	18.689
678.89	18.651
679.21	18.647
679.53	18.574
679.85	18.543
680.17	18.529
680.49	18.444
680.81	18.334
681.13	18.329
681.46	18.262
681.78	18.290
682.10	18.305
682.42	18.311
682.74	18.240
683.06	18.204
683.38	18.244
683.70	18.217
684.02	18.158
684.34	18.125
684.66	18.110
684.98	18.090
685.30	18.079
685.62	18.040
685.94	17.987
686.26	17.983
686.58	17.969
686.90	17.880
687.22	17.894
687.54	17.923
687.86	17.902
688.18	17.910
688.50	17.939
688.82	17.963
689.14	17.878
689.46	17.880
689.78	17.873
690.10	17.833
690.42	17.808
690.74	17.694
691.06	17.689
691.38	17.721
691.70	17.631
692.02	17.539
692.34	17.326
692.66	17.272
692.98	17.194
693.30	17.182
693.62	17.177
693.94	17.202
694.26	17.176
694.57	17.113
694.89	17.020
695.21	17.004
695.53	17.067
695.85	17.116
696.17	17.145
696.49	17.108
696.81	17.175
697.13	17.148
697.44	17.120
697.76	17.151
698.08	17.123
698.40	17.072
698.72	17.022
699.04	16.982
699.36	16.962
699.67	16.842
699.99	16.787
700.31	16.556
700.63	16.468
700.95	16.372
701.27	16.211
701.58	16.084
701.90	16.012
702.22	15.950
702.54	15.950
702.86	15.928
703.17	15.926
703.49	15.885
703.81	15.890
704.13	15.833
704.45	15.870
704.76	15.804
705.08	15.861
705.40	15.913
705.72	15.877
706.03	15.847
706.35	15.835
706.67	15.896
706.99	15.961
707.30	15.972
707.62	16.018
707.94	16.041
708.26	16.092
708.57	16.075
708.89	16.146
709.21	16.187
709.53	16.145
709.84	16.181
710.16	16.118
710.48	16.100
710.79	16.039
711.11	16.016
711.43	15.945
711.74	16.004
712.06	16.055
712.38	16.009
712.69	15.987
713.01	15.880
713.33	15.814
713.64	15.822
713.96	15.910
714.28	16.036
714.59	16.081
714.91	16.187
715.23	16.217
715.54	16.178
715.86	16.189
716.17	16.240
716.49	16.273
716.81	16.263
717.12	16.281
717.44	16.098
717.76	16.029
718.07	15.944
718.39	15.724
718.70	15.620
719.02	15.562
719.33	15.483
719.65	15.426
719.97	15.466
720.28	15.491
720.60	15.540
720.91	15.565
721.23	15.481
721.54	15.542
721.86	15.720
722.17	15.810
722.49	15.883
722.81	15.855
723.12	15.872
723.44	15.925
723.75	15.972
724.07	15.799
724.38	15.843
724.70	15.940
725.01	15.939
725.33	15.909
725.64	15.819
725.96	15.758
726.27	15.827
726.59	15.906
726.90	15.853
727.22	15.818
727.53	15.880
727.84	15.835
728.16	15.752
728.47	15.789
728.79	15.678
729.10	15.585
729.42	15.617
729.73	15.647
730.05	15.397
730.36	15.311
730.67	15.190
730.99	15.160
731.30	15.165
731.62	15.222
731.93	15.141
732.24	14.982
732.56	15.034
732.87	14.976
733.19	14.952
733.50	15.037
733.81	14.990
734.13	14.862
734.44	14.929
734.76	14.827
735.07	14.699
735.38	14.571
735.70	14.615
736.01	14.551
736.32	14.508
736.64	14.259
736.95	14.132
737.26	14.167
737.58	14.293
737.89	14.149
738.20	14.070
738.52	14.006
738.83	14.064
739.14	14.126
739.45	14.111
739.77	14.003
740.08	14.061
740.39	13.917
740.71	13.782
741.02	13.537
741.33	13.613
741.64	13.517
741.96	13.520
742.27	13.380
742.58	13.246
742.90	13.055
743.21	12.979
743.52	12.940
743.83	12.952
744.14	12.897
744.46	12.772
744.77	12.629
745.08	12.717
745.39	12.627
745.71	12.830
746.02	12.776
746.33	12.930
746.64	13.048
746.95	13.054
747.27	13.043
747.58	13.056
747.89	13.313
748.20	13.143
748.51	13.120
748.82	13.144
749.14	12.903
749.45	12.912
749.76	12.787
750.07	12.733
750.38	12.671
750.69	12.771
751.01	12.846
751.32	12.800
751.63	12.936
751.94	13.009
752.25	13.027
752.56	12.871
752.87	12.957
753.18	12.855
753.49	12.873
753.81	12.911
754.12	13.014
754.43	13.070
754.74	13.028
755.05	13.049
755.36	13.040
755.67	13.078
755.98	13.391
756.29	13.479
756.60	13.671
756.91	13.895
757.22	14.096
757.53	14.287
757.84	14.449
758.15	14.792
758.46	14.928
758.77	15.176
759.09	15.218
759.40	15.332
759.71	15.443
760.02	15.496
760.33	15.578
760.64	15.598
760.95	15.628
761.26	15.554
761.57	15.470
761.88	15.595
762.18	15.528
762.49	15.553
762.80	15.581
763.11	15.521
763.42	15.419
763.73	15.176
764.04	14.966
764.35	14.756
764.66	14.659
764.97	14.511
765.28	14.180
765.59	13.823
765.90	13.689
766.21	13.312
766.52	13.036
766.83	13.028
767.14	12.927
767.44	12.865
767.75	12.747
768.06	12.489
768.37	12.286
768.68	12.246
768.99	12.407
769.30	12.125
769.61	11.939
769.91	11.754
770.22	11.602
770.53	11.637
770.84	11.469
771.15	11.265
771.46	11.347
771.77	11.473
772.07	11.374
772.38	11.310
772.69	11.447
773.00	11.425
773.31	11.731
773.61	11.519
773.92	11.288
774.23	11.341
774.54	11.421
774.85	11.351
775.15	11.255
775.46	11.175
775.77	10.902
776.08	10.680
776.39	10.903
776.69	10.807
777.00	10.917
777.31	11.046
777.62	11.005
777.92	11.175
778.23	11.228
778.54	11.087
778.85	11.192
779.15	11.385
779.46	11.510
779.77	11.539
780.07	11.571
780.38	11.735
780.69	11.490
781.00	11.697
781.30	11.647
781.61	11.638
781.92	11.773
782.22	11.892
782.53	11.955
782.84	11.962
783.14	11.885
783.45	11.875
783.76	11.688
784.06	11.990
784.37	12.157
784.68	12.136
784.98	12.274
785.29	12.444
785.60	12.419
785.90	12.666
786.21	12.706
786.51	12.841
786.82	12.778
787.13	12.822
787.43	12.958
787.74	12.997
788.04	13.140
788.35	13.225
788.66	13.255
788.96	13.134
789.27	12.959
789.57	13.062
789.88	13.066
790.19	13.155
790.49	13.349
790.80	13.392
791.10	13.337
791.41	13.427
791.71	13.157
792.02	13.106
792.32	13.118
792.63	13.286
792.93	13.209
793.24	13.210
793.54	13.361
793.85	13.737
794.15	13.556
794.46	13.587
794.76	13.277
795.07	13.405
795.37	13.275
795.68	13.583
795.98	13.415
796.29	13.360
796.59	13.038
796.90	13.178
797.20	12.779
797.51	12.863
797.81	12.871
798.12	13.035
798.42	13.054
798.72	13.237
799.03	13.135
799.33	13.035
799.64	13.250
799.94	13.727
800.25	13.410
800.55	13.701
800.85	13.554
801.16	13.386
801.46	13.273
801.77	13.266
802.07	13.248
802.37	13.216
802.68	13.617
802.98	13.837
803.28	13.887
803.59	13.968
803.89	13.617
804.20	13.990
804.50	13.886
804.80	14.077
805.11	13.875
805.41	13.933
805.71	13.822
806.02	13.472
806.32	12.943
806.62	12.573
806.93	12.583
807.23	12.985
807.53	12.815
807.83	13.032
808.14	13.177
808.44	13.491
808.74	13.662
809.05	13.852
809.35	14.075
809.65	14.646
809.95	14.733
810.26	14.830
810.56	14.554
810.86	14.591
811.16	14.727
811.47	14.768
811.77	14.947
812.07	14.811
812.37	14.605
812.68	15.037
812.98	14.754
813.28	15.158
813.58	15.441
813.88	15.183
814.19	15.964
814.49	16.133
814.79	16.417
815.09	16.321
815.39	16.446
815.70	16.639
816.00	16.424
816.30	16.640
816.60	16.287
816.90	16.011
817.20	16.241
817.50	15.815
817.81	15.840
818.11	15.896
818.41	15.996
818.71	16.027
819.01	16.120
819.31	16.161
819.61	16.227
819.92	16.320
820.22	16.445
820.52	16.493
820.82	16.495
821.12	16.440
821.42	16.363
821.72	16.377
822.02	16.371
822.32	16.371
822.62	16.360
822.92	16.335
823.22	16.241
823.52	16.217
823.83	16.219
824.13	16.181
824.43	16.227
824.73	16.247
825.03	16.231
825.33	16.338
825.63	16.279
825.93	16.318
826.23	16.254
826.53	16.443
826.83	16.311
827.13	16.135
827.43	16.162
827.73	16.117
828.03	16.124
828.33	16.226
828.63	15.965
828.93	15.967
829.23	15.885
829.53	15.980
829.83	15.814
830.13	15.885
830.42	16.236
830.72	16.255
831.02	16.153
831.32	15.859
831.62	15.629
831.92	15.856
832.22	15.956
832.52	15.979
832.82	16.144
833.12	16.239
833.42	16.160
833.72	16.029
834.01	16.133
834.31	16.009
834.61	16.336
834.91	16.275
835.21	16.078
835.51	15.840
835.81	15.462
836.11	14.898
836.40	14.944
836.70	14.628
837.00	14.369
837.30	14.368
837.60	14.870
837.90	15.096
838.19	15.229
838.49	15.470
838.79	15.775
839.09	16.029
839.39	16.448
839.68	15.594
839.98	16.002
840.28	16.427
840.58	16.090
840.88	15.671
841.17	15.073
841.47	15.825
841.77	15.946
842.07	15.983
842.36	16.083
842.66	16.020
842.96	16.513
843.26	16.313
843.55	15.382
843.85	14.766
844.15	14.527
844.45	14.086
844.74	13.311
845.04	13.439
845.34	13.170
845.63	13.623
845.93	13.395
846.23	14.599
846.53	14.789
846.82	14.982
847.12	15.198
847.42	15.863
847.71	16.103
848.01	15.239
848.31	15.546
848.60	16.127
848.90	15.547
849.19	16.106
849.49	13.790
849.79	13.461
850.08	14.546
850.38	14.455
850.68	14.012
850.97	14.373
851.27	14.694
851.56	13.456
851.86	12.391
852.16	12.126
852.45	12.210
852.75	13.436
853.04	12.396
853.34	11.985
853.64	11.808
853.93	12.679
854.23	13.196
854.52	13.246
854.82	12.695
855.11	14.166
855.41	13.950
855.70	13.695
856.00	12.735
856.30	13.669
856.59	13.096
856.89	13.191
857.18	11.477
857.48	10.556
857.77	10.935
858.07	11.520
858.36	10.548
858.66	11.128
858.95	10.253
859.25	11.828
859.54	12.144
859.84	12.747
860.13	13.768
860.42	15.392
860.72	16.105
861.01	16.066
861.31	15.675
861.60	17.071
861.90	17.811
862.19	16.462
862.49	15.950
862.78	16.892
863.07	16.721
863.37	16.917
863.66	16.122
863.96	16.028
864.25	15.942
864.54	17.480
864.84	17.217
865.13	16.047
865.43	17.259
865.72	15.987
866.01	24.724
866.31	27.246
866.60	5.957
866.89	9.665
>>>>>End Spectral Data<<<<<
