OOIBase32 Version 2.0.0.6 Data File
++++++++++++++++++++++++++++++++++++
Date: 01-22-2012, 21:00:35
User: Valued Ocean Optics Customer
Spectrometer Serial Number: USB2E2917
Spectrometer Channel: Master
Integration Time (msec): 4
Spectra Averaged: 10
Boxcar Smoothing: 5
Correct for Electrical Dark: Enabled
Time Normalized: Disabled
Dual-beam Reference: Disabled
Reference Channel: Master
Temperature: Not acquired
Spectrometer Type: S2000
ADC Type: USB2000
Number of Pixels in File: 2048
Graph Title: 
>>>>>Begin Spectral Data<<<<<
180.30	0.000
180.67	0.000
181.03	-108.950
181.40	53.735
181.77	83.779
182.14	26.773
182.51	405.962
182.88	159.129
183.25	71.634
183.62	-222.915
183.99	161.451
184.36	258.474
184.73	17.130
185.10	3264.632
185.46	-5.519
185.83	-6.578
186.20	-22.229
186.57	44.955
186.94	76.186
187.31	137.891
187.68	2731.562
188.05	343.663
188.42	325.511
188.78	-97.442
189.15	10.039
189.52	42.869
189.89	51.731
190.26	48.527
190.63	30.077
191.00	21.091
191.37	17.195
191.73	14.544
192.10	-13.760
192.47	-26.607
192.84	-243.439
193.21	-415.203
193.58	-385.508
193.94	-376.046
194.31	-159.741
194.68	-76.718
195.05	-71.054
195.42	-84.397
195.79	-52.039
196.15	-17.080
196.52	-3.688
196.89	5.463
197.26	-18.583
197.63	-54.915
198.00	-65.941
198.36	-205.939
198.73	-330.855
199.10	-176.407
199.47	-56.344
199.84	-42.954
200.20	-105.169
200.57	-77.933
200.94	-19.049
201.31	14.836
201.68	25.069
202.04	30.784
202.41	33.643
202.78	38.841
203.15	40.918
203.51	33.276
203.88	37.844
204.25	40.655
204.62	32.360
204.98	13.085
205.35	0.678
205.72	-11.570
206.09	-83.102
206.46	-21.340
206.82	-46.384
207.19	-59.241
207.56	-74.183
207.92	-83.857
208.29	-30.437
208.66	-21.011
209.03	-23.548
209.39	-9.323
209.76	9.574
210.13	26.730
210.50	17.147
210.86	-7.905
211.23	-18.829
211.60	-18.932
211.96	-32.167
212.33	-129.526
212.70	3934.139
213.07	277.968
213.43	185.538
213.80	555.979
214.17	121.089
214.53	579.502
214.90	35.750
215.27	45.217
215.63	20.089
216.00	53.430
216.37	61.775
216.74	49.662
217.10	35.413
217.47	17.661
217.84	9.155
218.20	7.985
218.57	13.751
218.94	3.041
219.30	1.574
219.67	19.106
220.04	18.442
220.40	17.361
220.77	21.536
221.13	29.297
221.50	35.395
221.87	32.156
222.23	36.046
222.60	29.633
222.97	23.988
223.33	20.729
223.70	10.040
224.07	7.089
224.43	7.221
224.80	10.838
225.16	7.341
225.53	6.428
225.90	6.060
226.26	6.796
226.63	6.676
226.99	7.659
227.36	8.686
227.73	10.245
228.09	10.711
228.46	10.424
228.82	9.438
229.19	11.309
229.56	10.381
229.92	10.319
230.29	9.811
230.65	11.172
231.02	9.992
231.38	10.461
231.75	10.635
232.12	9.025
232.48	7.745
232.85	6.646
233.21	6.415
233.58	8.600
233.94	11.591
234.31	11.962
234.68	9.862
235.04	10.649
235.41	8.578
235.77	7.363
236.14	8.679
236.50	11.042
236.87	11.670
237.23	10.717
237.60	8.748
237.96	6.637
238.33	5.444
238.69	6.476
239.06	5.986
239.42	6.340
239.79	7.262
240.15	8.247
240.52	8.108
240.88	7.412
241.25	7.218
241.61	6.735
241.98	7.370
242.34	7.560
242.71	7.840
243.07	8.480
243.44	9.205
243.80	9.266
244.17	8.756
244.53	8.431
244.90	8.859
245.26	9.279
245.63	9.924
245.99	9.751
246.36	9.897
246.72	9.652
247.09	9.621
247.45	9.448
247.81	9.084
248.18	9.126
248.54	9.486
248.91	9.479
249.27	9.174
249.64	9.432
250.00	10.057
250.36	10.479
250.73	10.115
251.09	9.441
251.46	8.929
251.82	9.454
252.19	9.971
252.55	10.022
252.91	9.842
253.28	9.726
253.64	9.411
254.01	8.630
254.37	8.393
254.73	8.692
255.10	9.126
255.46	9.802
255.83	9.983
256.19	9.783
256.55	9.628
256.92	9.579
257.28	9.765
257.65	9.705
258.01	9.619
258.37	9.423
258.74	9.399
259.10	9.678
259.46	9.635
259.83	9.511
260.19	9.620
260.55	9.674
260.92	9.753
261.28	9.523
261.64	9.798
262.01	9.935
262.37	9.926
262.73	10.082
263.10	9.868
263.46	9.733
263.82	9.551
264.19	9.268
264.55	9.394
264.91	9.473
265.28	9.743
265.64	9.363
266.00	9.207
266.37	9.622
266.73	9.812
267.09	9.496
267.46	9.112
267.82	9.014
268.18	9.000
268.54	8.742
268.91	8.836
269.27	8.635
269.63	8.442
270.00	8.618
270.36	8.384
270.72	8.038
271.08	8.228
271.45	8.505
271.81	8.670
272.17	9.125
272.53	9.457
272.90	9.465
273.26	9.625
273.62	9.864
273.98	10.024
274.35	10.074
274.71	10.120
275.07	10.350
275.43	10.497
275.80	10.519
276.16	10.005
276.52	9.489
276.88	9.269
277.25	8.914
277.61	9.047
277.97	9.014
278.33	9.185
278.69	9.092
279.06	8.682
279.42	8.629
279.78	8.571
280.14	8.494
280.50	8.813
280.87	8.807
281.23	8.832
281.59	8.711
281.95	8.722
282.31	8.441
282.68	8.678
283.04	8.709
283.40	8.480
283.76	8.383
284.12	8.282
284.48	8.064
284.85	8.044
285.21	8.093
285.57	7.948
285.93	7.853
286.29	7.921
286.65	7.839
287.02	8.033
287.38	8.153
287.74	8.357
288.10	8.477
288.46	8.639
288.82	8.609
289.18	8.457
289.54	8.502
289.91	8.505
290.27	8.667
290.63	8.900
290.99	8.834
291.35	9.026
291.71	8.827
292.07	8.904
292.43	8.865
292.79	9.114
293.16	9.439
293.52	9.689
293.88	9.871
294.24	9.966
294.60	9.970
294.96	9.994
295.32	9.990
295.68	10.182
296.04	10.378
296.40	10.480
296.76	10.432
297.12	10.647
297.49	10.748
297.85	11.095
298.21	11.287
298.57	11.475
298.93	11.815
299.29	12.161
299.65	12.504
300.01	12.513
300.37	12.837
300.73	13.130
301.09	13.165
301.45	13.385
301.81	13.395
302.17	13.507
302.53	13.655
302.89	13.746
303.25	13.714
303.61	13.811
303.97	14.207
304.33	14.459
304.69	14.766
305.05	14.967
305.41	15.194
305.77	15.288
306.13	15.474
306.49	15.595
306.85	15.669
307.21	15.765
307.57	15.819
307.93	15.642
308.29	15.638
308.65	15.564
309.01	15.526
309.37	15.398
309.73	15.446
310.09	15.434
310.45	15.583
310.81	15.625
311.17	15.662
311.53	15.746
311.89	15.921
312.25	15.917
312.61	15.992
312.96	16.148
313.32	16.333
313.68	16.207
314.04	16.203
314.40	15.933
314.76	16.108
315.12	16.277
315.48	16.229
315.84	15.981
316.20	15.858
316.56	16.022
316.92	15.870
317.27	15.858
317.63	15.883
317.99	15.771
318.35	15.889
318.71	15.780
319.07	15.780
319.43	15.691
319.79	15.904
320.15	15.961
320.50	15.834
320.86	15.916
321.22	15.803
321.58	15.819
321.94	15.824
322.30	15.960
322.66	15.857
323.01	15.713
323.37	15.833
323.73	15.780
324.09	15.924
324.45	15.813
324.81	15.869
325.17	15.873
325.52	16.006
325.88	16.046
326.24	15.878
326.60	15.932
326.96	15.986
327.31	15.739
327.67	15.791
328.03	15.654
328.39	15.551
328.75	15.588
329.11	15.617
329.46	15.448
329.82	15.573
330.18	15.639
330.54	15.669
330.90	15.625
331.25	15.871
331.61	15.711
331.97	15.715
332.33	15.857
332.68	15.772
333.04	15.751
333.40	15.820
333.76	15.663
334.11	15.655
334.47	15.560
334.83	15.498
335.19	15.389
335.54	15.386
335.90	15.278
336.26	15.122
336.62	15.020
336.97	14.959
337.33	14.832
337.69	14.770
338.05	14.797
338.40	14.837
338.76	14.874
339.12	14.836
339.48	14.816
339.83	14.786
340.19	14.901
340.55	14.944
340.90	14.903
341.26	14.991
341.62	14.928
341.97	14.748
342.33	14.660
342.69	14.741
343.04	14.750
343.40	14.856
343.76	14.879
344.12	14.801
344.47	14.783
344.83	14.786
345.19	14.772
345.54	14.898
345.90	14.894
346.26	14.869
346.61	14.587
346.97	14.599
347.32	14.477
347.68	14.464
348.04	14.570
348.39	14.508
348.75	14.500
349.11	14.446
349.46	14.395
349.82	14.441
350.18	14.426
350.53	14.641
350.89	14.493
351.24	14.429
351.60	14.349
351.96	14.200
352.31	14.113
352.67	14.091
353.02	14.003
353.38	14.013
353.74	13.975
354.09	13.969
354.45	13.841
354.80	13.931
355.16	14.037
355.52	14.053
355.87	14.042
356.23	14.123
356.58	14.124
356.94	14.182
357.29	14.110
357.65	14.101
358.00	14.069
358.36	14.071
358.72	14.033
359.07	13.891
359.43	13.862
359.78	13.851
360.14	13.814
360.49	13.785
360.85	13.704
361.20	13.716
361.56	13.676
361.91	13.679
362.27	13.686
362.62	13.692
362.98	13.755
363.33	13.746
363.69	13.793
364.04	13.714
364.40	13.706
364.75	13.697
365.11	13.611
365.46	13.504
365.82	13.450
366.17	13.417
366.53	13.339
366.88	13.255
367.24	13.297
367.59	13.285
367.95	13.355
368.30	13.370
368.66	13.396
369.01	13.433
369.37	13.514
369.72	13.538
370.08	13.511
370.43	13.514
370.78	13.572
371.14	13.501
371.49	13.421
371.85	13.391
372.20	13.333
372.56	13.318
372.91	13.262
373.26	13.283
373.62	13.217
373.97	13.187
374.33	13.213
374.68	13.196
375.03	13.208
375.39	13.153
375.74	13.132
376.10	13.095
376.45	13.085
376.80	13.121
377.16	12.994
377.51	12.986
377.87	13.048
378.22	13.010
378.57	13.020
378.93	13.011
379.28	13.064
379.63	13.029
379.99	13.038
380.34	12.962
380.70	12.981
381.05	12.989
381.40	13.012
381.76	12.909
382.11	12.833
382.46	12.814
382.82	12.732
383.17	12.679
383.52	12.654
383.88	12.580
384.23	12.585
384.58	12.510
384.94	12.556
385.29	12.551
385.64	12.543
385.99	12.559
386.35	12.533
386.70	12.552
387.05	12.519
387.41	12.539
387.76	12.531
388.11	12.515
388.47	12.461
388.82	12.430
389.17	12.396
389.52	12.354
389.88	12.335
390.23	12.312
390.58	12.247
390.93	12.292
391.29	12.258
391.64	12.276
391.99	12.308
392.34	12.369
392.70	12.361
393.05	12.356
393.40	12.377
393.75	12.362
394.11	12.333
394.46	12.346
394.81	12.271
395.16	12.250
395.52	12.231
395.87	12.157
396.22	12.069
396.57	11.996
396.92	11.919
397.28	11.903
397.63	11.839
397.98	11.829
398.33	11.802
398.68	11.788
399.04	11.768
399.39	11.698
399.74	11.712
400.09	11.719
400.44	11.733
400.80	11.746
401.15	11.710
401.50	11.738
401.85	11.695
402.20	11.706
402.55	11.722
402.90	11.707
403.26	11.704
403.61	11.657
403.96	11.648
404.31	11.657
404.66	11.589
405.01	11.564
405.36	11.537
405.72	11.527
406.07	11.493
406.42	11.495
406.77	11.471
407.12	11.450
407.47	11.439
407.82	11.421
408.17	11.359
408.53	11.398
408.88	11.409
409.23	11.384
409.58	11.375
409.93	11.368
410.28	11.337
410.63	11.329
410.98	11.322
411.33	11.262
411.68	11.254
412.03	11.244
412.38	11.208
412.73	11.177
413.09	11.139
413.44	11.110
413.79	11.090
414.14	11.041
414.49	10.988
414.84	10.976
415.19	10.964
415.54	10.915
415.89	10.871
416.24	10.868
416.59	10.831
416.94	10.827
417.29	10.785
417.64	10.739
417.99	10.729
418.34	10.707
418.69	10.675
419.04	10.649
419.39	10.637
419.74	10.642
420.09	10.612
420.44	10.604
420.79	10.587
421.14	10.577
421.49	10.579
421.84	10.563
422.19	10.575
422.54	10.585
422.89	10.610
423.24	10.598
423.59	10.589
423.94	10.596
424.29	10.597
424.64	10.623
424.99	10.684
425.34	10.695
425.68	10.717
426.03	10.750
426.38	10.753
426.73	10.739
427.08	10.787
427.43	10.803
427.78	10.812
428.13	10.813
428.48	10.801
428.83	10.766
429.18	10.763
429.53	10.768
429.87	10.719
430.22	10.714
430.57	10.724
430.92	10.695
431.27	10.695
431.62	10.675
431.97	10.671
432.32	10.647
432.67	10.640
433.01	10.636
433.36	10.619
433.71	10.624
434.06	10.625
434.41	10.610
434.76	10.630
435.11	10.656
435.45	10.678
435.80	10.679
436.15	10.679
436.50	10.667
436.85	10.660
437.20	10.634
437.54	10.637
437.89	10.612
438.24	10.594
438.59	10.561
438.94	10.512
439.29	10.480
439.63	10.456
439.98	10.444
440.33	10.439
440.68	10.424
441.03	10.403
441.37	10.373
441.72	10.386
442.07	10.407
442.42	10.416
442.76	10.429
443.11	10.432
443.46	10.438
443.81	10.436
444.16	10.417
444.50	10.419
444.85	10.434
445.20	10.447
445.55	10.427
445.89	10.396
446.24	10.384
446.59	10.390
446.94	10.393
447.28	10.397
447.63	10.416
447.98	10.417
448.32	10.409
448.67	10.404
449.02	10.406
449.37	10.449
449.71	10.466
450.06	10.494
450.41	10.489
450.75	10.495
451.10	10.482
451.45	10.465
451.79	10.483
452.14	10.488
452.49	10.501
452.84	10.495
453.18	10.468
453.53	10.462
453.88	10.427
454.22	10.386
454.57	10.379
454.92	10.397
455.26	10.386
455.61	10.369
455.95	10.359
456.30	10.356
456.65	10.318
456.99	10.297
457.34	10.291
457.69	10.284
458.03	10.282
458.38	10.287
458.73	10.273
459.07	10.269
459.42	10.260
459.76	10.261
460.11	10.269
460.46	10.321
460.80	10.325
461.15	10.322
461.49	10.346
461.84	10.366
462.19	10.364
462.53	10.349
462.88	10.357
463.22	10.369
463.57	10.378
463.91	10.367
464.26	10.372
464.61	10.371
464.95	10.396
465.30	10.379
465.64	10.377
465.99	10.367
466.33	10.387
466.68	10.365
467.02	10.362
467.37	10.353
467.71	10.333
468.06	10.302
468.41	10.300
468.75	10.265
469.10	10.263
469.44	10.252
469.79	10.234
470.13	10.220
470.48	10.219
470.82	10.223
471.17	10.222
471.51	10.229
471.86	10.239
472.20	10.216
472.55	10.209
472.89	10.189
473.23	10.164
473.58	10.144
473.92	10.107
474.27	10.099
474.61	10.072
474.96	10.042
475.30	10.026
475.65	9.984
475.99	10.001
476.34	9.975
476.68	9.963
477.02	9.973
477.37	9.966
477.71	9.957
478.06	9.936
478.40	9.932
478.75	9.977
479.09	10.020
479.43	10.069
479.78	10.129
480.12	10.204
480.47	10.286
480.81	10.354
481.15	10.442
481.50	10.537
481.84	10.663
482.19	10.784
482.53	10.857
482.87	10.856
483.22	10.787
483.56	10.637
483.90	10.490
484.25	10.374
484.59	10.305
484.94	10.214
485.28	10.109
485.62	9.976
485.97	9.827
486.31	9.704
486.65	9.652
487.00	9.688
487.34	9.798
487.68	9.897
488.03	9.952
488.37	9.939
488.71	9.947
489.06	9.937
489.40	9.913
489.74	9.907
490.09	9.898
490.43	9.885
490.77	9.857
491.11	9.845
491.46	9.839
491.80	9.824
492.14	9.815
492.49	9.783
492.83	9.775
493.17	9.748
493.51	9.719
493.86	9.694
494.20	9.678
494.54	9.671
494.88	9.679
495.23	9.681
495.57	9.675
495.91	9.673
496.25	9.670
496.60	9.659
496.94	9.664
497.28	9.657
497.62	9.648
497.97	9.632
498.31	9.622
498.65	9.594
498.99	9.590
499.33	9.609
499.68	9.594
500.02	9.591
500.36	9.589
500.70	9.596
501.04	9.590
501.39	9.595
501.73	9.588
502.07	9.597
502.41	9.593
502.75	9.606
503.09	9.590
503.44	9.569
503.78	9.549
504.12	9.552
504.46	9.545
504.80	9.545
505.14	9.540
505.49	9.556
505.83	9.532
506.17	9.527
506.51	9.501
506.85	9.492
507.19	9.505
507.53	9.504
507.87	9.492
508.22	9.485
508.56	9.491
508.90	9.474
509.24	9.469
509.58	9.483
509.92	9.465
510.26	9.456
510.60	9.435
510.94	9.422
511.28	9.427
511.63	9.410
511.97	9.399
512.31	9.377
512.65	9.399
512.99	9.398
513.33	9.395
513.67	9.406
514.01	9.427
514.35	9.448
514.69	9.449
515.03	9.446
515.37	9.450
515.71	9.455
516.05	9.447
516.39	9.430
516.73	9.410
517.07	9.391
517.41	9.399
517.75	9.384
518.09	9.361
518.43	9.354
518.77	9.337
519.11	9.313
519.45	9.293
519.79	9.281
520.13	9.255
520.47	9.267
520.81	9.285
521.15	9.259
521.49	9.245
521.83	9.229
522.17	9.219
522.51	9.227
522.85	9.253
523.19	9.270
523.53	9.302
523.87	9.339
524.21	9.357
524.55	9.384
524.89	9.427
525.23	9.465
525.57	9.509
525.91	9.549
526.25	9.577
526.58	9.609
526.92	9.625
527.26	9.643
527.60	9.646
527.94	9.635
528.28	9.608
528.62	9.578
528.96	9.545
529.30	9.507
529.64	9.471
529.97	9.428
530.31	9.371
530.65	9.331
530.99	9.277
531.33	9.245
531.67	9.232
532.01	9.238
532.35	9.243
532.68	9.249
533.02	9.245
533.36	9.243
533.70	9.230
534.04	9.231
534.38	9.219
534.71	9.217
535.05	9.213
535.39	9.200
535.73	9.188
536.07	9.162
536.41	9.158
536.74	9.163
537.08	9.163
537.42	9.184
537.76	9.191
538.10	9.209
538.43	9.227
538.77	9.233
539.11	9.262
539.45	9.264
539.79	9.273
540.12	9.266
540.46	9.259
540.80	9.235
541.14	9.229
541.47	9.214
541.81	9.192
542.15	9.166
542.49	9.151
542.82	9.111
543.16	9.092
543.50	9.080
543.84	9.061
544.17	9.036
544.51	9.044
544.85	9.031
545.18	9.025
545.52	9.034
545.86	9.061
546.20	9.060
546.53	9.061
546.87	9.050
547.21	9.039
547.54	9.039
547.88	9.071
548.22	9.089
548.55	9.072
548.89	9.049
549.23	9.033
549.56	9.001
549.90	8.995
550.24	8.996
550.57	8.991
550.91	8.987
551.25	8.984
551.58	8.965
551.92	8.948
552.26	8.978
552.59	8.995
552.93	9.015
553.27	9.004
553.60	8.992
553.94	8.993
554.27	8.997
554.61	9.001
554.95	8.992
555.28	8.989
555.62	8.972
555.95	8.940
556.29	8.944
556.63	8.949
556.96	8.951
557.30	8.952
557.63	8.943
557.97	8.948
558.31	8.936
558.64	8.939
558.98	8.933
559.31	8.900
559.65	8.880
559.98	8.863
560.32	8.834
560.65	8.834
560.99	8.829
561.33	8.814
561.66	8.790
562.00	8.799
562.33	8.789
562.67	8.780
563.00	8.806
563.34	8.819
563.67	8.823
564.01	8.811
564.34	8.786
564.68	8.785
565.01	8.770
565.35	8.780
565.68	8.762
566.02	8.778
566.35	8.793
566.69	8.770
567.02	8.759
567.36	8.768
567.69	8.758
568.03	8.763
568.36	8.760
568.69	8.785
569.03	8.806
569.36	8.806
569.70	8.792
570.03	8.786
570.37	8.802
570.70	8.806
571.04	8.781
571.37	8.775
571.70	8.757
572.04	8.757
572.37	8.755
572.71	8.729
573.04	8.708
573.37	8.692
573.71	8.697
574.04	8.702
574.38	8.691
574.71	8.714
575.04	8.736
575.38	8.771
575.71	8.780
576.05	8.777
576.38	8.782
576.71	8.796
577.05	8.820
577.38	8.808
577.71	8.799
578.05	8.797
578.38	8.775
578.71	8.775
579.05	8.739
579.38	8.713
579.71	8.690
580.05	8.708
580.38	8.718
580.71	8.694
581.05	8.673
581.38	8.659
581.71	8.664
582.05	8.648
582.38	8.602
582.71	8.615
583.04	8.628
583.38	8.631
583.71	8.598
584.04	8.576
584.38	8.573
584.71	8.571
585.04	8.566
585.37	8.562
585.71	8.575
586.04	8.586
586.37	8.585
586.70	8.562
587.04	8.565
587.37	8.555
587.70	8.532
588.03	8.497
588.37	8.467
588.70	8.464
589.03	8.442
589.36	8.420
589.69	8.396
590.03	8.365
590.36	8.362
590.69	8.356
591.02	8.337
591.35	8.320
591.69	8.304
592.02	8.301
592.35	8.302
592.68	8.277
593.01	8.259
593.35	8.253
593.68	8.208
594.01	8.171
594.34	8.142
594.67	8.100
595.00	8.078
595.34	8.060
595.67	8.055
596.00	8.017
596.33	7.985
596.66	7.963
596.99	7.929
597.32	7.955
597.65	7.922
597.99	7.868
598.32	7.859
598.65	7.829
598.98	7.820
599.31	7.802
599.64	7.777
599.97	7.798
600.30	7.797
600.63	7.786
600.96	7.768
601.30	7.771
601.63	7.775
601.96	7.775
602.29	7.792
602.62	7.788
602.95	7.787
603.28	7.765
603.61	7.725
603.94	7.688
604.27	7.679
604.60	7.639
604.93	7.612
605.26	7.583
605.59	7.549
605.92	7.526
606.25	7.531
606.58	7.502
606.91	7.495
607.24	7.496
607.57	7.482
607.90	7.457
608.23	7.453
608.56	7.455
608.89	7.441
609.22	7.420
609.55	7.415
609.88	7.400
610.21	7.363
610.54	7.312
610.87	7.273
611.20	7.242
611.53	7.222
611.86	7.176
612.19	7.159
612.52	7.142
612.85	7.161
613.18	7.128
613.51	7.067
613.84	7.044
614.17	7.054
614.49	7.032
614.82	7.086
615.15	7.113
615.48	7.142
615.81	7.140
616.14	7.106
616.47	7.067
616.80	7.048
617.13	7.047
617.46	7.049
617.78	6.995
618.11	6.997
618.44	6.945
618.77	6.893
619.10	6.827
619.43	6.777
619.76	6.765
620.09	6.747
620.41	6.719
620.74	6.716
621.07	6.699
621.40	6.785
621.73	6.812
622.06	6.814
622.38	6.862
622.71	6.904
623.04	6.914
623.37	6.969
623.70	6.971
624.02	6.983
624.35	6.982
624.68	7.021
625.01	7.003
625.34	6.975
625.66	6.967
625.99	6.919
626.32	6.933
626.65	6.964
626.98	6.910
627.30	6.925
627.63	6.907
627.96	6.898
628.29	6.839
628.61	6.786
628.94	6.768
629.27	6.741
629.60	6.758
629.92	6.749
630.25	6.672
630.58	6.698
630.91	6.644
631.23	6.627
631.56	6.590
631.89	6.581
632.21	6.614
632.54	6.643
632.87	6.627
633.19	6.593
633.52	6.517
633.85	6.504
634.18	6.434
634.50	6.436
634.83	6.403
635.16	6.381
635.48	6.348
635.81	6.304
636.14	6.254
636.46	6.217
636.79	6.186
637.11	6.209
637.44	6.187
637.77	6.213
638.09	6.180
638.42	6.150
638.75	6.145
639.07	6.141
639.40	6.101
639.73	6.057
640.05	6.030
640.38	5.995
640.70	5.923
641.03	5.943
641.36	5.935
641.68	5.940
642.01	5.995
642.33	6.013
642.66	6.003
642.98	6.033
643.31	6.043
643.64	6.128
643.96	6.198
644.29	6.259
644.61	6.248
644.94	6.275
645.26	6.331
645.59	6.336
645.91	6.333
646.24	6.352
646.56	6.338
646.89	6.347
647.22	6.312
647.54	6.293
647.87	6.273
648.19	6.264
648.52	6.266
648.84	6.184
649.17	6.207
649.49	6.173
649.82	6.175
650.14	6.176
650.47	6.182
650.79	6.160
651.11	6.086
651.44	6.086
651.76	6.110
652.09	6.079
652.41	6.124
652.74	6.059
653.06	6.064
653.39	6.076
653.71	6.084
654.04	6.107
654.36	6.130
654.68	6.219
655.01	6.263
655.33	6.310
655.66	6.362
655.98	6.380
656.30	6.418
656.63	6.410
656.95	6.392
657.28	6.406
657.60	6.440
657.92	6.403
658.25	6.362
658.57	6.300
658.90	6.221
659.22	6.121
659.54	6.040
659.87	5.966
660.19	5.945
660.51	5.902
660.84	5.838
661.16	5.730
661.48	5.744
661.81	5.717
662.13	5.697
662.45	5.718
662.78	5.703
663.10	5.725
663.42	5.737
663.75	5.694
664.07	5.718
664.39	5.635
664.72	5.640
665.04	5.653
665.36	5.618
665.69	5.634
666.01	5.580
666.33	5.568
666.65	5.601
666.98	5.588
667.30	5.666
667.62	5.673
667.94	5.755
668.27	5.776
668.59	5.741
668.91	5.772
669.23	5.772
669.56	5.756
669.88	5.719
670.20	5.609
670.52	5.654
670.85	5.628
671.17	5.581
671.49	5.554
671.81	5.520
672.13	5.490
672.46	5.430
672.78	5.410
673.10	5.429
673.42	5.495
673.74	5.546
674.07	5.538
674.39	5.536
674.71	5.551
675.03	5.615
675.35	5.636
675.67	5.688
676.00	5.750
676.32	5.744
676.64	5.816
676.96	5.898
677.28	5.961
677.60	5.942
677.92	5.938
678.25	5.981
678.57	5.979
678.89	5.987
679.21	6.006
679.53	6.018
679.85	5.993
680.17	5.970
680.49	5.891
680.81	5.867
681.13	5.911
681.46	5.888
681.78	5.876
682.10	5.873
682.42	5.885
682.74	5.849
683.06	5.868
683.38	5.950
683.70	5.994
684.02	6.079
684.34	6.076
684.66	6.112
684.98	6.204
685.30	6.231
685.62	6.269
685.94	6.301
686.26	6.306
686.58	6.288
686.90	6.328
687.22	6.265
687.54	6.252
687.86	6.253
688.18	6.211
688.50	6.129
688.82	6.157
689.14	6.072
689.46	6.016
689.78	6.023
690.10	6.005
690.42	5.888
690.74	5.885
691.06	5.891
691.38	5.875
691.70	5.829
692.02	5.840
692.34	5.737
692.66	5.703
692.98	5.685
693.30	5.746
693.62	5.741
693.94	5.839
694.26	5.886
694.57	5.915
694.89	5.961
695.21	5.981
695.53	6.058
695.85	6.111
696.17	6.200
696.49	6.213
696.81	6.205
697.13	6.306
697.44	6.306
697.76	6.304
698.08	6.262
698.40	6.237
698.72	6.130
699.04	6.024
699.36	5.908
699.67	5.784
699.99	5.713
700.31	5.588
700.63	5.424
700.95	5.268
701.27	5.129
701.58	5.046
701.90	4.911
702.22	4.929
702.54	4.979
702.86	4.986
703.17	5.008
703.49	4.947
703.81	4.973
704.13	4.868
704.45	4.796
704.76	4.803
705.08	4.751
705.40	4.805
705.72	4.826
706.03	4.816
706.35	4.872
706.67	4.928
706.99	4.998
707.30	4.965
707.62	5.049
707.94	5.204
708.26	5.217
708.57	5.322
708.89	5.385
709.21	5.405
709.53	5.425
709.84	5.466
710.16	5.432
710.48	5.469
710.79	5.544
711.11	5.549
711.43	5.562
711.74	5.631
712.06	5.605
712.38	5.654
712.69	5.750
713.01	5.789
713.33	5.761
713.64	5.911
713.96	6.038
714.28	6.100
714.59	6.264
714.91	6.374
715.23	6.473
715.54	6.462
715.86	6.525
716.17	6.567
716.49	6.533
716.81	6.636
717.12	6.539
717.44	6.435
717.76	6.359
718.07	6.214
718.39	6.102
718.70	5.956
719.02	5.973
719.33	5.871
719.65	5.848
719.97	5.843
720.28	5.818
720.60	5.779
720.91	5.852
721.23	5.777
721.54	5.843
721.86	5.949
722.17	6.081
722.49	6.089
722.81	6.111
723.12	6.124
723.44	6.249
723.75	6.168
724.07	6.171
724.38	6.222
724.70	6.311
725.01	6.352
725.33	6.433
725.64	6.349
725.96	6.363
726.27	6.454
726.59	6.498
726.90	6.378
727.22	6.497
727.53	6.613
727.84	6.488
728.16	6.473
728.47	6.554
728.79	6.384
729.10	6.364
729.42	6.469
729.73	6.337
730.05	6.321
730.36	6.286
730.67	6.187
730.99	6.011
731.30	5.887
731.62	5.951
731.93	5.735
732.24	5.551
732.56	5.477
732.87	5.281
733.19	5.168
733.50	5.071
733.81	5.050
734.13	4.861
734.44	4.888
734.76	4.970
735.07	4.865
735.38	4.815
735.70	4.810
736.01	4.816
736.32	4.805
736.64	4.690
736.95	4.545
737.26	4.539
737.58	4.575
737.89	4.497
738.20	4.346
738.52	4.204
738.83	4.224
739.14	4.275
739.45	4.205
739.77	3.962
740.08	3.986
740.39	3.776
740.71	3.600
741.02	3.491
741.33	3.377
741.64	3.288
741.96	3.251
742.27	3.088
742.58	2.949
742.90	2.888
743.21	2.949
743.52	3.055
743.83	3.127
744.14	3.031
744.46	3.008
744.77	3.088
745.08	3.258
745.39	3.290
745.71	3.434
746.02	3.468
746.33	3.465
746.64	3.701
746.95	3.596
747.27	3.614
747.58	3.857
747.89	3.962
748.20	3.810
748.51	3.659
748.82	3.648
749.14	3.545
749.45	3.559
749.76	3.565
750.07	3.406
750.38	3.539
750.69	3.522
751.01	3.502
751.32	3.395
751.63	3.387
751.94	3.422
752.25	3.349
752.56	3.352
752.87	3.345
753.18	3.351
753.49	3.348
753.81	3.329
754.12	3.403
754.43	3.355
754.74	3.612
755.05	3.854
755.36	3.991
755.67	4.376
755.98	4.672
756.29	4.908
756.60	5.258
756.91	5.643
757.22	5.936
757.53	6.262
757.84	6.620
758.15	6.995
758.46	7.358
758.77	7.765
759.09	8.018
759.40	8.221
759.71	8.427
760.02	8.513
760.33	8.493
760.64	8.517
760.95	8.608
761.26	8.532
761.57	8.321
761.88	8.218
762.18	8.065
762.49	7.883
762.80	7.720
763.11	7.587
763.42	7.360
763.73	7.186
764.04	6.865
764.35	6.580
764.66	6.372
764.97	6.112
765.28	5.779
765.59	5.313
765.90	4.978
766.21	4.556
766.52	4.112
766.83	3.864
767.14	3.580
767.44	3.486
767.75	3.224
768.06	2.887
768.37	2.809
768.68	2.788
768.99	2.875
769.30	2.453
769.61	2.426
769.91	2.405
770.22	2.368
770.53	2.190
770.84	1.870
771.15	1.787
771.46	1.816
771.77	1.766
772.07	1.600
772.38	1.526
772.69	1.691
773.00	1.447
773.31	1.475
773.61	1.292
773.92	1.567
774.23	1.795
774.54	1.592
774.85	1.880
775.15	1.831
775.46	1.546
775.77	1.417
776.08	1.429
776.39	1.453
776.69	1.470
777.00	1.507
777.31	1.287
777.62	1.262
777.92	1.670
778.23	1.259
778.54	1.176
778.85	1.568
779.15	1.776
779.46	1.902
779.77	2.087
780.07	1.958
780.38	1.943
780.69	1.859
781.00	1.892
781.30	1.756
781.61	1.843
781.92	2.095
782.22	2.013
782.53	1.938
782.84	1.774
783.14	1.693
783.45	1.741
783.76	1.901
784.06	2.061
784.37	2.222
784.68	2.320
784.98	2.648
785.29	2.922
785.60	3.042
785.90	3.505
786.21	3.722
786.51	3.920
786.82	4.023
787.13	4.170
787.43	4.273
787.74	4.485
788.04	4.599
788.35	4.414
788.66	4.149
788.96	4.142
789.27	3.946
789.57	4.086
789.88	3.919
790.19	4.004
790.49	4.013
790.80	4.052
791.10	4.147
791.41	4.044
791.71	4.158
792.02	4.070
792.32	3.885
792.63	3.801
792.93	3.577
793.24	3.823
793.54	4.168
793.85	4.363
794.15	4.425
794.46	4.168
794.76	4.301
795.07	4.384
795.37	4.526
795.68	4.801
795.98	4.679
796.29	5.023
796.59	4.950
796.90	4.837
797.20	4.667
797.51	4.865
797.81	4.865
798.12	4.943
798.42	5.406
798.72	5.329
799.03	5.506
799.33	5.672
799.64	5.431
799.94	5.611
800.25	5.269
800.55	5.237
800.85	5.102
801.16	5.405
801.46	5.311
801.77	4.643
802.07	4.938
802.37	4.682
802.68	4.911
802.98	5.317
803.28	5.317
803.59	5.669
803.89	5.664
804.20	5.699
804.50	5.669
804.80	5.575
805.11	5.578
805.41	5.516
805.71	5.645
806.02	5.471
806.32	5.221
806.62	5.338
806.93	5.369
807.23	5.667
807.53	5.774
807.83	5.932
808.14	6.131
808.44	6.512
808.74	6.822
809.05	6.983
809.35	7.135
809.65	7.232
809.95	7.365
810.26	7.584
810.56	7.514
810.86	7.449
811.16	7.157
811.47	7.453
811.77	7.764
812.07	7.622
812.37	7.475
812.68	7.928
812.98	7.760
813.28	7.772
813.58	7.902
813.88	7.877
814.19	8.571
814.49	9.034
814.79	8.972
815.09	8.477
815.39	8.563
815.70	9.197
816.00	8.843
816.30	9.025
816.60	9.030
816.90	8.970
817.20	9.407
817.50	9.231
817.81	9.368
818.11	9.498
818.41	9.887
818.71	10.065
819.01	10.131
819.31	10.251
819.61	10.439
819.92	10.548
820.22	10.668
820.52	10.657
820.82	10.699
821.12	10.677
821.42	10.658
821.72	10.662
822.02	10.585
822.32	10.576
822.62	10.590
822.92	10.526
823.22	10.465
823.52	10.432
823.83	10.393
824.13	10.356
824.43	10.346
824.73	10.403
825.03	10.370
825.33	10.500
825.63	10.438
825.93	10.348
826.23	10.271
826.53	10.326
826.83	10.245
827.13	10.138
827.43	10.061
827.73	10.072
828.03	10.028
828.33	10.049
828.63	9.852
828.93	9.892
829.23	10.022
829.53	10.102
829.83	9.915
830.13	9.862
830.42	10.113
830.72	10.035
831.02	10.019
831.32	10.097
831.62	9.909
831.92	10.116
832.22	10.033
832.52	10.040
832.82	10.218
833.12	10.261
833.42	10.134
833.72	9.890
834.01	9.936
834.31	9.550
834.61	9.299
834.91	9.154
835.21	8.855
835.51	8.437
835.81	7.768
836.11	7.360
836.40	7.337
836.70	7.072
837.00	7.209
837.30	7.406
837.60	7.930
837.90	7.862
838.19	7.810
838.49	8.401
838.79	8.955
839.09	9.900
839.39	9.955
839.68	9.491
839.98	9.740
840.28	9.877
840.58	9.416
840.88	8.767
841.17	8.605
841.47	9.098
841.77	7.845
842.07	7.948
842.36	7.468
842.66	7.137
842.96	6.728
843.26	5.971
843.55	4.719
843.85	3.733
844.15	3.797
844.45	3.744
844.74	3.574
845.04	4.192
845.34	3.152
845.63	3.048
845.93	3.416
846.23	4.628
846.53	5.109
846.82	4.884
847.12	4.698
847.42	4.044
847.71	3.980
848.01	2.992
848.31	3.604
848.60	4.782
848.90	4.895
849.19	4.622
849.49	2.826
849.79	2.441
850.08	4.437
850.38	5.428
850.68	6.139
850.97	6.890
851.27	6.580
851.56	5.476
851.86	3.699
852.16	4.034
852.45	3.934
852.75	4.839
853.04	4.558
853.34	4.289
853.64	4.797
853.93	5.608
854.23	5.885
854.52	7.213
854.82	7.259
855.11	9.111
855.41	7.695
855.70	7.404
856.00	7.416
856.30	8.232
856.59	6.635
856.89	6.096
857.18	5.330
857.48	4.933
857.77	5.368
858.07	7.402
858.36	6.845
858.66	7.184
858.95	7.887
859.25	7.895
859.54	7.975
859.84	8.094
860.13	7.410
860.42	8.345
860.72	8.655
861.01	6.924
861.31	5.806
861.60	5.251
861.90	6.930
862.19	5.617
862.49	5.681
862.78	6.509
863.07	6.336
863.37	7.491
863.66	7.344
863.96	7.555
864.25	8.821
864.54	8.967
864.84	8.976
865.13	7.794
865.43	7.819
865.72	9.840
866.01	10.043
866.31	6.926
866.60	5.316
866.89	-4.319
>>>>>End Spectral Data<<<<<
