OOIBase32 Version 2.0.0.6 Data File
++++++++++++++++++++++++++++++++++++
Date: 01-22-2012, 12:51:10
User: Valued Ocean Optics Customer
Spectrometer Serial Number: USB2E2917
Spectrometer Channel: Master
Integration Time (msec): 5
Spectra Averaged: 10
Boxcar Smoothing: 5
Correct for Electrical Dark: Enabled
Time Normalized: Disabled
Dual-beam Reference: Disabled
Reference Channel: Master
Temperature: Not acquired
Spectrometer Type: S2000
ADC Type: USB2000
Number of Pixels in File: 2048
Graph Title: 
>>>>>Begin Spectral Data<<<<<
180.30	0.000
180.67	0.000
181.03	67.175
181.40	-7.830
181.77	-29.635
182.14	116.505
182.51	5.010
182.88	85.938
183.25	257.523
183.62	131.196
183.99	73.209
184.36	-134.105
184.73	-73.139
185.10	116.810
185.46	-97.312
185.83	84.711
186.20	53.459
186.57	-120.598
186.94	-1349.435
187.31	168.251
187.68	365.591
188.05	-37.208
188.42	-7.348
188.78	68.535
189.15	190.792
189.52	96.251
189.89	88.156
190.26	44.004
190.63	43.887
191.00	35.281
191.37	56.032
191.73	62.663
192.10	66.137
192.47	72.033
192.84	69.483
193.21	51.252
193.58	51.326
193.94	38.248
194.31	59.358
194.68	54.407
195.05	71.033
195.42	36.491
195.79	38.548
196.15	48.728
196.52	41.827
196.89	31.015
197.26	49.768
197.63	43.401
198.00	32.836
198.36	-9.867
198.73	-19.410
199.10	-31.189
199.47	-21.788
199.84	-69.674
200.20	-81.845
200.57	-120.388
200.94	-81.260
201.31	-99.917
201.68	-81.758
202.04	-63.646
202.41	-44.759
202.78	-22.869
203.15	-17.857
203.51	-27.108
203.88	-26.188
204.25	-32.474
204.62	-2.059
204.98	6.560
205.35	4.376
205.72	-11.354
206.09	-26.007
206.46	-11.333
206.82	-2.311
207.19	0.037
207.56	15.569
207.92	24.267
208.29	37.240
208.66	30.893
209.03	30.474
209.39	30.828
209.76	39.876
210.13	30.716
210.50	21.775
210.86	18.933
211.23	5.776
211.60	6.427
211.96	-2.763
212.33	-11.197
212.70	-11.101
213.07	-19.239
213.43	-17.046
213.80	-31.666
214.17	-6.389
214.53	-3.357
214.90	-2.964
215.27	0.030
215.63	-4.720
216.00	-5.485
216.37	-10.634
216.74	-11.499
217.10	-10.062
217.47	-15.306
217.84	4.900
218.20	-9.061
218.57	-5.752
218.94	1.335
219.30	3.237
219.67	-4.198
220.04	6.655
220.40	5.160
220.77	11.303
221.13	9.545
221.50	9.445
221.87	3.443
222.23	9.936
222.60	8.653
222.97	1.588
223.33	7.138
223.70	9.977
224.07	4.895
224.43	8.218
224.80	7.162
225.16	7.726
225.53	6.454
225.90	4.907
226.26	2.653
226.63	1.345
226.99	2.149
227.36	0.773
227.73	0.547
228.09	1.636
228.46	2.072
228.82	2.646
229.19	3.535
229.56	4.768
229.92	4.177
230.29	6.509
230.65	9.017
231.02	9.690
231.38	9.963
231.75	10.463
232.12	11.293
232.48	10.573
232.85	9.715
233.21	7.570
233.58	6.006
233.94	7.687
234.31	7.716
234.68	6.499
235.04	5.354
235.41	5.135
235.77	3.327
236.14	1.768
236.50	0.454
236.87	0.049
237.23	1.631
237.60	2.056
237.96	2.132
238.33	1.758
238.69	1.437
239.06	2.331
239.42	2.712
239.79	3.612
240.15	3.864
240.52	3.848
240.88	4.336
241.25	3.804
241.61	4.297
241.98	4.642
242.34	4.494
242.71	4.573
243.07	3.942
243.44	4.182
243.80	3.759
244.17	3.713
244.53	3.966
244.90	3.527
245.26	3.611
245.63	3.590
245.99	3.395
246.36	3.329
246.72	3.230
247.09	3.504
247.45	3.769
247.81	4.193
248.18	4.089
248.54	4.076
248.91	4.082
249.27	4.394
249.64	3.998
250.00	3.966
250.36	3.792
250.73	4.046
251.09	3.931
251.46	3.353
251.82	2.947
252.19	3.615
252.55	3.766
252.91	4.745
253.28	4.118
253.64	4.229
254.01	4.227
254.37	4.251
254.73	3.665
255.10	3.531
255.46	3.278
255.83	3.530
256.19	2.959
256.55	2.963
256.92	2.727
257.28	2.843
257.65	2.890
258.01	3.261
258.37	3.470
258.74	3.766
259.10	3.788
259.46	3.779
259.83	3.825
260.19	4.276
260.55	4.295
260.92	4.404
261.28	4.719
261.64	4.928
262.01	4.438
262.37	4.350
262.73	4.112
263.10	4.038
263.46	3.834
263.82	3.524
264.19	3.163
264.55	3.117
264.91	2.997
265.28	2.859
265.64	3.113
266.00	3.195
266.37	3.202
266.73	3.339
267.09	3.543
267.46	3.692
267.82	3.719
268.18	3.764
268.54	3.779
268.91	4.194
269.27	4.128
269.63	3.978
270.00	4.030
270.36	3.999
270.72	3.962
271.08	3.601
271.45	3.926
271.81	4.028
272.17	3.889
272.53	3.808
272.90	3.353
273.26	3.223
273.62	3.282
273.98	3.207
274.35	3.435
274.71	3.522
275.07	3.634
275.43	3.423
275.80	3.345
276.16	3.442
276.52	3.402
276.88	3.802
277.25	4.014
277.61	3.797
277.97	3.811
278.33	3.681
278.69	3.487
279.06	3.605
279.42	3.420
279.78	3.409
280.14	3.311
280.50	3.226
280.87	2.939
281.23	2.961
281.59	2.956
281.95	3.003
282.31	2.882
282.68	3.129
283.04	3.179
283.40	3.260
283.76	3.316
284.12	3.523
284.48	3.716
284.85	3.641
285.21	3.501
285.57	3.312
285.93	3.263
286.29	3.435
286.65	3.051
287.02	3.076
287.38	2.958
287.74	2.882
288.10	2.711
288.46	2.570
288.82	2.739
289.18	2.840
289.54	3.357
289.91	3.560
290.27	3.629
290.63	3.853
290.99	3.688
291.35	3.854
291.71	3.849
292.07	3.967
292.43	3.977
292.79	4.081
293.16	4.075
293.52	4.045
293.88	3.952
294.24	3.798
294.60	3.862
294.96	4.080
295.32	4.059
295.68	4.172
296.04	4.218
296.40	4.319
296.76	4.208
297.12	4.334
297.49	4.227
297.85	4.186
298.21	4.184
298.57	4.246
298.93	4.022
299.29	4.122
299.65	4.187
300.01	4.211
300.37	4.261
300.73	4.297
301.09	4.149
301.45	4.182
301.81	4.213
302.17	4.241
302.53	4.463
302.89	4.755
303.25	4.721
303.61	4.656
303.97	4.571
304.33	4.460
304.69	4.632
305.05	4.726
305.41	4.787
305.77	4.954
306.13	4.998
306.49	4.847
306.85	4.669
307.21	4.627
307.57	4.580
307.93	4.681
308.29	4.720
308.65	4.677
309.01	4.656
309.37	4.599
309.73	4.393
310.09	4.401
310.45	4.330
310.81	4.408
311.17	4.543
311.53	4.614
311.89	4.532
312.25	4.575
312.61	4.531
312.96	4.534
313.32	4.426
313.68	4.582
314.04	4.526
314.40	4.621
314.76	4.519
315.12	4.469
315.48	4.495
315.84	4.560
316.20	4.567
316.56	4.558
316.92	4.593
317.27	4.748
317.63	4.572
317.99	4.497
318.35	4.485
318.71	4.618
319.07	4.569
319.43	4.545
319.79	4.586
320.15	4.693
320.50	4.647
320.86	4.540
321.22	4.485
321.58	4.638
321.94	4.760
322.30	4.694
322.66	4.577
323.01	4.500
323.37	4.417
323.73	4.489
324.09	4.489
324.45	4.492
324.81	4.520
325.17	4.526
325.52	4.529
325.88	4.595
326.24	4.612
326.60	4.744
326.96	4.846
327.31	4.843
327.67	4.767
328.03	4.735
328.39	4.870
328.75	5.072
329.11	5.182
329.46	5.226
329.82	5.216
330.18	5.323
330.54	5.304
330.90	5.501
331.25	5.598
331.61	5.549
331.97	5.533
332.33	5.555
332.68	5.394
333.04	5.510
333.40	5.585
333.76	5.619
334.11	5.681
334.47	5.725
334.83	5.579
335.19	5.625
335.54	5.568
335.90	5.515
336.26	5.484
336.62	5.576
336.97	5.344
337.33	5.270
337.69	5.233
338.05	5.129
338.40	4.997
338.76	5.024
339.12	4.905
339.48	5.041
339.83	5.231
340.19	5.213
340.55	5.149
340.90	5.252
341.26	5.347
341.62	5.417
341.97	5.521
342.33	5.607
342.69	5.637
343.04	5.732
343.40	5.647
343.76	5.558
344.12	5.617
344.47	5.617
344.83	5.610
345.19	5.424
345.54	5.278
345.90	5.150
346.26	5.047
346.61	4.942
346.97	4.847
347.32	4.854
347.68	4.796
348.04	4.621
348.39	4.566
348.75	4.517
349.11	4.469
349.46	4.495
349.82	4.490
350.18	4.542
350.53	4.550
350.89	4.508
351.24	4.368
351.60	4.315
351.96	4.271
352.31	4.295
352.67	4.210
353.02	4.303
353.38	4.351
353.74	4.407
354.09	4.414
354.45	4.433
354.80	4.495
355.16	4.685
355.52	4.725
355.87	4.873
356.23	4.998
356.58	5.163
356.94	5.192
357.29	5.119
357.65	5.141
358.00	5.138
358.36	5.216
358.72	5.290
359.07	5.306
359.43	5.268
359.78	5.219
360.14	5.153
360.49	5.079
360.85	5.029
361.20	5.062
361.56	4.977
361.91	4.981
362.27	4.841
362.62	4.754
362.98	4.625
363.33	4.572
363.69	4.535
364.04	4.482
364.40	4.409
364.75	4.382
365.11	4.346
365.46	4.381
365.82	4.362
366.17	4.506
366.53	4.534
366.88	4.550
367.24	4.695
367.59	4.757
367.95	4.835
368.30	4.883
368.66	4.975
369.01	5.017
369.37	5.020
369.72	5.060
370.08	4.995
370.43	5.000
370.78	5.057
371.14	5.013
371.49	5.045
371.85	5.034
372.20	5.080
372.56	5.060
372.91	5.048
373.26	5.049
373.62	5.042
373.97	5.042
374.33	5.065
374.68	5.047
375.03	5.063
375.39	5.067
375.74	5.097
376.10	5.091
376.45	5.126
376.80	5.205
377.16	5.283
377.51	5.400
377.87	5.506
378.22	5.584
378.57	5.713
378.93	5.817
379.28	5.937
379.63	6.014
379.99	6.145
380.34	6.271
380.70	6.374
381.05	6.423
381.40	6.440
381.76	6.432
382.11	6.496
382.46	6.503
382.82	6.498
383.17	6.444
383.52	6.452
383.88	6.468
384.23	6.482
384.58	6.456
384.94	6.482
385.29	6.523
385.64	6.533
385.99	6.518
386.35	6.521
386.70	6.523
387.05	6.583
387.41	6.592
387.76	6.602
388.11	6.665
388.47	6.708
388.82	6.768
389.17	6.818
389.52	6.877
389.88	6.996
390.23	7.099
390.58	7.226
390.93	7.314
391.29	7.457
391.64	7.558
391.99	7.579
392.34	7.623
392.70	7.674
393.05	7.700
393.40	7.738
393.75	7.680
394.11	7.626
394.46	7.590
394.81	7.555
395.16	7.435
395.52	7.342
395.87	7.251
396.22	7.171
396.57	7.063
396.92	6.988
397.28	6.947
397.63	6.947
397.98	6.932
398.33	6.864
398.68	6.811
399.04	6.815
399.39	6.823
399.74	6.863
400.09	6.920
400.44	6.965
400.80	7.003
401.15	7.034
401.50	7.091
401.85	7.185
402.20	7.261
402.55	7.315
402.90	7.370
403.26	7.436
403.61	7.435
403.96	7.435
404.31	7.466
404.66	7.497
405.01	7.524
405.36	7.506
405.72	7.467
406.07	7.475
406.42	7.498
406.77	7.526
407.12	7.500
407.47	7.547
407.82	7.618
408.17	7.634
408.53	7.634
408.88	7.620
409.23	7.619
409.58	7.642
409.93	7.594
410.28	7.610
410.63	7.589
410.98	7.645
411.33	7.641
411.68	7.654
412.03	7.699
412.38	7.787
412.73	7.891
413.09	8.020
413.44	8.132
413.79	8.319
414.14	8.396
414.49	8.568
414.84	8.699
415.19	8.855
415.54	9.015
415.89	9.185
416.24	9.304
416.59	9.434
416.94	9.536
417.29	9.659
417.64	9.746
417.99	9.847
418.34	9.917
418.69	9.983
419.04	10.040
419.39	10.082
419.74	10.115
420.09	10.149
420.44	10.183
420.79	10.206
421.14	10.201
421.49	10.213
421.84	10.255
422.19	10.242
422.54	10.242
422.89	10.249
423.24	10.209
423.59	10.177
423.94	10.136
424.29	10.090
424.64	10.037
424.99	9.989
425.34	9.955
425.68	9.882
426.03	9.858
426.38	9.819
426.73	9.766
427.08	9.786
427.43	9.802
427.78	9.853
428.13	9.912
428.48	9.990
428.83	10.032
429.18	10.077
429.53	10.123
429.87	10.155
430.22	10.197
430.57	10.234
430.92	10.228
431.27	10.249
431.62	10.253
431.97	10.233
432.32	10.213
432.67	10.218
433.01	10.179
433.36	10.164
433.71	10.132
434.06	10.094
434.41	10.088
434.76	10.128
435.11	10.147
435.45	10.163
435.80	10.213
436.15	10.246
436.50	10.306
436.85	10.369
437.20	10.421
437.54	10.459
437.89	10.506
438.24	10.535
438.59	10.542
438.94	10.519
439.29	10.514
439.63	10.494
439.98	10.478
440.33	10.451
440.68	10.445
441.03	10.448
441.37	10.506
441.72	10.540
442.07	10.600
442.42	10.649
442.76	10.720
443.11	10.780
443.46	10.858
443.81	10.913
444.16	10.955
444.50	10.972
444.85	10.956
445.20	10.918
445.55	10.879
445.89	10.807
446.24	10.718
446.59	10.631
446.94	10.509
447.28	10.383
447.63	10.266
447.98	10.150
448.32	10.057
448.67	9.989
449.02	9.929
449.37	9.883
449.71	9.863
450.06	9.892
450.41	9.892
450.75	9.970
451.10	9.967
451.45	9.975
451.79	9.999
452.14	10.010
452.49	10.020
452.84	10.028
453.18	10.041
453.53	10.060
453.88	10.083
454.22	10.132
454.57	10.169
454.92	10.271
455.26	10.367
455.61	10.478
455.95	10.604
456.30	10.687
456.65	10.784
456.99	10.882
457.34	10.970
457.69	11.034
458.03	11.087
458.38	11.105
458.73	11.097
459.07	11.097
459.42	11.043
459.76	10.980
460.11	10.932
460.46	10.866
460.80	10.756
461.15	10.684
461.49	10.615
461.84	10.545
462.19	10.504
462.53	10.487
462.88	10.475
463.22	10.518
463.57	10.562
463.91	10.608
464.26	10.655
464.61	10.730
464.95	10.761
465.30	10.810
465.64	10.847
465.99	10.870
466.33	10.887
466.68	10.881
467.02	10.863
467.37	10.825
467.71	10.809
468.06	10.787
468.41	10.767
468.75	10.771
469.10	10.747
469.44	10.719
469.79	10.686
470.13	10.671
470.48	10.650
470.82	10.628
471.17	10.619
471.51	10.595
471.86	10.589
472.20	10.565
472.55	10.522
472.89	10.508
473.23	10.508
473.58	10.533
473.92	10.539
474.27	10.581
474.61	10.606
474.96	10.607
475.30	10.623
475.65	10.642
475.99	10.664
476.34	10.691
476.68	10.719
477.02	10.758
477.37	10.800
477.71	10.879
478.06	10.989
478.40	11.217
478.75	11.586
479.09	11.985
479.43	12.444
479.78	12.967
480.12	13.489
480.47	14.002
480.81	14.491
481.15	14.955
481.50	15.406
481.84	15.917
482.19	16.420
482.53	16.843
482.87	17.134
483.22	17.201
483.56	17.053
483.90	16.802
484.25	16.454
484.59	16.065
484.94	15.626
485.28	15.168
485.62	14.680
485.97	14.193
486.31	13.765
486.65	13.451
487.00	13.275
487.34	13.215
487.68	13.205
488.03	13.255
488.37	13.306
488.71	13.401
489.06	13.485
489.40	13.504
489.74	13.492
490.09	13.436
490.43	13.365
490.77	13.269
491.11	13.186
491.46	13.084
491.80	12.955
492.14	12.866
492.49	12.745
492.83	12.629
493.17	12.514
493.51	12.406
493.86	12.328
494.20	12.269
494.54	12.283
494.88	12.324
495.23	12.372
495.57	12.446
495.91	12.503
496.25	12.556
496.60	12.608
496.94	12.655
497.28	12.673
497.62	12.709
497.97	12.735
498.31	12.758
498.65	12.790
498.99	12.824
499.33	12.873
499.68	12.917
500.02	12.966
500.36	13.014
500.70	13.090
501.04	13.186
501.39	13.261
501.73	13.339
502.07	13.407
502.41	13.464
502.75	13.542
503.09	13.639
503.44	13.725
503.78	13.831
504.12	13.952
504.46	14.059
504.80	14.181
505.14	14.273
505.49	14.378
505.83	14.482
506.17	14.583
506.51	14.701
506.85	14.778
507.19	14.856
507.53	14.938
507.87	14.995
508.22	15.038
508.56	15.069
508.90	15.130
509.24	15.195
509.58	15.252
509.92	15.302
510.26	15.337
510.60	15.389
510.94	15.431
511.28	15.462
511.63	15.523
511.97	15.581
512.31	15.647
512.65	15.702
512.99	15.779
513.33	15.875
513.67	15.991
514.01	16.168
514.35	16.303
514.69	16.470
515.03	16.652
515.37	16.794
515.71	16.933
516.05	17.042
516.39	17.171
516.73	17.284
517.07	17.364
517.41	17.437
517.75	17.421
518.09	17.430
518.43	17.386
518.77	17.344
519.11	17.277
519.45	17.228
519.79	17.186
520.13	17.188
520.47	17.173
520.81	17.187
521.15	17.205
521.49	17.289
521.83	17.386
522.17	17.535
522.51	17.693
522.85	17.912
523.19	18.199
523.53	18.546
523.87	18.892
524.21	19.243
524.55	19.567
524.89	19.909
525.23	20.225
525.57	20.517
525.91	20.799
526.25	21.061
526.58	21.309
526.92	21.486
527.26	21.543
527.60	21.465
527.94	21.397
528.28	21.320
528.62	21.214
528.96	21.112
529.30	21.003
529.64	20.845
529.97	20.662
530.31	20.469
530.65	20.289
530.99	20.227
531.33	20.297
531.67	20.319
532.01	20.364
532.35	20.358
532.68	20.307
533.02	20.249
533.36	20.210
533.70	20.170
534.04	20.096
534.38	20.038
534.71	19.974
535.05	19.901
535.39	19.861
535.73	19.812
536.07	19.849
536.41	19.927
536.74	20.028
537.08	20.168
537.42	20.321
537.76	20.530
538.10	20.741
538.43	20.899
538.77	21.065
539.11	21.204
539.45	21.364
539.79	21.463
540.12	21.552
540.46	21.579
540.80	21.568
541.14	21.541
541.47	21.488
541.81	21.416
542.15	21.352
542.49	21.248
542.82	21.168
543.16	21.046
543.50	20.947
543.84	20.851
544.17	20.787
544.51	20.756
544.85	20.716
545.18	20.684
545.52	20.627
545.86	20.591
546.20	20.561
546.53	20.495
546.87	20.423
547.21	20.341
547.54	20.280
547.88	20.233
548.22	20.188
548.55	20.182
548.89	20.155
549.23	20.159
549.56	20.153
549.90	20.181
550.24	20.223
550.57	20.263
550.91	20.306
551.25	20.321
551.58	20.377
551.92	20.408
552.26	20.441
552.59	20.475
552.93	20.498
553.27	20.519
553.60	20.514
553.94	20.533
554.27	20.574
554.61	20.603
554.95	20.624
555.28	20.629
555.62	20.673
555.95	20.687
556.29	20.713
556.63	20.746
556.96	20.771
557.30	20.819
557.63	20.818
557.97	20.821
558.31	20.826
558.64	20.882
558.98	20.923
559.31	20.922
559.65	20.947
559.98	20.955
560.32	20.972
560.65	21.010
560.99	21.039
561.33	21.104
561.66	21.181
562.00	21.264
562.33	21.291
562.67	21.337
563.00	21.411
563.34	21.490
563.67	21.544
564.01	21.631
564.34	21.684
564.68	21.752
565.01	21.794
565.35	21.780
565.68	21.771
566.02	21.813
566.35	21.834
566.69	21.862
567.02	21.875
567.36	21.913
567.69	21.939
568.03	21.963
568.36	21.961
568.69	21.979
569.03	22.015
569.36	22.057
569.70	22.094
570.03	22.122
570.37	22.123
570.70	22.124
571.04	22.133
571.37	22.106
571.70	22.088
572.04	22.084
572.37	22.036
572.71	22.015
573.04	21.987
573.37	21.920
573.71	21.865
574.04	21.799
574.38	21.730
574.71	21.638
575.04	21.529
575.38	21.437
575.71	21.312
576.05	21.210
576.38	21.087
576.71	20.960
577.05	20.792
577.38	20.604
577.71	20.473
578.05	20.348
578.38	20.218
578.71	20.128
579.05	20.003
579.38	19.858
579.71	19.723
580.05	19.605
580.38	19.476
580.71	19.412
581.05	19.347
581.38	19.216
581.71	19.073
582.05	18.990
582.38	18.885
582.71	18.822
583.04	18.813
583.38	18.788
583.71	18.751
584.04	18.768
584.38	18.782
584.71	18.799
585.04	18.890
585.37	18.987
585.71	19.094
586.04	19.174
586.37	19.244
586.70	19.310
587.04	19.381
587.37	19.451
587.70	19.440
588.03	19.413
588.37	19.402
588.70	19.304
589.03	19.225
589.36	19.085
589.69	18.988
590.03	18.849
590.36	18.695
590.69	18.573
591.02	18.452
591.35	18.360
591.69	18.287
592.02	18.282
592.35	18.311
592.68	18.325
593.01	18.359
593.35	18.418
593.68	18.427
594.01	18.466
594.34	18.458
594.67	18.447
595.00	18.467
595.34	18.406
595.67	18.253
596.00	18.067
596.33	17.872
596.66	17.600
596.99	17.253
597.32	16.987
597.65	16.684
597.99	16.383
598.32	16.133
598.65	15.836
598.98	15.631
599.31	15.525
599.64	15.496
599.97	15.492
600.30	15.614
600.63	15.816
600.96	16.006
601.30	16.180
601.63	16.321
601.96	16.413
602.29	16.449
602.62	16.488
602.95	16.493
603.28	16.414
603.61	16.313
603.94	16.166
604.27	15.973
604.60	15.771
604.93	15.553
605.26	15.381
605.59	15.162
605.92	15.038
606.25	14.896
606.58	14.770
606.91	14.725
607.24	14.694
607.57	14.676
607.90	14.637
608.23	14.551
608.56	14.457
608.89	14.297
609.22	14.132
609.55	13.872
609.88	13.584
610.21	13.239
610.54	12.864
610.87	12.472
611.20	12.070
611.53	11.630
611.86	11.232
612.19	10.878
612.52	10.587
612.85	10.353
613.18	10.222
613.51	10.120
613.84	10.062
614.17	10.006
614.49	9.977
614.82	9.899
615.15	9.867
615.48	9.798
615.81	9.751
616.14	9.687
616.47	9.639
616.80	9.613
617.13	9.474
617.46	9.362
617.78	9.284
618.11	9.151
618.44	8.989
618.77	8.859
619.10	8.786
619.43	8.679
619.76	8.635
620.09	8.556
620.41	8.458
620.74	8.459
621.07	8.516
621.40	8.562
621.73	8.692
622.06	8.906
622.38	9.154
622.71	9.388
623.04	9.663
623.37	9.911
623.70	10.207
624.02	10.467
624.35	10.728
624.68	10.918
625.01	11.100
625.34	11.244
625.66	11.378
625.99	11.369
626.32	11.386
626.65	11.275
626.98	11.166
627.30	10.926
627.63	10.735
627.96	10.515
628.29	10.257
628.61	9.960
628.94	9.668
629.27	9.310
629.60	9.089
629.92	8.824
630.25	8.694
630.58	8.515
630.91	8.480
631.23	8.365
631.56	8.270
631.89	8.145
632.21	8.080
632.54	7.985
632.87	7.858
633.19	7.643
633.52	7.487
633.85	7.184
634.18	6.886
634.50	6.489
634.83	6.088
635.16	5.716
635.48	5.439
635.81	5.056
636.14	4.662
636.46	4.330
636.79	3.978
637.11	3.635
637.44	3.331
637.77	3.052
638.09	2.890
638.42	2.810
638.75	2.631
639.07	2.299
639.40	2.040
639.73	1.757
640.05	1.553
640.38	1.394
640.70	1.194
641.03	1.139
641.36	1.102
641.68	1.078
642.01	1.007
642.33	1.023
642.66	1.133
642.98	1.290
643.31	1.521
643.64	1.692
643.96	1.980
644.29	2.273
644.61	2.462
644.94	2.632
645.26	2.745
645.59	2.891
645.91	3.038
646.24	3.188
646.56	3.231
646.89	3.242
647.22	3.273
647.54	3.200
647.87	3.096
648.19	3.044
648.52	2.896
648.84	2.782
649.17	2.628
649.49	2.458
649.82	2.265
650.14	2.129
650.47	1.976
650.79	1.748
651.11	1.545
651.44	1.326
651.76	1.149
652.09	1.015
652.41	0.867
652.74	0.770
653.06	0.673
653.39	0.588
653.71	0.556
654.04	0.662
654.36	0.890
654.68	1.116
655.01	1.325
655.33	1.441
655.66	1.620
655.98	1.750
656.30	1.894
656.63	1.967
656.95	1.952
657.28	1.902
657.60	1.731
657.92	1.388
658.25	0.988
658.57	0.515
658.90	0.018
659.22	-0.632
659.54	-1.311
659.87	-2.147
660.19	-2.968
660.51	-3.696
660.84	-4.576
661.16	-5.466
661.48	-6.272
661.81	-6.989
662.13	-7.592
662.45	-8.090
662.78	-8.483
663.10	-8.862
663.42	-9.104
663.75	-9.341
664.07	-9.506
664.39	-9.560
664.72	-9.593
665.04	-9.559
665.36	-9.527
665.69	-9.538
666.01	-9.623
666.33	-9.730
666.65	-9.712
666.98	-9.756
667.30	-9.778
667.62	-10.004
667.94	-10.237
668.27	-10.486
668.59	-10.730
668.91	-11.124
669.23	-11.542
669.56	-11.866
669.88	-12.088
670.20	-12.464
670.52	-12.857
670.85	-13.320
671.17	-13.618
671.49	-14.016
671.81	-14.439
672.13	-14.862
672.46	-15.154
672.78	-15.395
673.10	-15.657
673.42	-15.730
673.74	-15.822
674.07	-15.902
674.39	-15.785
674.71	-15.528
675.03	-15.040
675.35	-14.611
675.67	-14.053
676.00	-13.483
676.32	-12.871
676.64	-12.338
676.96	-11.792
677.28	-11.186
677.60	-10.640
677.92	-10.237
678.25	-9.930
678.57	-9.659
678.89	-9.426
679.21	-9.406
679.53	-9.335
679.85	-9.389
680.17	-9.483
680.49	-9.805
680.81	-10.060
681.13	-10.374
681.46	-10.474
681.78	-10.623
682.10	-10.762
682.42	-10.586
682.74	-10.307
683.06	-9.997
683.38	-9.561
683.70	-8.867
684.02	-8.037
684.34	-7.232
684.66	-6.290
684.98	-5.527
685.30	-4.813
685.62	-4.171
685.94	-3.845
686.26	-3.548
686.58	-3.395
686.90	-3.339
687.22	-3.544
687.54	-3.873
687.86	-4.400
688.18	-4.938
688.50	-5.606
688.82	-6.301
689.14	-7.113
689.46	-7.816
689.78	-8.479
690.10	-9.259
690.42	-9.910
690.74	-10.456
691.06	-10.880
691.38	-11.368
691.70	-11.884
692.02	-12.484
692.34	-12.988
692.66	-13.332
692.98	-13.613
693.30	-13.720
693.62	-13.365
693.94	-12.825
694.26	-12.311
694.57	-11.828
694.89	-11.077
695.21	-10.177
695.53	-9.138
695.85	-8.233
696.17	-7.315
696.49	-6.476
696.81	-5.769
697.13	-5.397
697.44	-5.230
697.76	-5.176
698.08	-5.357
698.40	-5.810
698.72	-6.556
699.04	-7.551
699.36	-8.819
699.67	-10.286
699.99	-12.079
700.31	-14.096
700.63	-16.045
700.95	-18.296
701.27	-20.438
701.58	-22.384
701.90	-24.035
702.22	-25.554
702.54	-26.832
702.86	-27.500
703.17	-28.363
703.49	-28.849
703.81	-29.177
704.13	-29.453
704.45	-29.575
704.76	-29.721
705.08	-29.646
705.40	-29.542
705.72	-29.316
706.03	-28.842
706.35	-28.746
706.67	-28.355
706.99	-27.911
707.30	-27.716
707.62	-27.646
707.94	-27.335
708.26	-26.963
708.57	-26.682
708.89	-26.073
709.21	-25.723
709.53	-25.638
709.84	-25.305
710.16	-25.059
710.48	-24.736
710.79	-24.266
711.11	-23.606
711.43	-22.886
711.74	-22.255
712.06	-21.357
712.38	-20.668
712.69	-19.636
713.01	-18.436
713.33	-17.089
713.64	-15.785
713.96	-14.310
714.28	-12.925
714.59	-11.735
714.91	-10.430
715.23	-9.202
715.54	-8.188
715.86	-7.366
716.17	-6.793
716.49	-6.430
716.81	-6.334
717.12	-6.470
717.44	-7.153
717.76	-7.614
718.07	-8.408
718.39	-9.352
718.70	-10.559
719.02	-11.792
719.33	-13.163
719.65	-14.260
719.97	-15.090
720.28	-15.663
720.60	-16.170
720.91	-16.065
721.23	-16.223
721.54	-15.951
721.86	-15.687
722.17	-14.985
722.49	-14.558
722.81	-13.530
723.12	-12.950
723.44	-12.510
723.75	-12.029
724.07	-11.441
724.38	-11.166
724.70	-10.853
725.01	-10.608
725.33	-10.435
725.64	-10.280
725.96	-10.004
726.27	-10.032
726.59	-9.843
726.90	-9.711
727.22	-9.819
727.53	-9.979
727.84	-9.966
728.16	-10.216
728.47	-10.555
728.79	-11.209
729.10	-11.686
729.42	-12.248
729.73	-12.959
730.05	-13.975
730.36	-14.919
730.67	-16.178
730.99	-17.262
731.30	-18.626
731.62	-19.890
731.93	-21.214
732.24	-22.352
732.56	-23.835
732.87	-25.261
733.19	-26.710
733.50	-27.919
733.81	-29.252
734.13	-30.229
734.44	-31.506
734.76	-32.759
735.07	-34.004
735.38	-34.756
735.70	-35.451
736.01	-36.157
736.32	-36.710
736.64	-37.456
736.95	-37.996
737.26	-38.705
737.58	-39.543
737.89	-40.194
738.20	-41.214
738.52	-41.871
738.83	-42.971
739.14	-44.527
739.45	-45.907
739.77	-47.996
740.08	-49.643
740.39	-51.684
740.71	-53.452
741.02	-55.009
741.33	-56.771
741.64	-58.016
741.96	-60.038
742.27	-62.192
742.58	-63.586
742.90	-65.137
743.21	-66.642
743.52	-67.868
743.83	-68.696
744.14	-69.899
744.46	-71.056
744.77	-71.256
745.08	-71.530
745.39	-71.655
745.71	-71.338
746.02	-70.600
746.33	-70.528
746.64	-69.258
746.95	-68.394
747.27	-67.611
747.58	-67.229
747.89	-66.756
748.20	-66.735
748.51	-66.691
748.82	-66.649
749.14	-66.226
749.45	-66.710
749.76	-66.801
750.07	-66.597
750.38	-66.877
750.69	-67.107
751.01	-66.885
751.32	-67.022
751.63	-66.926
751.94	-67.758
752.25	-68.238
752.56	-69.200
752.87	-69.570
753.18	-69.200
753.49	-69.515
753.81	-69.051
754.12	-67.555
754.43	-65.356
754.74	-61.814
755.05	-57.933
755.36	-52.625
755.67	-47.001
755.98	-41.266
756.29	-35.335
756.60	-29.685
756.91	-24.144
757.22	-18.749
757.53	-13.985
757.84	-9.424
758.15	-5.624
758.46	-2.086
758.77	0.605
759.09	2.996
759.40	4.966
759.71	6.350
760.02	7.436
760.33	8.234
760.64	8.610
760.95	8.816
761.26	8.580
761.57	8.179
761.88	7.488
762.18	6.879
762.49	5.835
762.80	4.670
763.11	3.324
763.42	1.704
763.73	-0.076
764.04	-2.359
764.35	-5.081
764.66	-8.188
764.97	-11.781
765.28	-15.888
765.59	-20.663
765.90	-25.797
766.21	-31.572
766.52	-37.791
766.83	-43.875
767.14	-50.261
767.44	-56.641
767.75	-62.775
768.06	-68.262
768.37	-73.489
768.68	-79.024
768.99	-83.217
769.30	-87.335
769.61	-92.165
769.91	-94.907
770.22	-98.020
770.53	-101.145
770.84	-102.443
771.15	-105.116
771.46	-108.252
771.77	-110.286
772.07	-111.007
772.38	-114.726
772.69	-117.963
773.00	-118.569
773.31	-120.705
773.61	-123.244
773.92	-124.846
774.23	-126.775
774.54	-126.674
774.85	-127.072
775.15	-127.799
775.46	-127.934
775.77	-125.545
776.08	-124.878
776.39	-124.217
776.69	-124.813
777.00	-123.177
777.31	-122.169
777.62	-121.948
777.92	-120.764
778.23	-119.412
778.54	-118.413
778.85	-118.807
779.15	-119.977
779.46	-119.662
779.77	-121.089
780.07	-119.900
780.38	-120.843
780.69	-121.687
781.00	-121.408
781.30	-122.579
781.61	-122.716
781.92	-121.805
782.22	-120.098
782.53	-117.722
782.84	-115.505
783.14	-112.529
783.45	-108.947
783.76	-104.756
784.06	-99.843
784.37	-94.520
784.68	-88.772
784.98	-83.899
785.29	-79.422
785.60	-75.019
785.90	-70.945
786.21	-66.560
786.51	-62.435
786.82	-59.606
787.13	-57.454
787.43	-55.857
787.74	-55.030
788.04	-54.044
788.35	-53.784
788.66	-53.328
788.96	-53.684
789.27	-54.940
789.57	-56.882
789.88	-58.871
790.19	-60.240
790.49	-60.882
790.80	-62.096
791.10	-62.338
791.41	-63.012
791.71	-63.154
792.02	-63.734
792.32	-63.079
792.63	-61.829
792.93	-59.932
793.24	-57.722
793.54	-56.133
793.85	-54.776
794.15	-52.118
794.46	-50.963
794.76	-49.332
795.07	-48.285
795.37	-47.066
795.68	-46.359
795.98	-45.628
796.29	-45.316
796.59	-45.187
796.90	-44.698
797.20	-44.409
797.51	-44.926
797.81	-44.792
798.12	-45.856
798.42	-45.774
798.72	-46.250
799.03	-47.291
799.33	-47.697
799.64	-47.591
799.94	-47.989
800.25	-48.896
800.55	-49.645
800.85	-50.415
801.16	-51.696
801.46	-51.499
801.77	-52.325
802.07	-51.427
802.37	-51.160
802.68	-50.869
802.98	-51.773
803.28	-51.801
803.59	-52.591
803.89	-52.325
804.20	-51.991
804.50	-50.724
804.80	-50.813
805.11	-49.869
805.41	-50.411
805.71	-49.094
806.02	-49.478
806.32	-49.537
806.62	-48.862
806.93	-46.801
807.23	-46.060
807.53	-45.741
807.83	-45.934
808.14	-45.429
808.44	-44.768
808.74	-42.752
809.05	-43.034
809.35	-40.987
809.65	-37.990
809.95	-35.829
810.26	-34.589
810.56	-32.786
810.86	-30.658
811.16	-27.852
811.47	-24.868
811.77	-23.550
812.07	-22.791
812.37	-20.266
812.68	-18.935
812.98	-16.707
813.28	-15.789
813.58	-14.359
813.88	-13.273
814.19	-12.406
814.49	-11.441
814.79	-10.332
815.09	-9.305
815.39	-7.797
815.70	-6.977
816.00	-5.898
816.30	-5.606
816.60	-3.941
816.90	-2.852
817.20	-1.266
817.50	1.002
817.81	3.600
818.11	5.282
818.41	7.614
818.71	9.006
819.01	10.544
819.31	11.500
819.61	12.442
819.92	12.946
820.22	13.493
820.52	13.994
820.82	14.356
821.12	14.564
821.42	14.845
821.72	14.891
822.02	14.970
822.32	14.784
822.62	14.772
822.92	14.526
823.22	14.368
823.52	14.194
823.83	13.888
824.13	13.551
824.43	13.251
824.73	12.855
825.03	12.392
825.33	11.996
825.63	11.783
825.93	11.499
826.23	11.386
826.53	11.150
826.83	10.689
827.13	10.356
827.43	10.070
827.73	9.388
828.03	8.728
828.33	7.932
828.63	7.058
828.93	6.321
829.23	4.997
829.53	4.031
829.83	3.288
830.13	2.633
830.42	1.874
830.72	1.586
831.02	2.258
831.32	2.746
831.62	3.485
831.92	3.993
832.22	4.187
832.52	4.752
832.82	5.099
833.12	4.919
833.42	5.089
833.72	5.179
834.01	5.030
834.31	4.192
834.61	3.147
834.91	2.182
835.21	1.007
835.51	-0.355
835.81	-2.084
836.11	-4.931
836.40	-6.980
836.70	-9.518
837.00	-12.546
837.30	-15.487
837.60	-18.062
837.90	-18.787
838.19	-20.104
838.49	-21.283
838.79	-22.904
839.09	-22.815
839.39	-23.009
839.68	-23.361
839.98	-23.818
840.28	-23.781
840.58	-25.610
840.88	-27.029
841.17	-29.875
841.47	-33.615
841.77	-36.024
842.07	-39.007
842.36	-45.397
842.66	-51.295
842.96	-62.231
843.26	-75.949
843.55	-86.466
843.85	-94.521
844.15	-100.968
844.45	-112.292
844.74	-115.876
845.04	-131.647
845.34	-134.068
845.63	-143.209
845.93	-153.506
846.23	-152.582
846.53	-139.622
846.82	-141.726
847.12	-139.132
847.42	-146.765
847.71	-141.620
848.01	-153.559
848.31	-147.027
848.60	-153.043
848.90	-149.320
849.19	-147.649
849.49	-147.105
849.79	-146.858
850.08	-145.156
850.38	-156.414
850.68	-149.993
850.97	-151.085
851.27	-147.233
851.56	-142.209
851.86	-147.007
852.16	-146.693
852.45	-144.353
852.75	-143.344
853.04	-149.905
853.34	-150.870
853.64	-144.956
853.93	-148.202
854.23	-150.350
854.52	-151.318
854.82	-147.107
855.11	-142.422
855.41	-140.676
855.70	-135.884
856.00	-131.455
856.30	-136.313
856.59	-138.929
856.89	-132.970
857.18	-124.693
857.48	-121.730
857.77	-113.193
858.07	-118.893
858.36	-113.880
858.66	-123.726
858.95	-116.982
859.25	-116.491
859.54	-101.860
859.84	-102.067
860.13	-106.918
860.42	-110.722
860.72	-110.796
861.01	-115.530
861.31	-108.596
861.60	-109.698
861.90	-97.534
862.19	-102.709
862.49	-96.318
862.78	-98.005
863.07	-94.622
863.37	-88.989
863.66	-91.242
863.96	-84.095
864.25	-78.856
864.54	-76.673
864.84	-71.064
865.13	-73.526
865.43	-69.128
865.72	-67.778
866.01	-63.527
866.31	-37.023
866.60	-104.412
866.89	-48.099
>>>>>End Spectral Data<<<<<
