OOIBase32 Version 2.0.0.6 Data File
++++++++++++++++++++++++++++++++++++
Date: 01-19-2012, 14:32:56
User: Valued Ocean Optics Customer
Spectrometer Serial Number: USB2E2917
Spectrometer Channel: Master
Integration Time (msec): 5
Spectra Averaged: 10
Boxcar Smoothing: 5
Correct for Electrical Dark: Enabled
Time Normalized: Disabled
Dual-beam Reference: Disabled
Reference Channel: Master
Temperature: Not acquired
Spectrometer Type: S2000
ADC Type: USB2000
Number of Pixels in File: 2048
Graph Title: 
>>>>>Begin Spectral Data<<<<<
180.30	0.000
180.67	0.000
181.03	-891.797
181.40	-123.471
181.77	296.884
182.14	-1898.180
182.51	-548.464
182.88	65.524
183.25	202.003
183.62	82.340
183.99	15.164
184.36	-136.098
184.73	-132.680
185.10	-44.694
185.46	87.780
185.83	62.339
186.20	62.949
186.57	131.371
186.94	232.528
187.31	-6.414
187.68	33.623
188.05	-133.006
188.42	-556.687
188.78	410.760
189.15	205.460
189.52	119.958
189.89	123.104
190.26	51.077
190.63	25.614
191.00	43.327
191.37	56.166
191.73	35.720
192.10	35.212
192.47	32.361
192.84	24.035
193.21	6.940
193.58	-13.430
193.94	-13.380
194.31	4.132
194.68	15.105
195.05	7.535
195.42	19.244
195.79	30.627
196.15	19.770
196.52	15.547
196.89	32.265
197.26	34.981
197.63	44.587
198.00	46.419
198.36	50.952
198.73	46.558
199.10	41.981
199.47	42.856
199.84	37.276
200.20	47.055
200.57	43.541
200.94	33.915
201.31	39.099
201.68	38.029
202.04	47.263
202.41	40.252
202.78	47.940
203.15	57.785
203.51	48.909
203.88	52.607
204.25	43.349
204.62	46.077
204.98	58.202
205.35	43.073
205.72	39.185
206.09	31.780
206.46	41.752
206.82	25.163
207.19	6.426
207.56	17.748
207.92	14.569
208.29	6.368
208.66	1.111
209.03	3.009
209.39	-0.183
209.76	2.245
210.13	-1.645
210.50	1.263
210.86	19.306
211.23	35.141
211.60	34.977
211.96	40.204
212.33	47.400
212.70	36.616
213.07	26.237
213.43	35.187
213.80	28.739
214.17	29.658
214.53	26.695
214.90	30.056
215.27	17.274
215.63	14.124
216.00	10.710
216.37	9.126
216.74	14.359
217.10	16.354
217.47	17.973
217.84	19.386
218.20	12.670
218.57	-2.214
218.94	-11.693
219.30	-18.372
219.67	-18.559
220.04	-22.824
220.40	-20.046
220.77	-12.466
221.13	-12.230
221.50	-8.025
221.87	-12.246
222.23	-8.724
222.60	0.487
222.97	3.997
223.33	9.951
223.70	8.010
224.07	11.427
224.43	14.080
224.80	11.231
225.16	11.559
225.53	9.855
225.90	11.830
226.26	11.980
226.63	9.722
226.99	8.918
227.36	8.024
227.73	7.876
228.09	7.755
228.46	6.633
228.82	7.001
229.19	6.784
229.56	5.667
229.92	4.869
230.29	5.787
230.65	6.966
231.02	7.692
231.38	10.101
231.75	11.037
232.12	10.749
232.48	10.036
232.85	10.567
233.21	8.736
233.58	9.566
233.94	8.166
234.31	6.822
234.68	8.392
235.04	9.688
235.41	9.399
235.77	10.203
236.14	11.123
236.50	10.946
236.87	11.572
237.23	12.384
237.60	12.192
237.96	11.911
238.33	11.573
238.69	9.274
239.06	8.117
239.42	7.347
239.79	7.027
240.15	6.649
240.52	6.437
240.88	5.908
241.25	6.444
241.61	6.692
241.98	7.158
242.34	7.253
242.71	7.544
243.07	7.342
243.44	7.105
243.80	6.832
244.17	6.977
244.53	6.948
244.90	6.945
245.26	6.840
245.63	7.010
245.99	6.927
246.36	7.101
246.72	7.055
247.09	7.379
247.45	7.561
247.81	7.963
248.18	8.174
248.54	8.360
248.91	8.471
249.27	8.102
249.64	7.925
250.00	7.952
250.36	7.266
250.73	7.599
251.09	7.156
251.46	7.588
251.82	6.799
252.19	6.081
252.55	5.948
252.91	5.735
253.28	6.366
253.64	6.268
254.01	6.187
254.37	7.174
254.73	7.055
255.10	7.245
255.46	6.974
255.83	7.534
256.19	7.352
256.55	7.350
256.92	7.353
257.28	7.114
257.65	7.172
258.01	7.241
258.37	7.103
258.74	6.897
259.10	7.023
259.46	6.986
259.83	6.862
260.19	7.321
260.55	7.210
260.92	7.234
261.28	7.145
261.64	6.802
262.01	6.328
262.37	6.487
262.73	6.498
263.10	6.011
263.46	5.966
263.82	5.818
264.19	5.526
264.55	5.717
264.91	5.760
265.28	5.670
265.64	6.164
266.00	6.465
266.37	5.756
266.73	5.664
267.09	5.691
267.46	5.771
267.82	5.504
268.18	5.057
268.54	4.992
268.91	4.869
269.27	4.970
269.63	4.817
270.00	4.968
270.36	5.425
270.72	5.377
271.08	5.663
271.45	5.737
271.81	6.144
272.17	6.105
272.53	5.895
272.90	5.988
273.26	6.072
273.62	6.257
273.98	6.241
274.35	6.098
274.71	6.449
275.07	6.396
275.43	6.112
275.80	5.841
276.16	6.403
276.52	6.538
276.88	6.271
277.25	5.949
277.61	5.557
277.97	5.483
278.33	5.603
278.69	5.440
279.06	5.002
279.42	4.931
279.78	5.101
280.14	4.888
280.50	4.919
280.87	5.030
281.23	5.298
281.59	5.502
281.95	5.097
282.31	4.972
282.68	5.026
283.04	5.251
283.40	5.508
283.76	5.423
284.12	5.332
284.48	5.288
284.85	5.613
285.21	5.529
285.57	5.413
285.93	5.784
286.29	6.080
286.65	6.313
287.02	6.591
287.38	6.461
287.74	6.642
288.10	6.863
288.46	7.115
288.82	6.688
289.18	6.805
289.54	6.927
289.91	6.705
290.27	6.586
290.63	6.465
290.99	6.144
291.35	6.198
291.71	6.193
292.07	6.277
292.43	6.345
292.79	6.455
293.16	6.552
293.52	6.435
293.88	6.659
294.24	6.578
294.60	6.432
294.96	6.560
295.32	6.471
295.68	6.439
296.04	6.245
296.40	6.016
296.76	6.102
297.12	5.889
297.49	5.836
297.85	5.684
298.21	5.664
298.57	5.814
298.93	5.801
299.29	5.977
299.65	5.911
300.01	6.182
300.37	6.436
300.73	6.416
301.09	6.451
301.45	6.806
301.81	6.792
302.17	6.862
302.53	6.818
302.89	6.757
303.25	6.723
303.61	6.823
303.97	6.515
304.33	6.503
304.69	6.607
305.05	6.758
305.41	6.490
305.77	6.794
306.13	6.781
306.49	6.665
306.85	6.651
307.21	6.606
307.57	6.372
307.93	6.537
308.29	6.419
308.65	6.240
309.01	6.184
309.37	6.163
309.73	6.009
310.09	5.865
310.45	5.888
310.81	5.855
311.17	5.773
311.53	5.908
311.89	5.770
312.25	5.794
312.61	5.917
312.96	5.773
313.32	5.580
313.68	5.468
314.04	5.690
314.40	5.697
314.76	5.622
315.12	5.762
315.48	5.606
315.84	5.722
316.20	5.613
316.56	5.590
316.92	5.752
317.27	5.955
317.63	6.104
317.99	6.040
318.35	5.975
318.71	6.055
319.07	5.993
319.43	6.008
319.79	5.984
320.15	6.108
320.50	6.042
320.86	5.933
321.22	5.927
321.58	5.855
321.94	5.644
322.30	5.614
322.66	5.577
323.01	5.504
323.37	5.530
323.73	5.517
324.09	5.479
324.45	5.527
324.81	5.625
325.17	5.690
325.52	5.675
325.88	5.790
326.24	5.869
326.60	6.031
326.96	6.066
327.31	6.053
327.67	6.096
328.03	6.089
328.39	6.068
328.75	5.988
329.11	5.907
329.46	6.000
329.82	6.118
330.18	6.131
330.54	5.940
330.90	5.921
331.25	6.135
331.61	6.106
331.97	6.070
332.33	6.097
332.68	6.109
333.04	6.321
333.40	6.410
333.76	6.414
334.11	6.537
334.47	6.660
334.83	6.694
335.19	6.501
335.54	6.619
335.90	6.718
336.26	6.745
336.62	6.864
336.97	6.763
337.33	6.577
337.69	6.519
338.05	6.377
338.40	6.346
338.76	6.445
339.12	6.613
339.48	6.550
339.83	6.491
340.19	6.503
340.55	6.504
340.90	6.564
341.26	6.811
341.62	6.848
341.97	6.890
342.33	6.871
342.69	6.874
343.04	6.747
343.40	6.828
343.76	6.966
344.12	6.993
344.47	7.022
344.83	7.004
345.19	6.873
345.54	6.871
345.90	6.929
346.26	7.016
346.61	6.952
346.97	7.017
347.32	6.851
347.68	6.740
348.04	6.719
348.39	6.683
348.75	6.612
349.11	6.577
349.46	6.610
349.82	6.488
350.18	6.438
350.53	6.452
350.89	6.416
351.24	6.413
351.60	6.399
351.96	6.357
352.31	6.308
352.67	6.288
353.02	6.411
353.38	6.324
353.74	6.435
354.09	6.415
354.45	6.424
354.80	6.544
355.16	6.615
355.52	6.667
355.87	6.752
356.23	6.798
356.58	6.909
356.94	6.803
357.29	6.873
357.65	6.819
358.00	6.855
358.36	6.920
358.72	6.882
359.07	6.893
359.43	6.849
359.78	6.847
360.14	6.832
360.49	6.777
360.85	6.752
361.20	6.658
361.56	6.685
361.91	6.658
362.27	6.573
362.62	6.448
362.98	6.386
363.33	6.331
363.69	6.242
364.04	6.104
364.40	6.035
364.75	6.004
365.11	5.983
365.46	5.895
365.82	5.849
366.17	5.781
366.53	5.769
366.88	5.795
367.24	5.773
367.59	5.715
367.95	5.832
368.30	5.876
368.66	5.842
369.01	5.887
369.37	5.948
369.72	5.916
370.08	5.959
370.43	6.017
370.78	6.084
371.14	6.132
371.49	6.131
371.85	6.146
372.20	6.126
372.56	6.143
372.91	6.108
373.26	6.091
373.62	6.080
373.97	6.057
374.33	5.973
374.68	5.785
375.03	5.692
375.39	5.645
375.74	5.599
376.10	5.625
376.45	5.644
376.80	5.639
377.16	5.638
377.51	5.665
377.87	5.747
378.22	5.825
378.57	5.955
378.93	6.059
379.28	6.164
379.63	6.225
379.99	6.295
380.34	6.312
380.70	6.408
381.05	6.440
381.40	6.533
381.76	6.539
382.11	6.594
382.46	6.589
382.82	6.597
383.17	6.644
383.52	6.596
383.88	6.533
384.23	6.578
384.58	6.570
384.94	6.539
385.29	6.462
385.64	6.395
385.99	6.346
386.35	6.315
386.70	6.240
387.05	6.113
387.41	6.110
387.76	6.125
388.11	6.097
388.47	6.046
388.82	6.087
389.17	6.107
389.52	6.138
389.88	6.177
390.23	6.207
390.58	6.292
390.93	6.390
391.29	6.397
391.64	6.359
391.99	6.361
392.34	6.321
392.70	6.265
393.05	6.217
393.40	6.140
393.75	6.012
394.11	5.911
394.46	5.808
394.81	5.693
395.16	5.581
395.52	5.455
395.87	5.266
396.22	5.109
396.57	4.929
396.92	4.766
397.28	4.586
397.63	4.378
397.98	4.221
398.33	4.041
398.68	3.878
399.04	3.781
399.39	3.663
399.74	3.600
400.09	3.587
400.44	3.558
400.80	3.597
401.15	3.608
401.50	3.709
401.85	3.740
402.20	3.754
402.55	3.815
402.90	3.821
403.26	3.828
403.61	3.806
403.96	3.757
404.31	3.781
404.66	3.676
405.01	3.630
405.36	3.568
405.72	3.507
406.07	3.451
406.42	3.344
406.77	3.267
407.12	3.226
407.47	3.203
407.82	3.188
408.17	3.098
408.53	3.063
408.88	3.025
409.23	2.914
409.58	2.846
409.93	2.806
410.28	2.767
410.63	2.725
410.98	2.683
411.33	2.647
411.68	2.604
412.03	2.608
412.38	2.593
412.73	2.691
413.09	2.786
413.44	2.884
413.79	3.005
414.14	3.104
414.49	3.233
414.84	3.403
415.19	3.567
415.54	3.729
415.89	3.891
416.24	4.023
416.59	4.112
416.94	4.221
417.29	4.332
417.64	4.404
417.99	4.498
418.34	4.562
418.69	4.582
419.04	4.615
419.39	4.645
419.74	4.666
420.09	4.711
420.44	4.699
420.79	4.708
421.14	4.686
421.49	4.674
421.84	4.644
422.19	4.611
422.54	4.577
422.89	4.535
423.24	4.473
423.59	4.385
423.94	4.282
424.29	4.199
424.64	4.103
424.99	3.988
425.34	3.886
425.68	3.770
426.03	3.627
426.38	3.512
426.73	3.381
427.08	3.308
427.43	3.264
427.78	3.266
428.13	3.319
428.48	3.333
428.83	3.390
429.18	3.426
429.53	3.460
429.87	3.494
430.22	3.520
430.57	3.544
430.92	3.533
431.27	3.508
431.62	3.490
431.97	3.444
432.32	3.371
432.67	3.316
433.01	3.248
433.36	3.177
433.71	3.130
434.06	3.081
434.41	3.062
434.76	3.055
435.11	3.084
435.45	3.111
435.80	3.152
436.15	3.227
436.50	3.266
436.85	3.321
437.20	3.379
437.54	3.451
437.89	3.504
438.24	3.511
438.59	3.508
438.94	3.469
439.29	3.426
439.63	3.352
439.98	3.304
440.33	3.265
440.68	3.219
441.03	3.190
441.37	3.167
441.72	3.158
442.07	3.183
442.42	3.231
442.76	3.290
443.11	3.354
443.46	3.435
443.81	3.482
444.16	3.517
444.50	3.545
444.85	3.545
445.20	3.509
445.55	3.456
445.89	3.404
446.24	3.299
446.59	3.184
446.94	3.044
447.28	2.886
447.63	2.731
447.98	2.572
448.32	2.419
448.67	2.297
449.02	2.196
449.37	2.126
449.71	2.050
450.06	2.024
450.41	2.016
450.75	2.051
451.10	2.071
451.45	2.054
451.79	2.039
452.14	2.022
452.49	1.995
452.84	1.971
453.18	1.943
453.53	1.939
453.88	1.931
454.22	1.968
454.57	1.979
454.92	2.048
455.26	2.173
455.61	2.309
455.95	2.445
456.30	2.584
456.65	2.698
456.99	2.811
457.34	2.892
457.69	2.987
458.03	3.056
458.38	3.085
458.73	3.079
459.07	3.023
459.42	2.958
459.76	2.884
460.11	2.773
460.46	2.673
460.80	2.544
461.15	2.430
461.49	2.291
461.84	2.140
462.19	2.050
462.53	1.977
462.88	1.965
463.22	1.971
463.57	1.977
463.91	1.998
464.26	2.036
464.61	2.072
464.95	2.121
465.30	2.169
465.64	2.207
465.99	2.222
466.33	2.217
466.68	2.196
467.02	2.192
467.37	2.192
467.71	2.159
468.06	2.126
468.41	2.113
468.75	2.052
469.10	1.996
469.44	1.935
469.79	1.879
470.13	1.825
470.48	1.787
470.82	1.703
471.17	1.617
471.51	1.573
471.86	1.496
472.20	1.420
472.55	1.392
472.89	1.329
473.23	1.300
473.58	1.265
473.92	1.230
474.27	1.175
474.61	1.166
474.96	1.145
475.30	1.125
475.65	1.128
475.99	1.136
476.34	1.122
476.68	1.171
477.02	1.191
477.37	1.220
477.71	1.306
478.06	1.473
478.40	1.725
478.75	2.085
479.09	2.478
479.43	2.877
479.78	3.240
480.12	3.573
480.47	3.866
480.81	4.123
481.15	4.375
481.50	4.588
481.84	4.811
482.19	4.992
482.53	5.141
482.87	5.223
483.22	5.245
483.56	5.213
483.90	5.153
484.25	5.091
484.59	5.028
484.94	4.944
485.28	4.852
485.62	4.701
485.97	4.554
486.31	4.394
486.65	4.277
487.00	4.185
487.34	4.140
487.68	4.110
488.03	4.068
488.37	4.013
488.71	3.958
489.06	3.909
489.40	3.860
489.74	3.788
490.09	3.709
490.43	3.605
490.77	3.515
491.11	3.372
491.46	3.241
491.80	3.094
492.14	2.964
492.49	2.815
492.83	2.657
493.17	2.499
493.51	2.360
493.86	2.253
494.20	2.182
494.54	2.139
494.88	2.191
495.23	2.253
495.57	2.339
495.91	2.418
496.25	2.512
496.60	2.584
496.94	2.685
497.28	2.765
497.62	2.827
497.97	2.891
498.31	2.958
498.65	3.025
498.99	3.100
499.33	3.174
499.68	3.270
500.02	3.374
500.36	3.529
500.70	3.677
501.04	3.845
501.39	4.021
501.73	4.208
502.07	4.398
502.41	4.628
502.75	4.862
503.09	5.142
503.44	5.428
503.78	5.724
504.12	6.016
504.46	6.329
504.80	6.661
505.14	7.000
505.49	7.360
505.83	7.726
506.17	8.084
506.51	8.454
506.85	8.826
507.19	9.186
507.53	9.553
507.87	9.899
508.22	10.259
508.56	10.612
508.90	10.973
509.24	11.335
509.58	11.684
509.92	12.041
510.26	12.399
510.60	12.770
510.94	13.148
511.28	13.557
511.63	13.970
511.97	14.398
512.31	14.853
512.65	15.328
512.99	15.837
513.33	16.404
513.67	17.021
514.01	17.665
514.35	18.300
514.69	18.937
515.03	19.530
515.37	20.138
515.71	20.700
516.05	21.219
516.39	21.741
516.73	22.193
517.07	22.626
517.41	22.995
517.75	23.329
518.09	23.656
518.43	23.944
518.77	24.235
519.11	24.537
519.45	24.847
519.79	25.183
520.13	25.522
520.47	25.933
520.81	26.403
521.15	26.880
521.49	27.413
521.83	27.948
522.17	28.561
522.51	29.164
522.85	29.804
523.19	30.568
523.53	31.420
523.87	32.278
524.21	33.148
524.55	33.944
524.89	34.683
525.23	35.345
525.57	35.925
525.91	36.440
526.25	36.908
526.58	37.327
526.92	37.686
527.26	37.979
527.60	38.225
527.94	38.390
528.28	38.515
528.62	38.629
528.96	38.736
529.30	38.827
529.64	38.914
529.97	39.030
530.31	39.128
530.65	39.229
530.99	39.319
531.33	39.438
531.67	39.597
532.01	39.770
532.35	39.915
532.68	40.041
533.02	40.138
533.36	40.239
533.70	40.283
534.04	40.353
534.38	40.407
534.71	40.445
535.05	40.504
535.39	40.549
535.73	40.630
536.07	40.746
536.41	40.924
536.74	41.232
537.08	41.505
537.42	41.845
537.76	42.165
538.10	42.496
538.43	42.840
538.77	43.149
539.11	43.429
539.45	43.681
539.79	43.897
540.12	44.057
540.46	44.105
540.80	44.151
541.14	44.161
541.47	44.169
541.81	44.123
542.15	44.073
542.49	44.004
542.82	43.913
543.16	43.803
543.50	43.705
543.84	43.587
544.17	43.542
544.51	43.501
544.85	43.437
545.18	43.398
545.52	43.320
545.86	43.264
546.20	43.161
546.53	43.083
546.87	43.001
547.21	42.889
547.54	42.856
547.88	42.830
548.22	42.771
548.55	42.762
548.89	42.706
549.23	42.705
549.56	42.718
549.90	42.758
550.24	42.781
550.57	42.787
550.91	42.801
551.25	42.811
551.58	42.792
551.92	42.773
552.26	42.783
552.59	42.764
552.93	42.734
553.27	42.660
553.60	42.632
553.94	42.626
554.27	42.618
554.61	42.630
554.95	42.606
555.28	42.580
555.62	42.638
555.95	42.615
556.29	42.658
556.63	42.735
556.96	42.811
557.30	42.818
557.63	42.797
557.97	42.825
558.31	42.809
558.64	42.823
558.98	42.836
559.31	42.824
559.65	42.809
559.98	42.790
560.32	42.743
560.65	42.785
560.99	42.842
561.33	42.936
561.66	42.972
562.00	43.019
562.33	43.036
562.67	43.054
563.00	43.069
563.34	43.142
563.67	43.173
564.01	43.251
564.34	43.219
564.68	43.257
565.01	43.192
565.35	43.207
565.68	43.206
566.02	43.198
566.35	43.232
566.69	43.218
567.02	43.196
567.36	43.162
567.69	43.075
568.03	43.122
568.36	43.072
568.69	43.098
569.03	43.055
569.36	43.074
569.70	43.029
570.03	43.022
570.37	43.029
570.70	43.032
571.04	42.994
571.37	43.030
571.70	42.915
572.04	42.842
572.37	42.764
572.71	42.711
573.04	42.623
573.37	42.581
573.71	42.445
574.04	42.329
574.38	42.174
574.71	42.075
575.04	41.901
575.38	41.823
575.71	41.691
576.05	41.553
576.38	41.423
576.71	41.205
577.05	41.025
577.38	40.862
577.71	40.691
578.05	40.564
578.38	40.434
578.71	40.300
579.05	40.104
579.38	40.001
579.71	39.839
580.05	39.635
580.38	39.502
580.71	39.350
581.05	39.269
581.38	39.176
581.71	39.032
582.05	38.895
582.38	38.791
582.71	38.681
583.04	38.594
583.38	38.549
583.71	38.533
584.04	38.514
584.38	38.515
584.71	38.423
585.04	38.375
585.37	38.354
585.71	38.369
586.04	38.321
586.37	38.342
586.70	38.291
587.04	38.267
587.37	38.220
587.70	38.171
588.03	38.106
588.37	38.042
588.70	37.943
589.03	37.834
589.36	37.709
589.69	37.599
590.03	37.456
590.36	37.313
590.69	37.166
591.02	37.045
591.35	36.916
591.69	36.806
592.02	36.747
592.35	36.703
592.68	36.645
593.01	36.599
593.35	36.581
593.68	36.570
594.01	36.519
594.34	36.457
594.67	36.372
595.00	36.320
595.34	36.272
595.67	36.155
596.00	36.015
596.33	35.889
596.66	35.678
596.99	35.516
597.32	35.326
597.65	35.147
597.99	34.975
598.32	34.861
598.65	34.728
598.98	34.534
599.31	34.420
599.64	34.311
599.97	34.236
600.30	34.228
600.63	34.206
600.96	34.160
601.30	34.167
601.63	34.137
601.96	34.087
602.29	34.000
602.62	33.962
602.95	33.890
603.28	33.787
603.61	33.702
603.94	33.579
604.27	33.453
604.60	33.358
604.93	33.174
605.26	33.060
605.59	32.893
605.92	32.780
606.25	32.658
606.58	32.575
606.91	32.474
607.24	32.354
607.57	32.313
607.90	32.189
608.23	32.075
608.56	32.016
608.89	31.873
609.22	31.712
609.55	31.575
609.88	31.432
610.21	31.223
610.54	31.064
610.87	30.898
611.20	30.650
611.53	30.475
611.86	30.290
612.19	30.124
612.52	29.951
612.85	29.847
613.18	29.734
613.51	29.606
613.84	29.515
614.17	29.443
614.49	29.343
614.82	29.299
615.15	29.218
615.48	29.152
615.81	29.051
616.14	29.012
616.47	28.904
616.80	28.834
617.13	28.716
617.46	28.596
617.78	28.472
618.11	28.379
618.44	28.272
618.77	28.196
619.10	28.050
619.43	27.961
619.76	27.872
620.09	27.860
620.41	27.714
620.74	27.692
621.07	27.660
621.40	27.634
621.73	27.623
622.06	27.620
622.38	27.581
622.71	27.592
623.04	27.598
623.37	27.585
623.70	27.575
624.02	27.596
624.35	27.598
624.68	27.621
625.01	27.634
625.34	27.635
625.66	27.574
625.99	27.498
626.32	27.457
626.65	27.406
626.98	27.343
627.30	27.222
627.63	27.180
627.96	27.062
628.29	26.867
628.61	26.728
628.94	26.561
629.27	26.438
629.60	26.383
629.92	26.295
630.25	26.167
630.58	26.093
630.91	26.038
631.23	25.938
631.56	25.844
631.89	25.835
632.21	25.747
632.54	25.732
632.87	25.708
633.19	25.624
633.52	25.510
633.85	25.446
634.18	25.328
634.50	25.260
634.83	25.111
635.16	24.995
635.48	24.866
635.81	24.811
636.14	24.667
636.46	24.523
636.79	24.405
637.11	24.332
637.44	24.206
637.77	24.102
638.09	23.967
638.42	23.890
638.75	23.877
639.07	23.789
639.40	23.682
639.73	23.598
640.05	23.492
640.38	23.381
640.70	23.323
641.03	23.259
641.36	23.218
641.68	23.161
642.01	23.120
642.33	22.980
642.66	22.931
642.98	22.906
643.31	22.846
643.64	22.826
643.96	22.803
644.29	22.766
644.61	22.770
644.94	22.676
645.26	22.706
645.59	22.688
645.91	22.719
646.24	22.737
646.56	22.658
646.89	22.655
647.22	22.637
647.54	22.655
647.87	22.585
648.19	22.524
648.52	22.583
648.84	22.496
649.17	22.410
649.49	22.396
649.82	22.326
650.14	22.271
650.47	22.233
650.79	22.176
651.11	22.134
651.44	22.127
651.76	22.080
652.09	22.007
652.41	21.941
652.74	21.938
653.06	21.849
653.39	21.826
653.71	21.929
654.04	21.910
654.36	21.921
654.68	21.884
655.01	21.873
655.33	21.934
655.66	21.915
655.98	21.971
656.30	22.062
656.63	22.063
656.95	22.074
657.28	21.948
657.60	21.872
657.92	21.786
658.25	21.727
658.57	21.665
658.90	21.547
659.22	21.428
659.54	21.307
659.87	21.128
660.19	20.988
660.51	20.778
660.84	20.689
661.16	20.523
661.48	20.367
661.81	20.170
662.13	19.976
662.45	19.866
662.78	19.760
663.10	19.672
663.42	19.504
663.75	19.389
664.07	19.333
664.39	19.235
664.72	19.223
665.04	19.227
665.36	19.155
665.69	19.096
666.01	18.993
666.33	18.971
666.65	18.889
666.98	18.934
667.30	18.901
667.62	18.888
667.94	18.755
668.27	18.709
668.59	18.579
668.91	18.615
669.23	18.617
669.56	18.524
669.88	18.397
670.20	18.298
670.52	18.141
670.85	18.035
671.17	17.913
671.49	17.832
671.81	17.715
672.13	17.714
672.46	17.551
672.78	17.481
673.10	17.422
673.42	17.370
673.74	17.331
674.07	17.278
674.39	17.279
674.71	17.206
675.03	17.265
675.35	17.237
675.67	17.269
676.00	17.432
676.32	17.485
676.64	17.601
676.96	17.741
677.28	17.797
677.60	17.876
677.92	17.932
678.25	18.020
678.57	18.004
678.89	18.068
679.21	18.043
679.53	17.943
679.85	17.897
680.17	17.848
680.49	17.714
680.81	17.682
681.13	17.638
681.46	17.571
681.78	17.562
682.10	17.531
682.42	17.417
682.74	17.408
683.06	17.423
683.38	17.320
683.70	17.369
684.02	17.424
684.34	17.423
684.66	17.460
684.98	17.575
685.30	17.588
685.62	17.625
685.94	17.685
686.26	17.684
686.58	17.684
686.90	17.732
687.22	17.559
687.54	17.522
687.86	17.405
688.18	17.212
688.50	16.951
688.82	16.749
689.14	16.563
689.46	16.437
689.78	16.187
690.10	15.958
690.42	15.749
690.74	15.658
691.06	15.496
691.38	15.435
691.70	15.323
692.02	15.252
692.34	15.173
692.66	15.131
692.98	15.073
693.30	15.075
693.62	15.164
693.94	15.353
694.26	15.430
694.57	15.576
694.89	15.684
695.21	15.892
695.53	16.034
695.85	16.175
696.17	16.351
696.49	16.441
696.81	16.482
697.13	16.524
697.44	16.416
697.76	16.412
698.08	16.274
698.40	16.050
698.72	15.757
699.04	15.440
699.36	15.043
699.67	14.558
699.99	14.121
700.31	13.682
700.63	13.098
700.95	12.579
701.27	11.933
701.58	11.411
701.90	11.011
702.22	10.705
702.54	10.431
702.86	10.350
703.17	10.308
703.49	10.209
703.81	10.114
704.13	10.034
704.45	9.985
704.76	9.970
705.08	9.958
705.40	9.921
705.72	9.927
706.03	9.933
706.35	9.904
706.67	9.818
706.99	9.812
707.30	9.828
707.62	9.854
707.94	9.791
708.26	9.891
708.57	9.895
708.89	9.898
709.21	9.894
709.53	9.981
709.84	9.908
710.16	9.867
710.48	9.866
710.79	9.830
711.11	9.853
711.43	10.029
711.74	9.918
712.06	10.046
712.38	10.150
712.69	10.288
713.01	10.389
713.33	10.638
713.64	10.843
713.96	10.941
714.28	11.240
714.59	11.327
714.91	11.306
715.23	11.497
715.54	11.436
715.86	11.499
716.17	11.482
716.49	11.362
716.81	11.143
717.12	10.832
717.44	10.637
717.76	10.240
718.07	10.020
718.39	9.773
718.70	9.412
719.02	9.187
719.33	8.909
719.65	8.464
719.97	8.288
720.28	8.025
720.60	7.971
720.91	7.835
721.23	7.787
721.54	7.641
721.86	7.701
722.17	7.893
722.49	7.939
722.81	7.951
723.12	8.175
723.44	8.294
723.75	8.401
724.07	8.591
724.38	8.687
724.70	8.742
725.01	8.877
725.33	8.923
725.64	8.826
725.96	8.808
726.27	8.834
726.59	8.937
726.90	8.932
727.22	8.924
727.53	8.845
727.84	8.858
728.16	8.806
728.47	8.732
728.79	8.642
729.10	8.652
729.42	8.406
729.73	8.195
730.05	7.881
730.36	7.592
730.67	7.388
730.99	7.088
731.30	6.821
731.62	6.543
731.93	6.281
732.24	5.897
732.56	5.519
732.87	5.292
733.19	4.982
733.50	4.538
733.81	4.184
734.13	3.680
734.44	3.444
734.76	2.966
735.07	2.508
735.38	2.319
735.70	2.210
736.01	1.850
736.32	1.656
736.64	1.539
736.95	1.688
737.26	1.581
737.58	1.670
737.89	1.465
738.20	1.368
738.52	1.491
738.83	1.018
739.14	0.619
739.45	0.438
739.77	-0.010
740.08	-0.199
740.39	-0.833
740.71	-1.286
741.02	-1.866
741.33	-2.494
741.64	-2.914
741.96	-3.666
742.27	-3.945
742.58	-4.255
742.90	-4.702
743.21	-4.991
743.52	-5.599
743.83	-5.648
744.14	-6.037
744.46	-6.198
744.77	-6.183
745.08	-6.215
745.39	-6.112
745.71	-6.075
746.02	-6.404
746.33	-6.453
746.64	-6.109
746.95	-5.761
747.27	-5.742
747.58	-5.573
747.89	-5.712
748.20	-5.695
748.51	-5.722
748.82	-5.922
749.14	-5.852
749.45	-5.660
749.76	-5.677
750.07	-5.814
750.38	-5.984
750.69	-6.043
751.01	-6.081
751.32	-5.962
751.63	-6.119
751.94	-6.366
752.25	-6.264
752.56	-6.640
752.87	-6.598
753.18	-6.573
753.49	-6.741
753.81	-6.816
754.12	-6.373
754.43	-6.191
754.74	-5.628
755.05	-4.701
755.36	-3.678
755.67	-2.561
755.98	-1.193
756.29	0.315
756.60	1.759
756.91	3.418
757.22	4.922
757.53	6.128
757.84	7.700
758.15	9.234
758.46	10.466
758.77	11.592
759.09	12.696
759.40	13.453
759.71	13.981
760.02	14.493
760.33	14.879
760.64	15.077
760.95	15.008
761.26	14.965
761.57	14.724
761.88	14.506
762.18	14.025
762.49	13.556
762.80	13.098
763.11	12.446
763.42	11.822
763.73	10.855
764.04	10.053
764.35	9.166
764.66	8.258
764.97	7.036
765.28	5.475
765.59	4.099
765.90	2.243
766.21	0.683
766.52	-1.006
766.83	-2.668
767.14	-3.819
767.44	-5.298
767.75	-6.589
768.06	-7.915
768.37	-8.695
768.68	-9.546
768.99	-10.478
769.30	-10.778
769.61	-11.915
769.91	-11.880
770.22	-12.586
770.53	-13.307
770.84	-13.896
771.15	-14.264
771.46	-15.187
771.77	-15.990
772.07	-16.421
772.38	-16.461
772.69	-16.646
773.00	-16.649
773.31	-17.378
773.61	-17.739
773.92	-17.505
774.23	-17.674
774.54	-17.421
774.85	-17.292
775.15	-17.057
775.46	-17.106
775.77	-17.123
776.08	-17.362
776.39	-17.256
776.69	-16.591
777.00	-16.144
777.31	-16.243
777.62	-15.403
777.92	-15.713
778.23	-15.763
778.54	-15.939
778.85	-15.438
779.15	-15.302
779.46	-15.419
779.77	-15.630
780.07	-16.751
780.38	-16.886
780.69	-16.979
781.00	-17.526
781.30	-17.381
781.61	-17.186
781.92	-17.565
782.22	-18.095
782.53	-18.183
782.84	-17.816
783.14	-17.455
783.45	-16.925
783.76	-16.411
784.06	-15.631
784.37	-14.934
784.68	-13.965
784.98	-13.190
785.29	-11.697
785.60	-10.513
785.90	-9.810
786.21	-9.246
786.51	-8.430
786.82	-7.583
787.13	-7.060
787.43	-6.882
787.74	-6.643
788.04	-6.606
788.35	-6.485
788.66	-6.702
788.96	-6.795
789.27	-6.862
789.57	-6.590
789.88	-6.792
790.19	-6.801
790.49	-7.063
790.80	-7.256
791.10	-7.404
791.41	-7.156
791.71	-7.285
792.02	-7.742
792.32	-7.982
792.63	-7.645
792.93	-8.260
793.24	-8.105
793.54	-7.398
793.85	-6.785
794.15	-6.192
794.46	-5.627
794.76	-5.833
795.07	-5.679
795.37	-4.795
795.68	-4.260
795.98	-4.319
796.29	-3.986
796.59	-3.573
796.90	-4.205
797.20	-4.991
797.51	-5.163
797.81	-5.334
798.12	-5.129
798.42	-4.837
798.72	-5.760
799.03	-5.905
799.33	-5.750
799.64	-5.968
799.94	-6.337
800.25	-6.249
800.55	-6.012
800.85	-6.366
801.16	-6.816
801.46	-7.549
801.77	-7.629
802.07	-7.197
802.37	-6.882
802.68	-6.793
802.98	-5.922
803.28	-5.964
803.59	-5.884
803.89	-6.101
804.20	-5.813
804.50	-5.558
804.80	-5.096
805.11	-5.222
805.41	-5.031
805.71	-5.440
806.02	-5.556
806.32	-6.515
806.62	-7.067
806.93	-7.206
807.23	-7.296
807.53	-7.636
807.83	-7.599
808.14	-7.760
808.44	-7.850
808.74	-8.232
809.05	-7.662
809.35	-7.611
809.65	-7.020
809.95	-6.647
810.26	-6.115
810.56	-4.330
810.86	-3.442
811.16	-2.910
811.47	-1.662
811.77	-0.682
812.07	-0.085
812.37	0.300
812.68	0.892
812.98	0.944
813.28	1.952
813.58	3.102
813.88	2.811
814.19	3.009
814.49	3.969
814.79	4.498
815.09	4.996
815.39	5.613
815.70	5.853
816.00	6.070
816.30	7.363
816.60	8.105
816.90	8.836
817.20	9.977
817.50	11.093
817.81	12.241
818.11	13.123
818.41	14.123
818.71	15.211
819.01	16.068
819.31	16.906
819.61	17.427
819.92	17.934
820.22	18.170
820.52	18.351
820.82	18.549
821.12	18.658
821.42	18.780
821.72	18.861
822.02	18.912
822.32	18.937
822.62	18.847
822.92	18.711
823.22	18.529
823.52	18.365
823.83	18.237
824.13	18.151
824.43	17.937
824.73	17.836
825.03	17.696
825.33	17.550
825.63	17.340
825.93	17.249
826.23	17.172
826.53	17.038
826.83	16.798
827.13	16.560
827.43	16.254
827.73	16.187
828.03	15.878
828.33	15.129
828.63	14.498
828.93	14.183
829.23	13.512
829.53	13.003
829.83	12.685
830.13	12.628
830.42	12.974
830.72	13.088
831.02	13.164
831.32	13.376
831.62	14.157
831.92	14.419
832.22	14.599
832.52	14.856
832.82	14.693
833.12	14.855
833.42	15.184
833.72	15.054
834.01	14.883
834.31	14.494
834.61	14.054
834.91	13.738
835.21	13.098
835.51	12.518
835.81	11.699
836.11	11.692
836.40	10.338
836.70	8.997
837.00	7.706
837.30	6.229
837.60	5.873
837.90	4.989
838.19	3.387
838.49	3.229
838.79	2.729
839.09	2.241
839.39	1.641
839.68	0.940
839.98	0.455
840.28	-0.233
840.58	-0.051
840.88	-1.323
841.17	-1.955
841.47	-1.693
841.77	-1.912
842.07	-3.072
842.36	-4.081
842.66	-6.519
842.96	-8.216
843.26	-10.730
843.55	-12.729
843.85	-15.848
844.15	-17.663
844.45	-18.905
844.74	-22.755
845.04	-26.587
845.34	-30.640
845.63	-30.041
845.93	-30.471
846.23	-28.292
846.53	-26.486
846.82	-27.388
847.12	-25.374
847.42	-22.892
847.71	-20.443
848.01	-18.114
848.31	-15.435
848.60	-12.620
848.90	-12.889
849.19	-12.056
849.49	-12.360
849.79	-14.623
850.08	-12.151
850.38	-12.359
850.68	-12.612
850.97	-16.852
851.27	-16.225
851.56	-17.702
851.86	-18.539
852.16	-18.004
852.45	-17.709
852.75	-17.181
853.04	-16.879
853.34	-19.029
853.64	-16.641
853.93	-16.757
854.23	-14.455
854.52	-16.500
854.82	-17.165
855.11	-17.694
855.41	-20.918
855.70	-20.125
856.00	-22.524
856.30	-22.086
856.59	-20.548
856.89	-23.615
857.18	-22.663
857.48	-21.076
857.77	-20.314
858.07	-18.001
858.36	-18.860
858.66	-13.270
858.95	-13.205
859.25	-11.324
859.54	-10.398
859.84	-11.525
860.13	-11.198
860.42	-11.670
860.72	-14.501
861.01	-13.466
861.31	-16.739
861.60	-14.554
861.90	-15.179
862.19	-16.403
862.49	-14.779
862.78	-15.111
863.07	-15.536
863.37	-15.394
863.66	-15.161
863.96	-13.804
864.25	-13.921
864.54	-14.576
864.84	-14.134
865.13	-15.605
865.43	-12.821
865.72	-18.404
866.01	-45.727
866.31	-6.381
866.60	-9.481
866.89	7.727
>>>>>End Spectral Data<<<<<
