OOIBase32 Version 2.0.0.6 Data File
++++++++++++++++++++++++++++++++++++
Date: 01-19-2012, 15:21:34
User: Valued Ocean Optics Customer
Spectrometer Serial Number: USB2E2917
Spectrometer Channel: Master
Integration Time (msec): 5
Spectra Averaged: 10
Boxcar Smoothing: 5
Correct for Electrical Dark: Enabled
Time Normalized: Disabled
Dual-beam Reference: Disabled
Reference Channel: Master
Temperature: Not acquired
Spectrometer Type: S2000
ADC Type: USB2000
Number of Pixels in File: 2048
Graph Title: 
>>>>>Begin Spectral Data<<<<<
180.30	0.000
180.67	0.000
181.03	5998.885
181.40	-51.349
181.77	73.965
182.14	-61.184
182.51	209.553
182.88	-134.665
183.25	56.106
183.62	-20.155
183.99	-226.720
184.36	283.422
184.73	-1793.262
185.10	2.620
185.46	76.063
185.83	26.540
186.20	-713.612
186.57	88.248
186.94	-545.685
187.31	-54.568
187.68	-59.716
188.05	55.730
188.42	76.298
188.78	84.443
189.15	60.248
189.52	92.063
189.89	104.030
190.26	55.636
190.63	51.459
191.00	50.171
191.37	37.956
191.73	32.850
192.10	17.013
192.47	7.641
192.84	-22.631
193.21	-36.115
193.58	-32.747
193.94	-47.006
194.31	-44.303
194.68	-33.271
195.05	-66.807
195.42	-69.106
195.79	-41.999
196.15	-34.927
196.52	-29.104
196.89	-19.822
197.26	-20.196
197.63	-27.927
198.00	-20.059
198.36	-18.668
198.73	-13.417
199.10	-8.237
199.47	3.670
199.84	-12.300
200.20	-16.285
200.57	-8.089
200.94	-1.784
201.31	-5.306
201.68	1.075
202.04	6.641
202.41	11.621
202.78	4.918
203.15	2.446
203.51	-10.971
203.88	-5.025
204.25	13.458
204.62	1.005
204.98	-7.148
205.35	16.827
205.72	20.853
206.09	11.020
206.46	-19.439
206.82	-30.680
207.19	-4.450
207.56	-8.400
207.92	-1.972
208.29	-31.565
208.66	-28.147
209.03	-39.401
209.39	-40.665
209.76	-88.434
210.13	-82.105
210.50	-51.847
210.86	-62.976
211.23	-64.705
211.60	-67.841
211.96	-76.223
212.33	-34.104
212.70	-69.200
213.07	-46.897
213.43	-56.021
213.80	-39.638
214.17	-39.377
214.53	-43.316
214.90	-24.218
215.27	-47.389
215.63	-25.848
216.00	-26.096
216.37	-51.228
216.74	-1.105
217.10	10.979
217.47	23.316
217.84	19.829
218.20	17.135
218.57	13.411
218.94	12.659
219.30	18.199
219.67	10.925
220.04	13.986
220.40	12.944
220.77	9.502
221.13	2.545
221.50	7.933
221.87	10.920
222.23	13.582
222.60	11.567
222.97	11.473
223.33	10.840
223.70	8.370
224.07	10.837
224.43	12.474
224.80	13.186
225.16	13.545
225.53	14.011
225.90	12.651
226.26	11.897
226.63	13.101
226.99	12.679
227.36	12.418
227.73	13.448
228.09	13.571
228.46	13.452
228.82	13.694
229.19	13.448
229.56	12.321
229.92	13.528
230.29	15.156
230.65	14.777
231.02	15.356
231.38	15.941
231.75	13.679
232.12	12.152
232.48	12.165
232.85	11.441
233.21	11.268
233.58	12.001
233.94	9.743
234.31	7.269
234.68	7.295
235.04	7.141
235.41	7.129
235.77	8.091
236.14	9.520
236.50	8.950
236.87	9.353
237.23	10.631
237.60	10.111
237.96	11.985
238.33	13.482
238.69	13.968
239.06	14.213
239.42	13.777
239.79	13.767
240.15	14.170
240.52	15.033
240.88	15.318
241.25	15.294
241.61	15.192
241.98	14.751
242.34	14.211
242.71	13.820
243.07	13.784
243.44	14.127
243.80	14.153
244.17	13.346
244.53	12.953
244.90	12.564
245.26	12.338
245.63	12.520
245.99	12.370
246.36	12.713
246.72	12.597
247.09	12.256
247.45	12.238
247.81	12.482
248.18	13.077
248.54	13.262
248.91	13.522
249.27	13.477
249.64	13.435
250.00	13.736
250.36	12.947
250.73	13.427
251.09	13.866
251.46	13.239
251.82	12.398
252.19	11.588
252.55	10.549
252.91	10.541
253.28	10.589
253.64	10.385
254.01	10.077
254.37	10.717
254.73	10.628
255.10	10.552
255.46	10.921
255.83	11.290
256.19	11.268
256.55	11.876
256.92	11.775
257.28	11.650
257.65	11.753
258.01	11.731
258.37	11.456
258.74	11.477
259.10	11.589
259.46	11.389
259.83	11.289
260.19	11.450
260.55	11.184
260.92	11.084
261.28	11.003
261.64	10.781
262.01	10.865
262.37	11.045
262.73	10.682
263.10	10.223
263.46	10.307
263.82	10.240
264.19	10.076
264.55	10.440
264.91	10.262
265.28	10.684
265.64	10.515
266.00	10.507
266.37	10.299
266.73	10.291
267.09	10.512
267.46	10.570
267.82	10.504
268.18	10.337
268.54	10.253
268.91	10.409
269.27	10.084
269.63	10.178
270.00	10.025
270.36	10.175
270.72	10.345
271.08	10.255
271.45	10.253
271.81	10.233
272.17	10.417
272.53	10.383
272.90	10.603
273.26	10.737
273.62	10.761
273.98	10.894
274.35	10.950
274.71	10.567
275.07	10.436
275.43	10.526
275.80	10.625
276.16	10.276
276.52	10.191
276.88	9.803
277.25	9.723
277.61	9.680
277.97	9.818
278.33	9.660
278.69	9.955
279.06	9.836
279.42	9.555
279.78	9.307
280.14	9.580
280.50	9.756
280.87	9.931
281.23	9.746
281.59	9.656
281.95	9.443
282.31	9.393
282.68	9.285
283.04	9.348
283.40	9.460
283.76	9.471
284.12	9.464
284.48	9.338
284.85	9.233
285.21	9.374
285.57	9.331
285.93	9.355
286.29	9.395
286.65	9.403
287.02	9.493
287.38	9.425
287.74	9.579
288.10	9.518
288.46	9.520
288.82	9.301
289.18	9.110
289.54	9.168
289.91	9.015
290.27	9.053
290.63	9.097
290.99	9.141
291.35	9.248
291.71	9.337
292.07	9.361
292.43	9.320
292.79	9.468
293.16	9.623
293.52	9.749
293.88	9.801
294.24	9.785
294.60	9.960
294.96	10.052
295.32	10.171
295.68	10.152
296.04	10.011
296.40	10.061
296.76	10.180
297.12	10.272
297.49	10.406
297.85	10.547
298.21	10.718
298.57	10.496
298.93	10.612
299.29	10.579
299.65	10.677
300.01	11.011
300.37	11.157
300.73	11.196
301.09	11.184
301.45	11.101
301.81	11.259
302.17	11.327
302.53	11.661
302.89	11.856
303.25	12.084
303.61	12.409
303.97	12.665
304.33	12.864
304.69	13.122
305.05	13.577
305.41	13.781
305.77	13.834
306.13	13.883
306.49	13.790
306.85	13.634
307.21	13.668
307.57	13.648
307.93	13.631
308.29	13.601
308.65	13.603
309.01	13.429
309.37	13.529
309.73	13.577
310.09	13.600
310.45	13.702
310.81	13.743
311.17	13.730
311.53	13.656
311.89	13.589
312.25	13.432
312.61	13.399
312.96	13.350
313.32	13.185
313.68	13.247
314.04	13.223
314.40	13.059
314.76	13.104
315.12	12.971
315.48	12.885
315.84	12.799
316.20	12.849
316.56	12.815
316.92	12.705
317.27	12.703
317.63	12.528
317.99	12.507
318.35	12.531
318.71	12.372
319.07	12.313
319.43	12.126
319.79	12.115
320.15	11.953
320.50	11.741
320.86	11.576
321.22	11.201
321.58	10.967
321.94	10.731
322.30	10.584
322.66	10.430
323.01	10.280
323.37	10.172
323.73	9.944
324.09	9.932
324.45	9.747
324.81	9.718
325.17	9.770
325.52	9.704
325.88	9.578
326.24	9.330
326.60	9.178
326.96	8.991
327.31	8.894
327.67	8.723
328.03	8.449
328.39	8.410
328.75	8.311
329.11	8.159
329.46	8.124
329.82	8.185
330.18	8.358
330.54	8.369
330.90	8.493
331.25	8.480
331.61	8.600
331.97	8.715
332.33	8.796
332.68	8.750
333.04	8.830
333.40	8.770
333.76	8.751
334.11	8.651
334.47	8.686
334.83	8.622
335.19	8.634
335.54	8.474
335.90	8.390
336.26	8.339
336.62	8.298
336.97	8.239
337.33	8.246
337.69	8.021
338.05	7.896
338.40	7.714
338.76	7.644
339.12	7.579
339.48	7.538
339.83	7.618
340.19	7.570
340.55	7.672
340.90	7.645
341.26	7.624
341.62	7.659
341.97	7.738
342.33	7.834
342.69	7.901
343.04	7.869
343.40	7.958
343.76	7.848
344.12	7.838
344.47	7.760
344.83	7.723
345.19	7.696
345.54	7.667
345.90	7.618
346.26	7.526
346.61	7.431
346.97	7.466
347.32	7.416
347.68	7.317
348.04	7.202
348.39	7.061
348.75	7.004
349.11	6.894
349.46	6.883
349.82	6.732
350.18	6.561
350.53	6.483
350.89	6.315
351.24	6.187
351.60	6.246
351.96	6.150
352.31	6.172
352.67	6.133
353.02	6.043
353.38	6.026
353.74	6.145
354.09	6.250
354.45	6.379
354.80	6.543
355.16	6.693
355.52	6.688
355.87	6.874
356.23	6.925
356.58	6.975
356.94	7.066
357.29	7.071
357.65	7.066
358.00	7.105
358.36	7.074
358.72	7.000
359.07	6.963
359.43	6.910
359.78	6.849
360.14	6.789
360.49	6.763
360.85	6.655
361.20	6.634
361.56	6.550
361.91	6.432
362.27	6.361
362.62	6.235
362.98	6.126
363.33	6.047
363.69	5.835
364.04	5.708
364.40	5.611
364.75	5.580
365.11	5.458
365.46	5.336
365.82	5.192
366.17	5.102
366.53	5.072
366.88	4.998
367.24	4.956
367.59	5.096
367.95	5.112
368.30	5.143
368.66	5.135
369.01	5.218
369.37	5.338
369.72	5.505
370.08	5.571
370.43	5.599
370.78	5.612
371.14	5.663
371.49	5.654
371.85	5.712
372.20	5.687
372.56	5.759
372.91	5.683
373.26	5.568
373.62	5.419
373.97	5.257
374.33	5.174
374.68	5.099
375.03	5.055
375.39	4.956
375.74	4.848
376.10	4.790
376.45	4.694
376.80	4.639
377.16	4.629
377.51	4.710
377.87	4.823
378.22	4.901
378.57	5.009
378.93	5.102
379.28	5.225
379.63	5.374
379.99	5.494
380.34	5.641
380.70	5.812
381.05	6.001
381.40	5.983
381.76	5.952
382.11	5.904
382.46	5.819
382.82	5.778
383.17	5.703
383.52	5.607
383.88	5.556
384.23	5.478
384.58	5.441
384.94	5.357
385.29	5.412
385.64	5.469
385.99	5.522
386.35	5.568
386.70	5.448
387.05	5.377
387.41	5.326
387.76	5.230
388.11	5.176
388.47	5.086
388.82	5.068
389.17	5.033
389.52	4.957
389.88	4.971
390.23	4.969
390.58	5.119
390.93	5.212
391.29	5.261
391.64	5.346
391.99	5.400
392.34	5.393
392.70	5.325
393.05	5.304
393.40	5.312
393.75	5.197
394.11	5.158
394.46	5.037
394.81	4.915
395.16	4.769
395.52	4.598
395.87	4.353
396.22	4.165
396.57	3.967
396.92	3.684
397.28	3.497
397.63	3.285
397.98	3.049
398.33	2.862
398.68	2.674
399.04	2.515
399.39	2.382
399.74	2.396
400.09	2.392
400.44	2.392
400.80	2.458
401.15	2.458
401.50	2.580
401.85	2.646
402.20	2.658
402.55	2.720
402.90	2.799
403.26	2.874
403.61	2.817
403.96	2.803
404.31	2.786
404.66	2.766
405.01	2.714
405.36	2.602
405.72	2.551
406.07	2.507
406.42	2.435
406.77	2.361
407.12	2.255
407.47	2.232
407.82	2.176
408.17	2.132
408.53	2.073
408.88	2.004
409.23	1.968
409.58	1.914
409.93	1.875
410.28	1.827
410.63	1.794
410.98	1.733
411.33	1.735
411.68	1.759
412.03	1.742
412.38	1.800
412.73	1.917
413.09	2.064
413.44	2.241
413.79	2.419
414.14	2.632
414.49	2.858
414.84	3.102
415.19	3.276
415.54	3.494
415.89	3.750
416.24	3.949
416.59	4.147
416.94	4.285
417.29	4.390
417.64	4.496
417.99	4.598
418.34	4.653
418.69	4.732
419.04	4.830
419.39	4.881
419.74	4.908
420.09	4.938
420.44	4.930
420.79	4.915
421.14	4.894
421.49	4.880
421.84	4.842
422.19	4.833
422.54	4.798
422.89	4.712
423.24	4.622
423.59	4.538
423.94	4.418
424.29	4.299
424.64	4.212
424.99	4.106
425.34	4.003
425.68	3.878
426.03	3.719
426.38	3.598
426.73	3.541
427.08	3.482
427.43	3.437
427.78	3.481
428.13	3.530
428.48	3.575
428.83	3.641
429.18	3.705
429.53	3.766
429.87	3.844
430.22	3.871
430.57	3.869
430.92	3.883
431.27	3.887
431.62	3.855
431.97	3.805
432.32	3.719
432.67	3.651
433.01	3.572
433.36	3.502
433.71	3.441
434.06	3.383
434.41	3.341
434.76	3.321
435.11	3.317
435.45	3.345
435.80	3.395
436.15	3.501
436.50	3.584
436.85	3.672
437.20	3.752
437.54	3.823
437.89	3.869
438.24	3.916
438.59	3.916
438.94	3.882
439.29	3.822
439.63	3.759
439.98	3.689
440.33	3.632
440.68	3.562
441.03	3.536
441.37	3.539
441.72	3.582
442.07	3.622
442.42	3.702
442.76	3.828
443.11	3.944
443.46	4.061
443.81	4.145
444.16	4.216
444.50	4.278
444.85	4.304
445.20	4.274
445.55	4.210
445.89	4.133
446.24	4.019
446.59	3.869
446.94	3.729
447.28	3.556
447.63	3.381
447.98	3.201
448.32	3.024
448.67	2.856
449.02	2.720
449.37	2.612
449.71	2.581
450.06	2.577
450.41	2.628
450.75	2.640
451.10	2.672
451.45	2.666
451.79	2.670
452.14	2.685
452.49	2.679
452.84	2.678
453.18	2.660
453.53	2.635
453.88	2.634
454.22	2.624
454.57	2.678
454.92	2.782
455.26	2.930
455.61	3.095
455.95	3.234
456.30	3.371
456.65	3.519
456.99	3.665
457.34	3.784
457.69	3.885
458.03	3.944
458.38	3.958
458.73	3.911
459.07	3.834
459.42	3.717
459.76	3.578
460.11	3.424
460.46	3.263
460.80	3.092
461.15	2.912
461.49	2.729
461.84	2.577
462.19	2.463
462.53	2.394
462.88	2.351
463.22	2.367
463.57	2.397
463.91	2.448
464.26	2.490
464.61	2.534
464.95	2.581
465.30	2.616
465.64	2.640
465.99	2.637
466.33	2.624
466.68	2.603
467.02	2.529
467.37	2.473
467.71	2.411
468.06	2.374
468.41	2.319
468.75	2.237
469.10	2.148
469.44	2.054
469.79	1.981
470.13	1.896
470.48	1.830
470.82	1.777
471.17	1.734
471.51	1.682
471.86	1.627
472.20	1.570
472.55	1.512
472.89	1.476
473.23	1.446
473.58	1.386
473.92	1.359
474.27	1.346
474.61	1.359
474.96	1.357
475.30	1.379
475.65	1.363
475.99	1.376
476.34	1.413
476.68	1.444
477.02	1.470
477.37	1.551
477.71	1.655
478.06	1.790
478.40	2.042
478.75	2.468
479.09	2.934
479.43	3.426
479.78	3.885
480.12	4.308
480.47	4.701
480.81	5.061
481.15	5.384
481.50	5.682
481.84	5.993
482.19	6.267
482.53	6.474
482.87	6.609
483.22	6.632
483.56	6.567
483.90	6.434
484.25	6.253
484.59	6.052
484.94	5.840
485.28	5.648
485.62	5.419
485.97	5.162
486.31	4.900
486.65	4.691
487.00	4.546
487.34	4.452
487.68	4.397
488.03	4.349
488.37	4.317
488.71	4.286
489.06	4.219
489.40	4.146
489.74	4.069
490.09	3.988
490.43	3.846
490.77	3.701
491.11	3.527
491.46	3.338
491.80	3.150
492.14	2.952
492.49	2.743
492.83	2.525
493.17	2.295
493.51	2.077
493.86	1.873
494.20	1.710
494.54	1.582
494.88	1.574
495.23	1.568
495.57	1.587
495.91	1.594
496.25	1.596
496.60	1.600
496.94	1.588
497.28	1.548
497.62	1.482
497.97	1.437
498.31	1.370
498.65	1.280
498.99	1.209
499.33	1.126
499.68	1.071
500.02	1.020
500.36	0.970
500.70	0.918
501.04	0.908
501.39	0.890
501.73	0.897
502.07	0.936
502.41	0.943
502.75	0.980
503.09	1.036
503.44	1.082
503.78	1.109
504.12	1.192
504.46	1.262
504.80	1.324
505.14	1.422
505.49	1.509
505.83	1.574
506.17	1.663
506.51	1.732
506.85	1.806
507.19	1.862
507.53	1.938
507.87	1.956
508.22	1.981
508.56	2.001
508.90	2.004
509.24	1.970
509.58	1.938
509.92	1.908
510.26	1.871
510.60	1.830
510.94	1.809
511.28	1.781
511.63	1.754
511.97	1.744
512.31	1.755
512.65	1.750
512.99	1.813
513.33	1.939
513.67	2.063
514.01	2.226
514.35	2.402
514.69	2.583
515.03	2.765
515.37	2.960
515.71	3.136
516.05	3.278
516.39	3.418
516.73	3.493
517.07	3.513
517.41	3.526
517.75	3.481
518.09	3.395
518.43	3.274
518.77	3.117
519.11	2.939
519.45	2.747
519.79	2.581
520.13	2.416
520.47	2.314
520.81	2.265
521.15	2.229
521.49	2.258
521.83	2.344
522.17	2.473
522.51	2.680
522.85	2.913
523.19	3.248
523.53	3.692
523.87	4.169
524.21	4.614
524.55	5.004
524.89	5.350
525.23	5.669
525.57	5.934
525.91	6.172
526.25	6.369
526.58	6.550
526.92	6.674
527.26	6.723
527.60	6.694
527.94	6.629
528.28	6.536
528.62	6.426
528.96	6.290
529.30	6.156
529.64	5.996
529.97	5.826
530.31	5.642
530.65	5.458
530.99	5.274
531.33	5.156
531.67	5.066
532.01	4.995
532.35	4.920
532.68	4.828
533.02	4.720
533.36	4.583
533.70	4.459
534.04	4.323
534.38	4.175
534.71	4.008
535.05	3.834
535.39	3.651
535.73	3.506
536.07	3.428
536.41	3.434
536.74	3.499
537.08	3.651
537.42	3.797
537.76	3.992
538.10	4.190
538.43	4.413
538.77	4.628
539.11	4.820
539.45	4.967
539.79	5.095
540.12	5.157
540.46	5.179
540.80	5.126
541.14	5.067
541.47	4.955
541.81	4.822
542.15	4.668
542.49	4.476
542.82	4.249
543.16	4.025
543.50	3.740
543.84	3.493
544.17	3.261
544.51	3.090
544.85	2.912
545.18	2.738
545.52	2.575
545.86	2.370
546.20	2.159
546.53	1.956
546.87	1.715
547.21	1.505
547.54	1.284
547.88	1.084
548.22	0.892
548.55	0.743
548.89	0.622
549.23	0.533
549.56	0.467
549.90	0.452
550.24	0.475
550.57	0.506
550.91	0.545
551.25	0.570
551.58	0.592
551.92	0.599
552.26	0.558
552.59	0.510
552.93	0.425
553.27	0.368
553.60	0.275
553.94	0.185
554.27	0.145
554.61	0.100
554.95	0.049
555.28	-0.007
555.62	-0.031
555.95	-0.039
556.29	-0.008
556.63	0.028
556.96	0.056
557.30	0.134
557.63	0.189
557.97	0.227
558.31	0.247
558.64	0.281
558.98	0.307
559.31	0.322
559.65	0.364
559.98	0.390
560.32	0.453
560.65	0.495
560.99	0.551
561.33	0.625
561.66	0.717
562.00	0.829
562.33	0.972
562.67	1.096
563.00	1.240
563.34	1.388
563.67	1.521
564.01	1.634
564.34	1.763
564.68	1.849
565.01	1.934
565.35	1.971
565.68	2.001
566.02	1.983
566.35	2.007
566.69	2.021
567.02	2.012
567.36	2.037
567.69	2.053
568.03	2.065
568.36	2.095
568.69	2.132
569.03	2.208
569.36	2.294
569.70	2.399
570.03	2.482
570.37	2.558
570.70	2.636
571.04	2.679
571.37	2.715
571.70	2.759
572.04	2.789
572.37	2.770
572.71	2.758
573.04	2.750
573.37	2.718
573.71	2.678
574.04	2.611
574.38	2.525
574.71	2.434
575.04	2.354
575.38	2.262
575.71	2.172
576.05	2.119
576.38	2.020
576.71	1.930
577.05	1.814
577.38	1.704
577.71	1.634
578.05	1.581
578.38	1.529
578.71	1.450
579.05	1.420
579.38	1.367
579.71	1.318
580.05	1.316
580.38	1.290
580.71	1.302
581.05	1.310
581.38	1.352
581.71	1.382
582.05	1.424
582.38	1.511
582.71	1.530
583.04	1.573
583.38	1.622
583.71	1.689
584.04	1.781
584.38	1.891
584.71	2.030
585.04	2.124
585.37	2.246
585.71	2.390
586.04	2.521
586.37	2.691
586.70	2.844
587.04	3.017
587.37	3.142
587.70	3.236
588.03	3.335
588.37	3.409
588.70	3.478
589.03	3.513
589.36	3.533
589.69	3.562
590.03	3.563
590.36	3.608
590.69	3.615
591.02	3.638
591.35	3.694
591.69	3.770
592.02	3.872
592.35	3.991
592.68	4.131
593.01	4.297
593.35	4.439
593.68	4.618
594.01	4.752
594.34	4.858
594.67	4.954
595.00	5.073
595.34	5.147
595.67	5.174
596.00	5.180
596.33	5.161
596.66	5.101
596.99	5.041
597.32	4.960
597.65	4.871
597.99	4.850
598.32	4.837
598.65	4.798
598.98	4.788
599.31	4.861
599.64	4.933
599.97	5.099
600.30	5.267
600.63	5.465
600.96	5.642
601.30	5.847
601.63	6.022
601.96	6.149
602.29	6.269
602.62	6.418
602.95	6.488
603.28	6.580
603.61	6.588
603.94	6.586
604.27	6.552
604.60	6.548
604.93	6.493
605.26	6.465
605.59	6.475
605.92	6.490
606.25	6.461
606.58	6.484
606.91	6.487
607.24	6.536
607.57	6.611
607.90	6.687
608.23	6.694
608.56	6.718
608.89	6.693
609.22	6.655
609.55	6.585
609.88	6.500
610.21	6.407
610.54	6.343
610.87	6.244
611.20	6.129
611.53	6.013
611.86	5.965
612.19	5.902
612.52	5.835
612.85	5.834
613.18	5.902
613.51	5.926
613.84	5.966
614.17	5.945
614.49	5.933
614.82	5.944
615.15	5.987
615.48	5.981
615.81	6.007
616.14	6.049
616.47	6.081
616.80	6.019
617.13	6.027
617.46	6.024
617.78	6.064
618.11	6.085
618.44	6.098
618.77	6.082
619.10	6.113
619.43	6.116
619.76	6.140
620.09	6.155
620.41	6.178
620.74	6.231
621.07	6.223
621.40	6.291
621.73	6.367
622.06	6.427
622.38	6.524
622.71	6.583
623.04	6.701
623.37	6.796
623.70	6.912
624.02	6.998
624.35	7.084
624.68	7.206
625.01	7.241
625.34	7.281
625.66	7.318
625.99	7.299
626.32	7.321
626.65	7.274
626.98	7.245
627.30	7.178
627.63	7.127
627.96	7.018
628.29	6.962
628.61	6.903
628.94	6.852
629.27	6.816
629.60	6.805
629.92	6.751
630.25	6.755
630.58	6.738
630.91	6.718
631.23	6.729
631.56	6.764
631.89	6.744
632.21	6.761
632.54	6.779
632.87	6.781
633.19	6.762
633.52	6.785
633.85	6.722
634.18	6.684
634.50	6.644
634.83	6.605
635.16	6.564
635.48	6.532
635.81	6.475
636.14	6.406
636.46	6.337
636.79	6.295
637.11	6.208
637.44	6.181
637.77	6.117
638.09	6.119
638.42	6.050
638.75	6.035
639.07	5.994
639.40	5.958
639.73	5.922
640.05	5.877
640.38	5.853
640.70	5.818
641.03	5.847
641.36	5.864
641.68	5.823
642.01	5.856
642.33	5.855
642.66	5.884
642.98	5.928
643.31	5.980
643.64	6.006
643.96	6.090
644.29	6.162
644.61	6.206
644.94	6.274
645.26	6.388
645.59	6.494
645.91	6.532
646.24	6.613
646.56	6.620
646.89	6.689
647.22	6.729
647.54	6.720
647.87	6.778
648.19	6.773
648.52	6.827
648.84	6.768
649.17	6.709
649.49	6.669
649.82	6.595
650.14	6.613
650.47	6.593
650.79	6.648
651.11	6.644
651.44	6.594
651.76	6.603
652.09	6.549
652.41	6.553
652.74	6.588
653.06	6.670
653.39	6.769
653.71	6.862
654.04	6.898
654.36	6.987
654.68	7.056
655.01	7.176
655.33	7.271
655.66	7.354
655.98	7.413
656.30	7.488
656.63	7.506
656.95	7.492
657.28	7.509
657.60	7.542
657.92	7.526
658.25	7.480
658.57	7.389
658.90	7.340
659.22	7.236
659.54	7.149
659.87	7.020
660.19	6.946
660.51	6.866
660.84	6.744
661.16	6.555
661.48	6.415
661.81	6.302
662.13	6.292
662.45	6.175
662.78	6.159
663.10	6.156
663.42	6.145
663.75	6.138
664.07	6.153
664.39	6.158
664.72	6.227
665.04	6.251
665.36	6.342
665.69	6.313
666.01	6.407
666.33	6.471
666.65	6.524
666.98	6.532
667.30	6.542
667.62	6.524
667.94	6.524
668.27	6.531
668.59	6.578
668.91	6.607
669.23	6.666
669.56	6.644
669.88	6.663
670.20	6.560
670.52	6.595
670.85	6.579
671.17	6.551
671.49	6.550
671.81	6.604
672.13	6.500
672.46	6.416
672.78	6.376
673.10	6.304
673.42	6.290
673.74	6.395
674.07	6.465
674.39	6.510
674.71	6.582
675.03	6.649
675.35	6.700
675.67	6.838
676.00	6.947
676.32	6.995
676.64	7.188
676.96	7.341
677.28	7.414
677.60	7.430
677.92	7.532
678.25	7.622
678.57	7.651
678.89	7.654
679.21	7.687
679.53	7.714
679.85	7.765
680.17	7.720
680.49	7.607
680.81	7.586
681.13	7.545
681.46	7.552
681.78	7.501
682.10	7.521
682.42	7.488
682.74	7.542
683.06	7.536
683.38	7.545
683.70	7.608
684.02	7.722
684.34	7.817
684.66	7.893
684.98	7.984
685.30	8.084
685.62	8.163
685.94	8.273
686.26	8.238
686.58	8.314
686.90	8.346
687.22	8.346
687.54	8.260
687.86	8.175
688.18	8.146
688.50	8.064
688.82	7.955
689.14	7.784
689.46	7.686
689.78	7.602
690.10	7.499
690.42	7.425
690.74	7.293
691.06	7.189
691.38	7.184
691.70	7.064
692.02	6.953
692.34	6.837
692.66	6.814
692.98	6.784
693.30	6.809
693.62	6.749
693.94	6.824
694.26	6.950
694.57	7.133
694.89	7.189
695.21	7.354
695.53	7.426
695.85	7.593
696.17	7.684
696.49	7.800
696.81	7.886
697.13	7.964
697.44	7.957
697.76	7.937
698.08	7.864
698.40	7.784
698.72	7.690
699.04	7.550
699.36	7.361
699.67	7.135
699.99	6.804
700.31	6.452
700.63	6.173
700.95	5.799
701.27	5.424
701.58	5.066
701.90	4.742
702.22	4.481
702.54	4.282
702.86	4.090
703.17	3.922
703.49	3.837
703.81	3.801
704.13	3.682
704.45	3.754
704.76	3.679
705.08	3.700
705.40	3.674
705.72	3.695
706.03	3.686
706.35	3.789
706.67	3.827
706.99	3.935
707.30	3.940
707.62	3.928
707.94	3.938
708.26	4.063
708.57	4.124
708.89	4.228
709.21	4.141
709.53	4.168
709.84	4.177
710.16	4.230
710.48	4.190
710.79	4.159
711.11	4.269
711.43	4.222
711.74	4.212
712.06	4.205
712.38	4.289
712.69	4.402
713.01	4.484
713.33	4.539
713.64	4.694
713.96	4.788
714.28	4.902
714.59	5.041
714.91	5.151
715.23	5.180
715.54	5.172
715.86	5.175
716.17	5.245
716.49	5.185
716.81	5.113
717.12	4.877
717.44	4.698
717.76	4.478
718.07	4.150
718.39	3.882
718.70	3.732
719.02	3.484
719.33	3.096
719.65	2.747
719.97	2.469
720.28	2.297
720.60	2.118
720.91	1.975
721.23	2.025
721.54	2.009
721.86	1.909
722.17	1.942
722.49	2.029
722.81	2.079
723.12	2.205
723.44	2.386
723.75	2.341
724.07	2.452
724.38	2.541
724.70	2.463
725.01	2.581
725.33	2.656
725.64	2.592
725.96	2.612
726.27	2.709
726.59	2.751
726.90	2.750
727.22	2.802
727.53	2.748
727.84	2.809
728.16	2.756
728.47	2.602
728.79	2.471
729.10	2.381
729.42	2.289
729.73	2.144
730.05	1.895
730.36	1.627
730.67	1.347
730.99	1.151
731.30	0.719
731.62	0.468
731.93	0.094
732.24	-0.126
732.56	-0.394
732.87	-0.709
733.19	-1.032
733.50	-1.443
733.81	-1.800
734.13	-2.087
734.44	-2.494
734.76	-2.779
735.07	-3.038
735.38	-3.074
735.70	-3.283
736.01	-3.477
736.32	-3.510
736.64	-3.688
736.95	-3.773
737.26	-3.790
737.58	-3.854
737.89	-3.712
738.20	-3.885
738.52	-4.087
738.83	-4.303
739.14	-4.465
739.45	-4.778
739.77	-5.245
740.08	-5.644
740.39	-5.868
740.71	-6.127
741.02	-6.457
741.33	-7.127
741.64	-7.273
741.96	-7.497
742.27	-8.149
742.58	-8.566
742.90	-8.977
743.21	-9.422
743.52	-9.627
743.83	-9.704
744.14	-9.964
744.46	-10.338
744.77	-10.524
745.08	-10.776
745.39	-11.039
745.71	-10.922
746.02	-10.987
746.33	-10.852
746.64	-10.619
746.95	-10.658
747.27	-10.981
747.58	-11.187
747.89	-11.210
748.20	-11.056
748.51	-11.200
748.82	-11.233
749.14	-11.146
749.45	-11.464
749.76	-11.569
750.07	-11.837
750.38	-11.908
750.69	-12.050
751.01	-12.165
751.32	-12.272
751.63	-12.632
751.94	-12.815
752.25	-12.828
752.56	-13.347
752.87	-13.489
753.18	-13.838
753.49	-13.960
753.81	-13.968
754.12	-13.961
754.43	-13.779
754.74	-13.471
755.05	-13.115
755.36	-12.284
755.67	-11.556
755.98	-10.688
756.29	-9.482
756.60	-8.074
756.91	-6.941
757.22	-5.789
757.53	-4.348
757.84	-2.957
758.15	-1.584
758.46	0.075
758.77	1.089
759.09	2.119
759.40	3.141
759.71	3.993
760.02	4.416
760.33	4.791
760.64	4.929
760.95	5.032
761.26	5.088
761.57	4.893
761.88	4.513
762.18	4.198
762.49	3.798
762.80	3.320
763.11	2.699
763.42	2.102
763.73	1.367
764.04	0.594
764.35	-0.364
764.66	-1.617
764.97	-2.822
765.28	-4.140
765.59	-5.729
765.90	-7.488
766.21	-9.314
766.52	-11.129
766.83	-12.762
767.14	-14.080
767.44	-15.299
767.75	-16.767
768.06	-17.807
768.37	-18.785
768.68	-19.803
768.99	-20.200
769.30	-20.946
769.61	-21.221
769.91	-21.725
770.22	-22.249
770.53	-22.886
770.84	-23.187
771.15	-23.712
771.46	-24.445
771.77	-24.666
772.07	-24.710
772.38	-25.396
772.69	-25.354
773.00	-25.471
773.31	-25.767
773.61	-25.844
773.92	-25.394
774.23	-25.882
774.54	-25.651
774.85	-25.349
775.15	-25.980
775.46	-26.306
775.77	-26.323
776.08	-26.531
776.39	-26.867
776.69	-26.645
777.00	-26.983
777.31	-27.317
777.62	-27.204
777.92	-27.477
778.23	-27.893
778.54	-27.780
778.85	-28.137
779.15	-28.474
779.46	-28.238
779.77	-28.119
780.07	-28.374
780.38	-28.555
780.69	-28.663
781.00	-28.690
781.30	-28.188
781.61	-28.398
781.92	-27.640
782.22	-27.736
782.53	-27.585
782.84	-28.154
783.14	-27.882
783.45	-27.745
783.76	-27.152
784.06	-27.079
784.37	-26.230
784.68	-25.815
784.98	-24.799
785.29	-24.580
785.60	-23.502
785.90	-22.197
786.21	-20.813
786.51	-20.557
786.82	-19.743
787.13	-19.187
787.43	-18.398
787.74	-18.164
788.04	-18.427
788.35	-18.597
788.66	-18.490
788.96	-18.734
789.27	-19.062
789.57	-19.598
789.88	-19.992
790.19	-20.565
790.49	-21.150
790.80	-21.920
791.10	-22.474
791.41	-22.548
791.71	-22.336
792.02	-22.393
792.32	-22.047
792.63	-21.968
792.93	-22.112
793.24	-21.713
793.54	-21.429
793.85	-20.840
794.15	-20.368
794.46	-20.062
794.76	-19.651
795.07	-19.596
795.37	-19.209
795.68	-19.098
795.98	-19.358
796.29	-19.330
796.59	-19.363
796.90	-19.370
797.20	-19.481
797.51	-19.687
797.81	-20.164
798.12	-20.180
798.42	-20.232
798.72	-20.706
799.03	-21.037
799.33	-21.211
799.64	-21.616
799.94	-21.845
800.25	-22.268
800.55	-23.312
800.85	-23.452
801.16	-23.137
801.46	-23.711
801.77	-23.963
802.07	-24.293
802.37	-24.992
802.68	-25.070
802.98	-25.069
803.28	-24.786
803.59	-24.273
803.89	-23.763
804.20	-24.362
804.50	-24.907
804.80	-24.626
805.11	-24.136
805.41	-25.083
805.71	-25.130
806.02	-25.038
806.32	-25.222
806.62	-25.617
806.93	-26.465
807.23	-26.363
807.53	-25.658
807.83	-25.668
808.14	-25.613
808.44	-26.603
808.74	-25.479
809.05	-24.818
809.35	-25.434
809.65	-25.316
809.95	-24.856
810.26	-24.553
810.56	-23.594
810.86	-23.912
811.16	-23.969
811.47	-23.731
811.77	-22.162
812.07	-21.746
812.37	-21.147
812.68	-19.457
812.98	-17.912
813.28	-17.295
813.58	-15.644
813.88	-15.678
814.19	-14.244
814.49	-12.839
814.79	-12.348
815.09	-11.473
815.39	-10.858
815.70	-10.771
816.00	-10.349
816.30	-9.944
816.60	-8.763
816.90	-7.933
817.20	-6.346
817.50	-4.433
817.81	-2.068
818.11	0.477
818.41	2.123
818.71	3.717
819.01	5.223
819.31	6.221
819.61	7.090
819.92	7.672
820.22	8.196
820.52	8.551
820.82	8.762
821.12	8.863
821.42	8.932
821.72	9.105
822.02	9.124
822.32	9.040
822.62	8.995
822.92	8.760
823.22	8.540
823.52	8.184
823.83	7.924
824.13	7.705
824.43	7.487
824.73	7.172
825.03	6.679
825.33	6.371
825.63	6.133
825.93	5.786
826.23	5.543
826.53	5.331
826.83	5.231
827.13	4.967
827.43	4.390
827.73	3.761
828.03	2.912
828.33	2.190
828.63	1.514
828.93	0.464
829.23	-0.569
829.53	-1.505
829.83	-2.736
830.13	-3.646
830.42	-4.053
830.72	-3.843
831.02	-3.573
831.32	-3.260
831.62	-2.959
831.92	-2.702
832.22	-1.910
832.52	-1.544
832.82	-1.259
833.12	-0.891
833.42	-0.636
833.72	-0.783
834.01	-1.032
834.31	-1.538
834.61	-1.912
834.91	-2.954
835.21	-4.129
835.51	-6.079
835.81	-7.636
836.11	-9.217
836.40	-11.263
836.70	-13.718
837.00	-15.755
837.30	-17.921
837.60	-19.032
837.90	-20.410
838.19	-21.418
838.49	-22.419
838.79	-23.439
839.09	-24.952
839.39	-26.216
839.68	-26.837
839.98	-28.554
840.28	-30.048
840.58	-32.019
840.88	-34.539
841.17	-36.967
841.47	-39.240
841.77	-41.931
842.07	-42.891
842.36	-46.748
842.66	-48.947
842.96	-53.459
843.26	-58.916
843.55	-63.175
843.85	-63.527
844.15	-66.761
844.45	-69.508
844.74	-71.233
845.04	-74.647
845.34	-77.245
845.63	-76.201
845.93	-81.699
846.23	-79.830
846.53	-77.547
846.82	-79.240
847.12	-82.239
847.42	-81.795
847.71	-82.426
848.01	-85.040
848.31	-86.880
848.60	-92.766
848.90	-89.655
849.19	-93.452
849.49	-96.027
849.79	-92.783
850.08	-86.110
850.38	-87.477
850.68	-89.676
850.97	-87.061
851.27	-82.783
851.56	-82.821
851.86	-77.342
852.16	-82.750
852.45	-76.359
852.75	-74.415
853.04	-79.068
853.34	-82.674
853.64	-83.515
853.93	-81.621
854.23	-81.656
854.52	-84.657
854.82	-79.944
855.11	-84.883
855.41	-83.820
855.70	-82.767
856.00	-82.745
856.30	-81.616
856.59	-84.811
856.89	-87.607
857.18	-84.920
857.48	-86.177
857.77	-84.459
858.07	-81.502
858.36	-79.598
858.66	-82.356
858.95	-82.979
859.25	-85.355
859.54	-84.821
859.84	-81.078
860.13	-73.890
860.42	-78.778
860.72	-76.133
861.01	-80.412
861.31	-83.772
861.60	-84.323
861.90	-76.062
862.19	-78.430
862.49	-73.582
862.78	-67.877
863.07	-67.821
863.37	-69.366
863.66	-64.391
863.96	-67.636
864.25	-62.643
864.54	-61.229
864.84	-57.726
865.13	-61.489
865.43	-60.790
865.72	-58.797
866.01	-54.997
866.31	-64.558
866.60	-93.765
866.89	-94.376
>>>>>End Spectral Data<<<<<
