OOIBase32 Version 2.0.0.6 Data File
++++++++++++++++++++++++++++++++++++
Date: 01-22-2012, 22:07:28
User: Valued Ocean Optics Customer
Spectrometer Serial Number: USB2E2917
Spectrometer Channel: Master
Integration Time (msec): 4
Spectra Averaged: 10
Boxcar Smoothing: 5
Correct for Electrical Dark: Enabled
Time Normalized: Disabled
Dual-beam Reference: Disabled
Reference Channel: Master
Temperature: Not acquired
Spectrometer Type: S2000
ADC Type: USB2000
Number of Pixels in File: 2048
Graph Title: 
>>>>>Begin Spectral Data<<<<<
180.30	0.000
180.67	0.000
181.03	2.862
181.40	200.437
181.77	301.371
182.14	55.580
182.51	113.548
182.88	145.875
183.25	12.333
183.62	31.882
183.99	100.939
184.36	-204.188
184.73	263.572
185.10	-982.503
185.46	-324.743
185.83	1230.906
186.20	116.399
186.57	-2478.658
186.94	98.850
187.31	-57.154
187.68	-308.232
188.05	-480.271
188.42	-500.500
188.78	1493.307
189.15	372.332
189.52	220.410
189.89	142.618
190.26	91.148
190.63	44.628
191.00	36.335
191.37	11.525
191.73	-21.592
192.10	-18.897
192.47	-11.794
192.84	-21.606
193.21	-10.357
193.58	4.996
193.94	20.793
194.31	35.351
194.68	38.288
195.05	40.348
195.42	51.250
195.79	55.017
196.15	53.575
196.52	35.578
196.89	52.775
197.26	52.439
197.63	56.177
198.00	10.744
198.36	-23.481
198.73	-46.650
199.10	-79.448
199.47	-16.773
199.84	-3.972
200.20	20.432
200.57	12.229
200.94	18.228
201.31	32.244
201.68	23.840
202.04	56.821
202.41	66.653
202.78	53.939
203.15	39.676
203.51	44.284
203.88	44.236
204.25	61.765
204.62	57.274
204.98	60.645
205.35	61.551
205.72	65.743
206.09	45.012
206.46	46.573
206.82	39.275
207.19	37.381
207.56	33.676
207.92	30.946
208.29	26.134
208.66	51.006
209.03	38.072
209.39	30.773
209.76	25.872
210.13	20.393
210.50	18.685
210.86	30.415
211.23	55.851
211.60	68.727
211.96	83.331
212.33	90.873
212.70	127.450
213.07	133.144
213.43	112.461
213.80	102.919
214.17	117.641
214.53	102.379
214.90	102.517
215.27	81.487
215.63	81.785
216.00	60.626
216.37	33.917
216.74	4.331
217.10	-21.085
217.47	-8.675
217.84	2.184
218.20	0.617
218.57	-6.489
218.94	-18.207
219.30	-23.027
219.67	-16.358
220.04	0.886
220.40	15.222
220.77	15.929
221.13	17.607
221.50	3.170
221.87	4.333
222.23	5.784
222.60	8.627
222.97	6.680
223.33	3.853
223.70	7.660
224.07	13.670
224.43	8.017
224.80	5.234
225.16	3.985
225.53	6.765
225.90	4.772
226.26	5.637
226.63	4.650
226.99	5.164
227.36	7.681
227.73	8.449
228.09	6.021
228.46	7.332
228.82	8.164
229.19	7.452
229.56	6.891
229.92	7.584
230.29	5.084
230.65	8.918
231.02	12.305
231.38	10.503
231.75	10.000
232.12	10.147
232.48	9.670
232.85	12.531
233.21	14.249
233.58	15.609
233.94	14.848
234.31	15.784
234.68	13.748
235.04	12.512
235.41	12.258
235.77	12.237
236.14	8.982
236.50	6.547
236.87	2.805
237.23	2.510
237.60	2.078
237.96	2.823
238.33	2.191
238.69	1.551
239.06	1.966
239.42	2.232
239.79	1.887
240.15	3.818
240.52	5.011
240.88	5.827
241.25	5.659
241.61	5.025
241.98	4.217
242.34	4.173
242.71	3.795
243.07	3.853
243.44	3.871
243.80	3.453
244.17	3.647
244.53	3.675
244.90	4.361
245.26	4.578
245.63	5.189
245.99	5.620
246.36	5.846
246.72	6.039
247.09	6.058
247.45	6.424
247.81	6.534
248.18	6.429
248.54	6.654
248.91	6.838
249.27	6.557
249.64	6.091
250.00	6.026
250.36	5.970
250.73	6.198
251.09	5.676
251.46	5.629
251.82	6.398
252.19	6.037
252.55	6.169
252.91	4.966
253.28	5.059
253.64	5.156
254.01	5.452
254.37	5.507
254.73	5.177
255.10	5.017
255.46	4.495
255.83	3.960
256.19	3.928
256.55	3.718
256.92	3.614
257.28	3.733
257.65	3.701
258.01	3.507
258.37	3.533
258.74	3.457
259.10	3.633
259.46	3.872
259.83	3.825
260.19	3.689
260.55	3.662
260.92	3.715
261.28	3.478
261.64	3.553
262.01	3.547
262.37	3.498
262.73	3.598
263.10	3.593
263.46	3.342
263.82	3.857
264.19	4.249
264.55	4.235
264.91	4.386
265.28	4.825
265.64	4.975
266.00	5.118
266.37	4.968
266.73	5.184
267.09	4.811
267.46	4.477
267.82	4.029
268.18	4.057
268.54	4.285
268.91	4.417
269.27	4.314
269.63	4.070
270.00	4.069
270.36	4.159
270.72	4.037
271.08	4.372
271.45	4.715
271.81	5.066
272.17	5.121
272.53	5.031
272.90	4.809
273.26	4.970
273.62	5.197
273.98	5.343
274.35	5.182
274.71	5.263
275.07	5.358
275.43	5.375
275.80	5.402
276.16	5.218
276.52	4.872
276.88	4.909
277.25	4.814
277.61	4.569
277.97	4.362
278.33	4.544
278.69	4.775
279.06	4.505
279.42	4.308
279.78	4.138
280.14	4.212
280.50	4.298
280.87	4.214
281.23	3.969
281.59	3.951
281.95	4.011
282.31	4.150
282.68	3.816
283.04	3.935
283.40	3.840
283.76	3.829
284.12	3.823
284.48	3.867
284.85	4.191
285.21	4.290
285.57	4.194
285.93	4.301
286.29	4.063
286.65	4.322
287.02	4.177
287.38	4.214
287.74	4.050
288.10	3.818
288.46	3.648
288.82	3.339
289.18	3.361
289.54	3.560
289.91	3.246
290.27	3.230
290.63	3.005
290.99	3.132
291.35	3.262
291.71	3.402
292.07	3.655
292.43	3.709
292.79	3.561
293.16	3.496
293.52	3.578
293.88	3.585
294.24	3.732
294.60	3.778
294.96	3.600
295.32	3.546
295.68	3.616
296.04	3.505
296.40	3.596
296.76	3.846
297.12	3.897
297.49	3.835
297.85	3.933
298.21	3.904
298.57	3.878
298.93	4.094
299.29	4.048
299.65	3.979
300.01	4.071
300.37	3.932
300.73	3.746
301.09	3.950
301.45	3.937
301.81	3.989
302.17	4.121
302.53	4.227
302.89	3.984
303.25	4.074
303.61	4.295
303.97	4.375
304.33	4.532
304.69	4.575
305.05	4.370
305.41	4.357
305.77	4.327
306.13	4.074
306.49	3.796
306.85	3.882
307.21	4.003
307.57	3.806
307.93	3.725
308.29	3.777
308.65	3.628
309.01	3.525
309.37	3.558
309.73	3.588
310.09	3.757
310.45	3.796
310.81	3.751
311.17	3.528
311.53	3.467
311.89	3.437
312.25	3.316
312.61	3.424
312.96	3.585
313.32	3.461
313.68	3.193
314.04	3.083
314.40	3.169
314.76	3.170
315.12	3.293
315.48	3.315
315.84	3.353
316.20	3.607
316.56	3.588
316.92	3.672
317.27	3.917
317.63	4.064
317.99	4.089
318.35	4.197
318.71	4.139
319.07	4.139
319.43	4.144
319.79	3.986
320.15	3.727
320.50	3.737
320.86	3.567
321.22	3.479
321.58	3.562
321.94	3.500
322.30	3.447
322.66	3.669
323.01	3.593
323.37	3.846
323.73	4.096
324.09	4.200
324.45	4.184
324.81	4.226
325.17	4.086
325.52	4.091
325.88	4.197
326.24	4.141
326.60	4.021
326.96	4.026
327.31	3.942
327.67	3.900
328.03	3.759
328.39	3.886
328.75	3.918
329.11	4.170
329.46	4.172
329.82	4.400
330.18	4.411
330.54	4.554
330.90	4.694
331.25	4.619
331.61	4.589
331.97	4.810
332.33	4.887
332.68	5.009
333.04	5.143
333.40	5.310
333.76	5.176
334.11	5.298
334.47	5.301
334.83	5.236
335.19	5.253
335.54	5.372
335.90	5.443
336.26	5.575
336.62	5.550
336.97	5.233
337.33	5.100
337.69	4.996
338.05	5.087
338.40	5.012
338.76	5.084
339.12	5.089
339.48	5.089
339.83	4.909
340.19	4.689
340.55	4.660
340.90	4.849
341.26	5.018
341.62	5.148
341.97	4.985
342.33	5.081
342.69	5.099
343.04	5.199
343.40	5.164
343.76	5.274
344.12	5.322
344.47	5.285
344.83	5.203
345.19	5.104
345.54	4.962
345.90	4.952
346.26	4.921
346.61	4.981
346.97	4.881
347.32	4.806
347.68	4.783
348.04	4.795
348.39	4.830
348.75	4.775
349.11	4.682
349.46	4.737
349.82	4.797
350.18	4.908
350.53	4.810
350.89	4.835
351.24	4.905
351.60	4.893
351.96	4.840
352.31	4.874
352.67	4.990
353.02	5.094
353.38	5.148
353.74	5.199
354.09	5.117
354.45	5.101
354.80	5.182
355.16	5.201
355.52	5.228
355.87	5.266
356.23	5.348
356.58	5.447
356.94	5.476
357.29	5.579
357.65	5.601
358.00	5.600
358.36	5.680
358.72	5.641
359.07	5.720
359.43	5.714
359.78	5.767
360.14	5.755
360.49	5.660
360.85	5.694
361.20	5.646
361.56	5.544
361.91	5.601
362.27	5.648
362.62	5.668
362.98	5.649
363.33	5.681
363.69	5.655
364.04	5.639
364.40	5.677
364.75	5.556
365.11	5.520
365.46	5.593
365.82	5.563
366.17	5.546
366.53	5.565
366.88	5.632
367.24	5.697
367.59	5.751
367.95	5.829
368.30	5.863
368.66	6.001
369.01	6.100
369.37	6.173
369.72	6.261
370.08	6.282
370.43	6.358
370.78	6.316
371.14	6.344
371.49	6.386
371.85	6.408
372.20	6.497
372.56	6.566
372.91	6.544
373.26	6.628
373.62	6.682
373.97	6.751
374.33	6.749
374.68	6.817
375.03	6.885
375.39	6.912
375.74	6.945
376.10	6.997
376.45	7.005
376.80	7.129
377.16	7.207
377.51	7.251
377.87	7.335
378.22	7.538
378.57	7.707
378.93	7.811
379.28	7.997
379.63	8.169
379.99	8.343
380.34	8.528
380.70	8.647
381.05	8.761
381.40	8.888
381.76	8.991
382.11	9.071
382.46	9.117
382.82	9.212
383.17	9.295
383.52	9.341
383.88	9.326
384.23	9.389
384.58	9.512
384.94	9.542
385.29	9.648
385.64	9.756
385.99	9.825
386.35	9.972
386.70	10.053
387.05	10.167
387.41	10.254
387.76	10.403
388.11	10.546
388.47	10.622
388.82	10.795
389.17	10.909
389.52	11.039
389.88	11.153
390.23	11.235
390.58	11.354
390.93	11.478
391.29	11.610
391.64	11.764
391.99	11.841
392.34	11.968
392.70	11.998
393.05	12.076
393.40	12.162
393.75	12.254
394.11	12.338
394.46	12.412
394.81	12.476
395.16	12.525
395.52	12.470
395.87	12.478
396.22	12.451
396.57	12.460
396.92	12.477
397.28	12.432
397.63	12.436
397.98	12.418
398.33	12.439
398.68	12.432
399.04	12.475
399.39	12.561
399.74	12.627
400.09	12.675
400.44	12.764
400.80	12.830
401.15	12.926
401.50	13.003
401.85	13.059
402.20	13.125
402.55	13.198
402.90	13.301
403.26	13.356
403.61	13.430
403.96	13.506
404.31	13.614
404.66	13.643
405.01	13.689
405.36	13.753
405.72	13.827
406.07	13.874
406.42	13.897
406.77	13.891
407.12	13.934
407.47	13.965
407.82	14.003
408.17	14.033
408.53	14.134
408.88	14.212
409.23	14.207
409.58	14.224
409.93	14.261
410.28	14.304
410.63	14.353
410.98	14.404
411.33	14.493
411.68	14.515
412.03	14.551
412.38	14.590
412.73	14.660
413.09	14.724
413.44	14.829
413.79	14.936
414.14	15.060
414.49	15.115
414.84	15.139
415.19	15.175
415.54	15.257
415.89	15.301
416.24	15.364
416.59	15.410
416.94	15.484
417.29	15.487
417.64	15.501
417.99	15.503
418.34	15.551
418.69	15.608
419.04	15.618
419.39	15.663
419.74	15.705
420.09	15.700
420.44	15.727
420.79	15.726
421.14	15.775
421.49	15.814
421.84	15.836
422.19	15.860
422.54	15.901
422.89	15.943
423.24	15.947
423.59	15.955
423.94	15.995
424.29	16.012
424.64	16.041
424.99	16.062
425.34	16.100
425.68	16.162
426.03	16.184
426.38	16.200
426.73	16.239
427.08	16.291
427.43	16.366
427.78	16.409
428.13	16.443
428.48	16.480
428.83	16.496
429.18	16.487
429.53	16.483
429.87	16.525
430.22	16.516
430.57	16.545
430.92	16.582
431.27	16.560
431.62	16.576
431.97	16.578
432.32	16.605
432.67	16.599
433.01	16.642
433.36	16.686
433.71	16.685
434.06	16.741
434.41	16.740
434.76	16.745
435.11	16.770
435.45	16.775
435.80	16.811
436.15	16.807
436.50	16.851
436.85	16.840
437.20	16.867
437.54	16.867
437.89	16.866
438.24	16.915
438.59	16.935
438.94	16.928
439.29	16.954
439.63	16.962
439.98	16.990
440.33	16.997
440.68	17.025
441.03	16.993
441.37	17.037
441.72	17.054
442.07	17.041
442.42	17.070
442.76	17.149
443.11	17.151
443.46	17.168
443.81	17.177
444.16	17.198
444.50	17.208
444.85	17.225
445.20	17.228
445.55	17.259
445.89	17.286
446.24	17.270
446.59	17.218
446.94	17.245
447.28	17.240
447.63	17.279
447.98	17.296
448.32	17.318
448.67	17.362
449.02	17.373
449.37	17.379
449.71	17.374
450.06	17.404
450.41	17.458
450.75	17.438
451.10	17.452
451.45	17.399
451.79	17.408
452.14	17.369
452.49	17.376
452.84	17.382
453.18	17.388
453.53	17.413
453.88	17.437
454.22	17.484
454.57	17.563
454.92	17.603
455.26	17.647
455.61	17.706
455.95	17.756
456.30	17.805
456.65	17.836
456.99	17.880
457.34	17.926
457.69	17.959
458.03	17.965
458.38	17.980
458.73	18.002
459.07	18.057
459.42	18.046
459.76	18.084
460.11	18.076
460.46	18.099
460.80	18.102
461.15	18.084
461.49	18.110
461.84	18.134
462.19	18.143
462.53	18.180
462.88	18.221
463.22	18.285
463.57	18.352
463.91	18.419
464.26	18.481
464.61	18.533
464.95	18.605
465.30	18.652
465.64	18.672
465.99	18.743
466.33	18.788
466.68	18.824
467.02	18.854
467.37	18.881
467.71	18.897
468.06	18.938
468.41	18.955
468.75	18.978
469.10	18.986
469.44	19.027
469.79	19.015
470.13	19.035
470.48	19.044
470.82	19.056
471.17	19.051
471.51	19.063
471.86	19.054
472.20	19.081
472.55	19.092
472.89	19.127
473.23	19.150
473.58	19.153
473.92	19.172
474.27	19.190
474.61	19.220
474.96	19.231
475.30	19.229
475.65	19.264
475.99	19.287
476.34	19.295
476.68	19.278
477.02	19.309
477.37	19.366
477.71	19.394
478.06	19.463
478.40	19.616
478.75	19.832
479.09	20.066
479.43	20.321
479.78	20.527
480.12	20.727
480.47	20.895
480.81	21.061
481.15	21.206
481.50	21.362
481.84	21.529
482.19	21.665
482.53	21.738
482.87	21.734
483.22	21.707
483.56	21.695
483.90	21.674
484.25	21.660
484.59	21.591
484.94	21.522
485.28	21.416
485.62	21.275
485.97	21.133
486.31	21.049
486.65	21.046
487.00	21.028
487.34	21.005
487.68	20.980
488.03	20.962
488.37	20.977
488.71	20.990
489.06	21.030
489.40	21.037
489.74	21.062
490.09	21.072
490.43	21.057
490.77	21.028
491.11	21.022
491.46	21.016
491.80	20.993
492.14	20.976
492.49	20.955
492.83	20.915
493.17	20.901
493.51	20.888
493.86	20.844
494.20	20.882
494.54	20.920
494.88	20.933
495.23	20.970
495.57	21.019
495.91	21.057
496.25	21.090
496.60	21.156
496.94	21.238
497.28	21.277
497.62	21.349
497.97	21.367
498.31	21.438
498.65	21.542
498.99	21.630
499.33	21.723
499.68	21.813
500.02	21.909
500.36	21.965
500.70	22.045
501.04	22.089
501.39	22.164
501.73	22.250
502.07	22.320
502.41	22.357
502.75	22.382
503.09	22.435
503.44	22.486
503.78	22.527
504.12	22.590
504.46	22.643
504.80	22.727
505.14	22.800
505.49	22.874
505.83	22.939
506.17	23.037
506.51	23.117
506.85	23.183
507.19	23.244
507.53	23.318
507.87	23.391
508.22	23.444
508.56	23.486
508.90	23.525
509.24	23.547
509.58	23.573
509.92	23.605
510.26	23.664
510.60	23.698
510.94	23.765
511.28	23.808
511.63	23.859
511.97	23.904
512.31	23.979
512.65	24.079
512.99	24.198
513.33	24.305
513.67	24.376
514.01	24.471
514.35	24.585
514.69	24.691
515.03	24.805
515.37	24.909
515.71	24.995
516.05	25.035
516.39	25.076
516.73	25.082
517.07	25.145
517.41	25.160
517.75	25.161
518.09	25.143
518.43	25.136
518.77	25.115
519.11	25.093
519.45	25.097
519.79	25.114
520.13	25.136
520.47	25.176
520.81	25.185
521.15	25.256
521.49	25.314
521.83	25.392
522.17	25.455
522.51	25.573
522.85	25.703
523.19	25.907
523.53	26.158
523.87	26.433
524.21	26.721
524.55	26.956
524.89	27.192
525.23	27.383
525.57	27.562
525.91	27.728
526.25	27.872
526.58	27.986
526.92	28.055
527.26	28.080
527.60	28.033
527.94	27.983
528.28	27.911
528.62	27.843
528.96	27.779
529.30	27.715
529.64	27.634
529.97	27.526
530.31	27.444
530.65	27.374
530.99	27.340
531.33	27.360
531.67	27.364
532.01	27.389
532.35	27.375
532.68	27.351
533.02	27.331
533.36	27.310
533.70	27.317
534.04	27.278
534.38	27.245
534.71	27.212
535.05	27.185
535.39	27.150
535.73	27.167
536.07	27.219
536.41	27.336
536.74	27.473
537.08	27.610
537.42	27.775
537.76	27.934
538.10	28.070
538.43	28.203
538.77	28.335
539.11	28.454
539.45	28.547
539.79	28.634
540.12	28.686
540.46	28.651
540.80	28.624
541.14	28.545
541.47	28.524
541.81	28.491
542.15	28.460
542.49	28.402
542.82	28.342
543.16	28.275
543.50	28.178
543.84	28.110
544.17	28.099
544.51	28.104
544.85	28.133
545.18	28.114
545.52	28.095
545.86	28.047
546.20	28.036
546.53	28.013
546.87	28.028
547.21	28.019
547.54	27.996
547.88	28.044
548.22	28.064
548.55	28.064
548.89	28.089
549.23	28.149
549.56	28.247
549.90	28.273
550.24	28.354
550.57	28.376
550.91	28.424
551.25	28.479
551.58	28.508
551.92	28.539
552.26	28.601
552.59	28.668
552.93	28.717
553.27	28.701
553.60	28.743
553.94	28.759
554.27	28.788
554.61	28.900
554.95	28.994
555.28	29.054
555.62	29.142
555.95	29.239
556.29	29.297
556.63	29.385
556.96	29.471
557.30	29.560
557.63	29.658
557.97	29.777
558.31	29.829
558.64	29.878
558.98	29.945
559.31	30.027
559.65	30.084
559.98	30.123
560.32	30.153
560.65	30.279
560.99	30.359
561.33	30.500
561.66	30.609
562.00	30.713
562.33	30.795
562.67	30.869
563.00	30.932
563.34	30.976
563.67	31.099
564.01	31.210
564.34	31.275
564.68	31.329
565.01	31.351
565.35	31.372
565.68	31.403
566.02	31.485
566.35	31.611
566.69	31.691
567.02	31.803
567.36	31.858
567.69	31.912
568.03	31.952
568.36	32.033
568.69	32.106
569.03	32.173
569.36	32.229
569.70	32.274
570.03	32.323
570.37	32.382
570.70	32.424
571.04	32.482
571.37	32.573
571.70	32.643
572.04	32.697
572.37	32.760
572.71	32.831
573.04	32.982
573.37	33.062
573.71	33.140
574.04	33.218
574.38	33.317
574.71	33.414
575.04	33.443
575.38	33.522
575.71	33.585
576.05	33.618
576.38	33.692
576.71	33.672
577.05	33.742
577.38	33.792
577.71	33.856
578.05	33.926
578.38	33.957
578.71	34.044
579.05	34.112
579.38	34.199
579.71	34.289
580.05	34.348
580.38	34.437
580.71	34.502
581.05	34.560
581.38	34.611
581.71	34.629
582.05	34.681
582.38	34.766
582.71	34.811
583.04	34.869
583.38	34.963
583.71	35.012
584.04	35.084
584.38	35.150
584.71	35.233
585.04	35.373
585.37	35.537
585.71	35.696
586.04	35.781
586.37	35.870
586.70	35.995
587.04	36.096
587.37	36.205
587.70	36.292
588.03	36.363
588.37	36.481
588.70	36.522
589.03	36.525
589.36	36.548
589.69	36.568
590.03	36.657
590.36	36.686
590.69	36.733
591.02	36.786
591.35	36.861
591.69	36.902
592.02	36.904
592.35	36.952
592.68	37.004
593.01	37.036
593.35	37.081
593.68	37.078
594.01	37.075
594.34	37.094
594.67	37.100
595.00	37.099
595.34	37.159
595.67	37.189
596.00	37.200
596.33	37.245
596.66	37.268
596.99	37.309
597.32	37.332
597.65	37.422
597.99	37.417
598.32	37.464
598.65	37.483
598.98	37.541
599.31	37.597
599.64	37.641
599.97	37.626
600.30	37.684
600.63	37.740
600.96	37.786
601.30	37.774
601.63	37.778
601.96	37.798
602.29	37.845
602.62	37.820
602.95	37.793
603.28	37.825
603.61	37.875
603.94	37.829
604.27	37.797
604.60	37.858
604.93	37.950
605.26	38.042
605.59	38.077
605.92	38.111
606.25	38.160
606.58	38.225
606.91	38.262
607.24	38.310
607.57	38.423
607.90	38.516
608.23	38.560
608.56	38.548
608.89	38.592
609.22	38.656
609.55	38.675
609.88	38.718
610.21	38.760
610.54	38.794
610.87	38.849
611.20	38.880
611.53	38.857
611.86	38.903
612.19	38.963
612.52	38.996
612.85	38.997
613.18	38.998
613.51	39.064
613.84	39.139
614.17	39.173
614.49	39.175
614.82	39.214
615.15	39.274
615.48	39.248
615.81	39.248
616.14	39.278
616.47	39.355
616.80	39.423
617.13	39.432
617.46	39.429
617.78	39.435
618.11	39.450
618.44	39.484
618.77	39.467
619.10	39.510
619.43	39.565
619.76	39.592
620.09	39.587
620.41	39.626
620.74	39.642
621.07	39.617
621.40	39.688
621.73	39.713
622.06	39.739
622.38	39.786
622.71	39.802
623.04	39.809
623.37	39.837
623.70	39.837
624.02	39.821
624.35	39.906
624.68	39.932
625.01	39.881
625.34	39.872
625.66	39.865
625.99	39.877
626.32	39.933
626.65	39.901
626.98	39.906
627.30	39.909
627.63	39.949
627.96	39.913
628.29	39.873
628.61	39.934
628.94	39.992
629.27	39.992
629.60	40.048
629.92	40.007
630.25	40.056
630.58	40.061
630.91	40.156
631.23	40.150
631.56	40.140
631.89	40.206
632.21	40.235
632.54	40.203
632.87	40.192
633.19	40.270
633.52	40.277
633.85	40.326
634.18	40.310
634.50	40.257
634.83	40.318
635.16	40.339
635.48	40.333
635.81	40.386
636.14	40.437
636.46	40.469
636.79	40.366
637.11	40.409
637.44	40.400
637.77	40.446
638.09	40.490
638.42	40.428
638.75	40.342
639.07	40.414
639.40	40.414
639.73	40.393
640.05	40.364
640.38	40.433
640.70	40.468
641.03	40.478
641.36	40.494
641.68	40.515
642.01	40.571
642.33	40.676
642.66	40.709
642.98	40.724
643.31	40.748
643.64	40.870
643.96	40.887
644.29	40.910
644.61	40.968
644.94	40.994
645.26	41.015
645.59	41.003
645.91	41.119
646.24	41.135
646.56	41.102
646.89	41.115
647.22	41.046
647.54	41.026
647.87	40.955
648.19	40.889
648.52	40.834
648.84	40.832
649.17	40.813
649.49	40.724
649.82	40.685
650.14	40.648
650.47	40.695
650.79	40.771
651.11	40.687
651.44	40.758
651.76	40.808
652.09	40.779
652.41	40.754
652.74	40.849
653.06	40.840
653.39	40.804
653.71	40.800
654.04	40.692
654.36	40.638
654.68	40.704
655.01	40.639
655.33	40.486
655.66	40.502
655.98	40.484
656.30	40.355
656.63	40.299
656.95	40.284
657.28	40.200
657.60	40.173
657.92	40.167
658.25	40.090
658.57	40.091
658.90	40.079
659.22	40.012
659.54	39.955
659.87	40.003
660.19	40.004
660.51	39.957
660.84	40.056
661.16	40.107
661.48	40.006
661.81	40.012
662.13	39.889
662.45	39.914
662.78	39.822
663.10	39.848
663.42	39.775
663.75	39.699
664.07	39.747
664.39	39.725
664.72	39.715
665.04	39.762
665.36	39.780
665.69	39.781
666.01	39.814
666.33	39.925
666.65	39.887
666.98	39.871
667.30	39.878
667.62	39.852
667.94	39.773
668.27	39.748
668.59	39.688
668.91	39.654
669.23	39.623
669.56	39.582
669.88	39.533
670.20	39.422
670.52	39.437
670.85	39.423
671.17	39.403
671.49	39.390
671.81	39.390
672.13	39.371
672.46	39.336
672.78	39.400
673.10	39.368
673.42	39.357
673.74	39.386
674.07	39.391
674.39	39.402
674.71	39.416
675.03	39.425
675.35	39.448
675.67	39.491
676.00	39.419
676.32	39.350
676.64	39.357
676.96	39.352
677.28	39.306
677.60	39.238
677.92	39.152
678.25	39.074
678.57	39.010
678.89	38.934
679.21	38.899
679.53	38.897
679.85	38.871
680.17	38.872
680.49	38.858
680.81	38.840
681.13	38.829
681.46	38.872
681.78	38.836
682.10	38.814
682.42	38.859
682.74	38.793
683.06	38.806
683.38	38.877
683.70	38.838
684.02	38.782
684.34	38.885
684.66	38.952
684.98	38.972
685.30	39.051
685.62	39.071
685.94	39.001
686.26	38.964
686.58	38.931
686.90	38.858
687.22	38.859
687.54	38.794
687.86	38.723
688.18	38.617
688.50	38.558
688.82	38.525
689.14	38.548
689.46	38.529
689.78	38.547
690.10	38.575
690.42	38.596
690.74	38.469
691.06	38.552
691.38	38.518
691.70	38.485
692.02	38.527
692.34	38.343
692.66	38.260
692.98	38.188
693.30	38.136
693.62	37.971
693.94	37.883
694.26	37.853
694.57	37.678
694.89	37.609
695.21	37.523
695.53	37.309
695.85	37.293
696.17	37.156
696.49	37.067
696.81	37.006
697.13	37.054
697.44	36.848
697.76	36.793
698.08	36.724
698.40	36.602
698.72	36.482
699.04	36.468
699.36	36.323
699.67	36.253
699.99	36.117
700.31	35.938
700.63	35.663
700.95	35.601
701.27	35.470
701.58	35.382
701.90	35.241
702.22	35.160
702.54	34.947
702.86	34.815
703.17	34.671
703.49	34.483
703.81	34.367
704.13	34.149
704.45	33.962
704.76	33.796
705.08	33.628
705.40	33.500
705.72	33.375
706.03	33.335
706.35	33.240
706.67	33.229
706.99	33.116
707.30	33.041
707.62	32.987
707.94	32.995
708.26	32.888
708.57	32.781
708.89	32.579
709.21	32.420
709.53	32.258
709.84	32.185
710.16	32.010
710.48	31.941
710.79	31.805
711.11	31.772
711.43	31.813
711.74	31.820
712.06	31.819
712.38	31.951
712.69	31.950
713.01	32.108
713.33	32.141
713.64	32.151
713.96	32.413
714.28	32.513
714.59	32.670
714.91	32.738
715.23	32.761
715.54	32.913
715.86	32.844
716.17	32.962
716.49	32.792
716.81	32.717
717.12	32.680
717.44	32.468
717.76	32.418
718.07	32.215
718.39	31.911
718.70	31.700
719.02	31.335
719.33	31.119
719.65	30.784
719.97	30.554
720.28	30.317
720.60	30.255
720.91	29.958
721.23	29.894
721.54	29.804
721.86	29.726
722.17	29.736
722.49	29.742
722.81	29.802
723.12	29.843
723.44	29.900
723.75	29.838
724.07	29.616
724.38	29.565
724.70	29.342
725.01	29.278
725.33	29.166
725.64	29.063
725.96	29.024
726.27	28.955
726.59	28.823
726.90	28.664
727.22	28.765
727.53	28.678
727.84	28.567
728.16	28.419
728.47	28.192
728.79	28.148
729.10	27.745
729.42	27.359
729.73	26.968
730.05	26.486
730.36	26.227
730.67	25.733
730.99	25.362
731.30	24.814
731.62	24.255
731.93	23.675
732.24	22.926
732.56	22.365
732.87	21.685
733.19	21.129
733.50	20.640
733.81	20.015
734.13	19.435
734.44	18.923
734.76	18.810
735.07	18.246
735.38	17.739
735.70	17.387
736.01	17.233
736.32	16.882
736.64	16.641
736.95	16.374
737.26	15.890
737.58	15.584
737.89	15.198
738.20	14.461
738.52	14.010
738.83	13.686
739.14	13.107
739.45	12.279
739.77	12.046
740.08	11.150
740.39	10.480
740.71	9.961
741.02	8.964
741.33	8.114
741.64	7.509
741.96	6.971
742.27	6.450
742.58	5.901
742.90	5.571
743.21	4.803
743.52	4.598
743.83	4.342
744.14	3.932
744.46	3.942
744.77	3.500
745.08	3.231
745.39	2.797
745.71	2.459
746.02	2.266
746.33	2.071
746.64	2.222
746.95	2.026
747.27	1.691
747.58	1.504
747.89	1.282
748.20	1.507
748.51	1.499
748.82	2.076
749.14	2.040
749.45	2.027
749.76	1.956
750.07	1.785
750.38	1.673
750.69	1.354
751.01	0.888
751.32	0.597
751.63	0.278
751.94	0.058
752.25	-0.273
752.56	-0.422
752.87	-0.497
753.18	-0.687
753.49	-0.700
753.81	-0.309
754.12	0.509
754.43	1.519
754.74	2.612
755.05	4.064
755.36	5.595
755.67	6.849
755.98	8.582
756.29	10.305
756.60	12.367
756.91	14.391
757.22	16.393
757.53	18.216
757.84	19.813
758.15	21.423
758.46	22.750
758.77	24.031
759.09	25.241
759.40	26.096
759.71	26.757
760.02	27.235
760.33	27.505
760.64	27.573
760.95	27.573
761.26	27.608
761.57	27.461
761.88	27.155
762.18	26.671
762.49	26.227
762.80	25.708
763.11	25.133
763.42	24.259
763.73	23.349
764.04	22.321
764.35	20.959
764.66	19.441
764.97	17.766
765.28	15.982
765.59	13.795
765.90	11.406
766.21	9.010
766.52	6.600
766.83	4.267
767.14	1.983
767.44	-0.222
767.75	-2.111
768.06	-4.115
768.37	-5.917
768.68	-7.551
768.99	-8.815
769.30	-10.408
769.61	-11.803
769.91	-13.342
770.22	-14.076
770.53	-15.037
770.84	-15.827
771.15	-16.729
771.46	-17.463
771.77	-17.579
772.07	-18.954
772.38	-19.733
772.69	-19.999
773.00	-20.379
773.31	-20.414
773.61	-21.100
773.92	-21.517
774.23	-22.122
774.54	-22.140
774.85	-21.961
775.15	-22.376
775.46	-21.566
775.77	-21.126
776.08	-21.274
776.39	-20.810
776.69	-20.954
777.00	-20.594
777.31	-20.458
777.62	-20.118
777.92	-19.838
778.23	-19.585
778.54	-19.625
778.85	-19.818
779.15	-19.931
779.46	-19.590
779.77	-19.945
780.07	-20.055
780.38	-20.671
780.69	-20.555
781.00	-21.274
781.30	-21.256
781.61	-22.309
781.92	-21.949
782.22	-21.511
782.53	-21.193
782.84	-20.502
783.14	-20.328
783.45	-18.988
783.76	-17.315
784.06	-15.674
784.37	-13.616
784.68	-12.030
784.98	-9.724
785.29	-8.478
785.60	-7.352
785.90	-5.706
786.21	-4.773
786.51	-3.356
786.82	-2.286
787.13	-1.328
787.43	-0.965
787.74	-0.450
788.04	-0.606
788.35	-0.393
788.66	-0.464
788.96	-0.633
789.27	-1.101
789.57	-1.190
789.88	-1.565
790.19	-2.279
790.49	-3.114
790.80	-3.778
791.10	-4.210
791.41	-3.581
791.71	-4.183
792.02	-4.169
792.32	-4.174
792.63	-3.947
792.93	-3.592
793.24	-2.921
793.54	-2.940
793.85	-2.226
794.15	-1.568
794.46	-1.132
794.76	-1.195
795.07	-0.991
795.37	-0.547
795.68	-0.156
795.98	0.171
796.29	0.641
796.59	0.588
796.90	1.317
797.20	0.664
797.51	1.200
797.81	0.862
798.12	0.931
798.42	1.546
798.72	1.776
799.03	2.233
799.33	2.198
799.64	1.645
799.94	1.492
800.25	1.065
800.55	1.811
800.85	1.588
801.16	1.186
801.46	1.167
801.77	0.715
802.07	0.517
802.37	-0.007
802.68	-0.234
802.98	-0.289
803.28	-0.681
803.59	-1.017
803.89	-1.464
804.20	-1.857
804.50	-1.334
804.80	-1.650
805.11	-1.868
805.41	-2.296
805.71	-2.150
806.02	-2.311
806.32	-2.005
806.62	-1.791
806.93	-1.576
807.23	-1.123
807.53	-0.719
807.83	-0.901
808.14	0.096
808.44	0.724
808.74	1.676
809.05	1.674
809.35	2.991
809.65	3.363
809.95	4.321
810.26	5.661
810.56	6.212
810.86	7.334
811.16	9.050
811.47	9.461
811.77	10.093
812.07	10.783
812.37	12.083
812.68	12.332
812.98	12.933
813.28	13.850
813.58	14.441
813.88	15.110
814.19	15.555
814.49	15.749
814.79	16.598
815.09	17.608
815.39	17.759
815.70	18.369
816.00	18.634
816.30	18.869
816.60	19.381
816.90	19.657
817.20	20.695
817.50	21.576
817.81	22.592
818.11	23.504
818.41	24.188
818.71	25.108
819.01	25.856
819.31	26.479
819.61	27.012
819.92	27.375
820.22	27.614
820.52	27.757
820.82	27.888
821.12	28.070
821.42	28.227
821.72	28.361
822.02	28.343
822.32	28.261
822.62	28.246
822.92	28.180
823.22	28.090
823.52	28.029
823.83	27.914
824.13	27.787
824.43	27.530
824.73	27.173
825.03	26.908
825.33	26.760
825.63	26.466
825.93	26.268
826.23	26.054
826.53	25.800
826.83	25.769
827.13	25.632
827.43	25.331
827.73	25.155
828.03	24.904
828.33	24.619
828.63	24.097
828.93	23.732
829.23	23.319
829.53	22.601
829.83	21.915
830.13	20.989
830.42	20.821
830.72	21.113
831.02	21.108
831.32	21.540
831.62	21.652
831.92	22.082
832.22	22.419
832.52	22.299
832.82	22.654
833.12	23.078
833.42	23.184
833.72	22.721
834.01	22.316
834.31	22.221
834.61	21.727
834.91	21.045
835.21	20.383
835.51	19.889
835.81	19.237
836.11	17.972
836.40	16.570
836.70	15.197
837.00	14.043
837.30	12.383
837.60	10.945
837.90	9.839
838.19	9.667
838.49	9.199
838.79	8.582
839.09	8.270
839.39	8.197
839.68	7.419
839.98	7.330
840.28	7.270
840.58	7.229
840.88	6.599
841.17	5.356
841.47	4.221
841.77	2.462
842.07	-0.416
842.36	-3.039
842.66	-5.369
842.96	-6.740
843.26	-9.850
843.55	-14.002
843.85	-18.484
844.15	-22.558
844.45	-22.384
844.74	-24.469
845.04	-26.623
845.34	-26.919
845.63	-28.756
845.93	-30.464
846.23	-31.693
846.53	-32.456
846.82	-29.960
847.12	-31.416
847.42	-29.261
847.71	-31.628
848.01	-33.715
848.31	-32.886
848.60	-33.756
848.90	-30.615
849.19	-30.356
849.49	-31.535
849.79	-32.752
850.08	-34.341
850.38	-30.112
850.68	-29.345
850.97	-28.935
851.27	-28.265
851.56	-27.136
851.86	-25.938
852.16	-28.556
852.45	-26.754
852.75	-28.221
853.04	-25.456
853.34	-25.490
853.64	-25.046
853.93	-28.485
854.23	-29.252
854.52	-30.139
854.82	-32.033
855.11	-29.985
855.41	-28.778
855.70	-29.698
856.00	-26.527
856.30	-30.378
856.59	-29.911
856.89	-33.081
857.18	-31.060
857.48	-28.719
857.77	-23.964
858.07	-23.558
858.36	-24.113
858.66	-23.122
858.95	-21.248
859.25	-21.050
859.54	-21.221
859.84	-22.438
860.13	-19.225
860.42	-13.786
860.72	-13.894
861.01	-17.084
861.31	-15.540
861.60	-18.028
861.90	-18.926
862.19	-22.262
862.49	-22.370
862.78	-17.011
863.07	-16.175
863.37	-16.328
863.66	-20.048
863.96	-21.422
864.25	-18.407
864.54	-16.294
864.84	-13.580
865.13	-11.848
865.43	-10.560
865.72	-2.325
866.01	15.794
866.31	-7.534
866.60	-8.199
866.89	-22.864
>>>>>End Spectral Data<<<<<
