OOIBase32 Version 2.0.0.6 Data File
++++++++++++++++++++++++++++++++++++
Date: 01-22-2012, 22:07:02
User: Valued Ocean Optics Customer
Spectrometer Serial Number: USB2E2917
Spectrometer Channel: Master
Integration Time (msec): 4
Spectra Averaged: 10
Boxcar Smoothing: 5
Correct for Electrical Dark: Enabled
Time Normalized: Disabled
Dual-beam Reference: Disabled
Reference Channel: Master
Temperature: Not acquired
Spectrometer Type: S2000
ADC Type: USB2000
Number of Pixels in File: 2048
Graph Title: 
>>>>>Begin Spectral Data<<<<<
180.30	0.000
180.67	0.000
181.03	-57.375
181.40	34.572
181.77	-1014.113
182.14	89.558
182.51	-2.819
182.88	130.228
183.25	-32.723
183.62	92.241
183.99	134.564
184.36	-228.540
184.73	8.070
185.10	384.531
185.46	333.871
185.83	5074.676
186.20	-83.913
186.57	-4465.804
186.94	78.835
187.31	-113.068
187.68	54.979
188.05	-325.472
188.42	-167.941
188.78	305.425
189.15	111.415
189.52	58.719
189.89	45.698
190.26	37.000
190.63	24.485
191.00	5.757
191.37	11.439
191.73	-59.495
192.10	-23.839
192.47	-14.848
192.84	-0.938
193.21	4.673
193.58	20.982
193.94	21.261
194.31	10.104
194.68	2.905
195.05	7.643
195.42	-8.264
195.79	-12.051
196.15	-46.537
196.52	-39.531
196.89	-51.562
197.26	-82.977
197.63	-93.697
198.00	-142.088
198.36	-123.778
198.73	-151.476
199.10	-123.021
199.47	-43.020
199.84	-28.281
200.20	-28.260
200.57	-75.058
200.94	-67.420
201.31	-55.610
201.68	-93.021
202.04	-69.438
202.41	-98.331
202.78	-67.677
203.15	-87.427
203.51	-47.260
203.88	-43.784
204.25	-32.812
204.62	-19.095
204.98	-32.574
205.35	-39.448
205.72	-50.625
206.09	-42.798
206.46	-43.279
206.82	-67.159
207.19	-57.002
207.56	-68.668
207.92	-50.128
208.29	-43.860
208.66	-34.706
209.03	-14.057
209.39	-9.859
209.76	8.458
210.13	18.916
210.50	24.774
210.86	29.089
211.23	28.003
211.60	36.589
211.96	44.645
212.33	35.499
212.70	16.085
213.07	35.975
213.43	44.336
213.80	2.800
214.17	14.066
214.53	-0.800
214.90	5.627
215.27	10.554
215.63	-0.793
216.00	-30.755
216.37	-17.070
216.74	-2.899
217.10	-22.116
217.47	-35.066
217.84	0.220
218.20	-8.414
218.57	8.221
218.94	-18.650
219.30	-36.685
219.67	-32.772
220.04	-4.638
220.40	0.786
220.77	-8.409
221.13	2.129
221.50	0.737
221.87	-14.204
222.23	-13.357
222.60	-23.592
222.97	-4.566
223.33	-3.022
223.70	2.961
224.07	2.429
224.43	-0.234
224.80	-4.204
225.16	-1.790
225.53	-0.157
225.90	1.614
226.26	0.509
226.63	2.407
226.99	-0.906
227.36	2.786
227.73	3.060
228.09	2.140
228.46	2.259
228.82	5.740
229.19	4.386
229.56	4.827
229.92	5.188
230.29	6.879
230.65	9.737
231.02	14.652
231.38	9.934
231.75	11.932
232.12	11.547
232.48	10.761
232.85	9.633
233.21	10.487
233.58	7.727
233.94	6.738
234.31	3.858
234.68	1.790
235.04	-1.422
235.41	1.773
235.77	0.257
236.14	-0.310
236.50	-2.351
236.87	-2.340
237.23	-2.617
237.60	-0.693
237.96	0.751
238.33	1.887
238.69	2.206
239.06	2.653
239.42	2.265
239.79	1.831
240.15	3.548
240.52	5.518
240.88	4.974
241.25	5.404
241.61	4.288
241.98	4.139
242.34	4.050
242.71	3.624
243.07	3.839
243.44	3.750
243.80	3.774
244.17	3.955
244.53	3.250
244.90	3.599
245.26	3.340
245.63	4.104
245.99	4.075
246.36	4.370
246.72	4.595
247.09	4.700
247.45	4.919
247.81	4.973
248.18	4.583
248.54	4.979
248.91	5.356
249.27	5.486
249.64	4.736
250.00	4.820
250.36	4.730
250.73	5.186
251.09	5.041
251.46	5.459
251.82	6.384
252.19	5.895
252.55	6.441
252.91	6.082
253.28	5.532
253.64	5.942
254.01	5.803
254.37	5.928
254.73	5.263
255.10	4.766
255.46	4.200
255.83	3.676
256.19	3.987
256.55	3.614
256.92	3.475
257.28	3.938
257.65	3.583
258.01	3.461
258.37	3.168
258.74	3.246
259.10	3.405
259.46	3.508
259.83	3.219
260.19	3.286
260.55	3.420
260.92	3.433
261.28	2.887
261.64	3.627
262.01	3.916
262.37	4.023
262.73	3.699
263.10	3.839
263.46	3.719
263.82	4.266
264.19	3.812
264.55	3.485
264.91	3.235
265.28	3.989
265.64	3.782
266.00	3.858
266.37	4.043
266.73	4.166
267.09	3.820
267.46	3.582
267.82	3.579
268.18	3.984
268.54	4.206
268.91	4.363
269.27	4.358
269.63	4.322
270.00	4.095
270.36	4.239
270.72	4.414
271.08	4.781
271.45	5.038
271.81	4.894
272.17	4.585
272.53	4.639
272.90	4.534
273.26	4.490
273.62	4.231
273.98	4.515
274.35	4.501
274.71	4.678
275.07	4.759
275.43	4.884
275.80	4.973
276.16	5.234
276.52	5.092
276.88	5.064
277.25	4.427
277.61	4.568
277.97	4.238
278.33	4.151
278.69	3.902
279.06	3.462
279.42	3.309
279.78	3.483
280.14	3.493
280.50	3.737
280.87	3.803
281.23	4.320
281.59	4.340
281.95	4.495
282.31	4.679
282.68	4.662
283.04	4.777
283.40	4.678
283.76	4.545
284.12	4.489
284.48	4.434
284.85	4.712
285.21	4.340
285.57	4.389
285.93	4.405
286.29	4.161
286.65	4.263
287.02	4.110
287.38	4.265
287.74	4.195
288.10	4.198
288.46	4.091
288.82	3.819
289.18	4.081
289.54	3.989
289.91	3.994
290.27	4.082
290.63	3.788
290.99	4.066
291.35	3.968
291.71	4.202
292.07	4.254
292.43	3.970
292.79	3.811
293.16	3.678
293.52	3.929
293.88	3.756
294.24	3.540
294.60	3.661
294.96	3.579
295.32	3.639
295.68	3.682
296.04	3.586
296.40	3.931
296.76	4.299
297.12	4.468
297.49	4.284
297.85	4.383
298.21	4.581
298.57	4.814
298.93	4.699
299.29	4.636
299.65	4.343
300.01	4.421
300.37	4.290
300.73	4.157
301.09	4.162
301.45	4.313
301.81	4.248
302.17	4.161
302.53	4.004
302.89	4.141
303.25	4.306
303.61	4.461
303.97	4.527
304.33	4.599
304.69	4.504
305.05	4.494
305.41	4.305
305.77	4.336
306.13	4.386
306.49	4.268
306.85	4.224
307.21	4.097
307.57	4.086
307.93	3.920
308.29	3.837
308.65	3.845
309.01	3.636
309.37	3.908
309.73	3.960
310.09	3.989
310.45	4.011
310.81	4.027
311.17	3.893
311.53	3.921
311.89	4.084
312.25	4.043
312.61	4.058
312.96	4.356
313.32	4.193
313.68	3.913
314.04	3.880
314.40	3.916
314.76	3.870
315.12	3.889
315.48	3.701
315.84	3.526
316.20	3.751
316.56	3.694
316.92	3.496
317.27	3.405
317.63	3.471
317.99	3.565
318.35	3.618
318.71	3.542
319.07	3.519
319.43	3.460
319.79	3.476
320.15	3.340
320.50	3.497
320.86	3.453
321.22	3.490
321.58	3.569
321.94	3.379
322.30	3.338
322.66	3.486
323.01	3.515
323.37	3.725
323.73	3.799
324.09	3.724
324.45	3.495
324.81	3.473
325.17	3.323
325.52	3.207
325.88	3.168
326.24	3.001
326.60	2.797
326.96	2.680
327.31	2.601
327.67	2.492
328.03	2.314
328.39	2.411
328.75	2.504
329.11	2.573
329.46	2.642
329.82	2.822
330.18	2.936
330.54	2.983
330.90	3.171
331.25	3.155
331.61	3.249
331.97	3.586
332.33	3.615
332.68	3.615
333.04	3.628
333.40	3.655
333.76	3.587
334.11	3.641
334.47	3.692
334.83	3.630
335.19	3.560
335.54	3.477
335.90	3.444
336.26	3.434
336.62	3.343
336.97	3.213
337.33	3.303
337.69	3.291
338.05	3.273
338.40	3.290
338.76	3.292
339.12	3.407
339.48	3.596
339.83	3.469
340.19	3.487
340.55	3.553
340.90	3.768
341.26	3.786
341.62	3.912
341.97	3.827
342.33	3.888
342.69	4.057
343.04	4.078
343.40	3.961
343.76	4.038
344.12	4.005
344.47	4.092
344.83	3.996
345.19	4.007
345.54	3.892
345.90	3.915
346.26	3.848
346.61	3.815
346.97	3.666
347.32	3.655
347.68	3.621
348.04	3.563
348.39	3.468
348.75	3.464
349.11	3.317
349.46	3.356
349.82	3.375
350.18	3.469
350.53	3.350
350.89	3.491
351.24	3.439
351.60	3.460
351.96	3.501
352.31	3.589
352.67	3.668
353.02	3.787
353.38	3.802
353.74	3.872
354.09	3.833
354.45	3.817
354.80	3.788
355.16	3.893
355.52	3.837
355.87	3.817
356.23	3.850
356.58	3.831
356.94	3.803
357.29	3.820
357.65	3.807
358.00	3.783
358.36	3.914
358.72	3.953
359.07	3.911
359.43	3.964
359.78	4.034
360.14	3.983
360.49	3.977
360.85	3.960
361.20	3.918
361.56	3.828
361.91	3.829
362.27	3.789
362.62	3.748
362.98	3.818
363.33	3.767
363.69	3.732
364.04	3.669
364.40	3.634
364.75	3.598
365.11	3.549
365.46	3.621
365.82	3.575
366.17	3.613
366.53	3.609
366.88	3.550
367.24	3.623
367.59	3.625
367.95	3.798
368.30	3.822
368.66	3.900
369.01	3.903
369.37	3.939
369.72	4.038
370.08	3.991
370.43	4.063
370.78	4.014
371.14	4.046
371.49	4.083
371.85	4.015
372.20	4.053
372.56	4.044
372.91	4.078
373.26	4.052
373.62	4.034
373.97	4.015
374.33	3.961
374.68	4.001
375.03	3.994
375.39	4.008
375.74	3.984
376.10	4.006
376.45	4.018
376.80	4.074
377.16	4.098
377.51	4.074
377.87	4.135
378.22	4.179
378.57	4.275
378.93	4.245
379.28	4.306
379.63	4.403
379.99	4.477
380.34	4.544
380.70	4.587
381.05	4.624
381.40	4.716
381.76	4.775
382.11	4.821
382.46	4.840
382.82	4.893
383.17	4.857
383.52	4.776
383.88	4.781
384.23	4.761
384.58	4.787
384.94	4.831
385.29	4.835
385.64	4.835
385.99	4.823
386.35	4.825
386.70	4.818
387.05	4.819
387.41	4.796
387.76	4.764
388.11	4.844
388.47	4.859
388.82	4.782
389.17	4.796
389.52	4.818
389.88	4.829
390.23	4.803
390.58	4.833
390.93	4.899
391.29	5.011
391.64	5.055
391.99	5.026
392.34	4.999
392.70	5.028
393.05	5.000
393.40	4.968
393.75	4.936
394.11	4.932
394.46	4.889
394.81	4.814
395.16	4.711
395.52	4.602
395.87	4.545
396.22	4.480
396.57	4.375
396.92	4.281
397.28	4.204
397.63	4.155
397.98	4.077
398.33	4.032
398.68	3.964
399.04	3.957
399.39	3.952
399.74	3.916
400.09	3.867
400.44	3.945
400.80	3.966
401.15	4.009
401.50	4.032
401.85	4.073
402.20	4.128
402.55	4.153
402.90	4.151
403.26	4.126
403.61	4.135
403.96	4.160
404.31	4.176
404.66	4.183
405.01	4.158
405.36	4.161
405.72	4.160
406.07	4.106
406.42	4.113
406.77	4.063
407.12	4.069
407.47	4.028
407.82	4.000
408.17	3.984
408.53	3.979
408.88	3.955
409.23	3.897
409.58	3.848
409.93	3.819
410.28	3.793
410.63	3.803
410.98	3.833
411.33	3.832
411.68	3.845
412.03	3.809
412.38	3.821
412.73	3.862
413.09	3.940
413.44	3.993
413.79	4.084
414.14	4.169
414.49	4.259
414.84	4.298
415.19	4.371
415.54	4.426
415.89	4.495
416.24	4.572
416.59	4.615
416.94	4.643
417.29	4.676
417.64	4.694
417.99	4.700
418.34	4.693
418.69	4.704
419.04	4.704
419.39	4.740
419.74	4.756
420.09	4.740
420.44	4.730
420.79	4.709
421.14	4.708
421.49	4.698
421.84	4.708
422.19	4.707
422.54	4.701
422.89	4.706
423.24	4.676
423.59	4.631
423.94	4.583
424.29	4.548
424.64	4.498
424.99	4.445
425.34	4.384
425.68	4.294
426.03	4.232
426.38	4.189
426.73	4.146
427.08	4.089
427.43	4.120
427.78	4.125
428.13	4.141
428.48	4.193
428.83	4.208
429.18	4.256
429.53	4.257
429.87	4.296
430.22	4.284
430.57	4.279
430.92	4.290
431.27	4.264
431.62	4.255
431.97	4.220
432.32	4.202
432.67	4.162
433.01	4.117
433.36	4.105
433.71	4.062
434.06	4.050
434.41	4.036
434.76	4.026
435.11	4.015
435.45	4.031
435.80	4.054
436.15	4.050
436.50	4.106
436.85	4.125
437.20	4.166
437.54	4.180
437.89	4.186
438.24	4.180
438.59	4.168
438.94	4.156
439.29	4.150
439.63	4.140
439.98	4.129
440.33	4.090
440.68	4.091
441.03	4.057
441.37	4.049
441.72	4.057
442.07	4.081
442.42	4.115
442.76	4.150
443.11	4.154
443.46	4.143
443.81	4.141
444.16	4.153
444.50	4.147
444.85	4.131
445.20	4.121
445.55	4.076
445.89	4.032
446.24	3.983
446.59	3.899
446.94	3.820
447.28	3.765
447.63	3.705
447.98	3.625
448.32	3.513
448.67	3.456
449.02	3.382
449.37	3.348
449.71	3.314
450.06	3.283
450.41	3.294
450.75	3.301
451.10	3.280
451.45	3.274
451.79	3.255
452.14	3.267
452.49	3.254
452.84	3.249
453.18	3.235
453.53	3.220
453.88	3.202
454.22	3.231
454.57	3.258
454.92	3.332
455.26	3.388
455.61	3.460
455.95	3.543
456.30	3.597
456.65	3.649
456.99	3.724
457.34	3.786
457.69	3.853
458.03	3.855
458.38	3.867
458.73	3.857
459.07	3.838
459.42	3.815
459.76	3.768
460.11	3.744
460.46	3.705
460.80	3.643
461.15	3.597
461.49	3.535
461.84	3.490
462.19	3.488
462.53	3.507
462.88	3.521
463.22	3.566
463.57	3.612
463.91	3.655
464.26	3.718
464.61	3.762
464.95	3.802
465.30	3.876
465.64	3.925
465.99	3.953
466.33	3.953
466.68	3.988
467.02	3.972
467.37	3.982
467.71	3.991
468.06	3.996
468.41	3.983
468.75	3.980
469.10	3.932
469.44	3.912
469.79	3.895
470.13	3.888
470.48	3.864
470.82	3.856
471.17	3.845
471.51	3.825
471.86	3.801
472.20	3.812
472.55	3.793
472.89	3.784
473.23	3.763
473.58	3.737
473.92	3.725
474.27	3.720
474.61	3.714
474.96	3.701
475.30	3.673
475.65	3.651
475.99	3.625
476.34	3.636
476.68	3.630
477.02	3.656
477.37	3.666
477.71	3.695
478.06	3.761
478.40	3.905
478.75	4.090
479.09	4.306
479.43	4.510
479.78	4.700
480.12	4.846
480.47	4.993
480.81	5.134
481.15	5.253
481.50	5.356
481.84	5.457
482.19	5.524
482.53	5.577
482.87	5.589
483.22	5.589
483.56	5.585
483.90	5.569
484.25	5.551
484.59	5.502
484.94	5.465
485.28	5.417
485.62	5.348
485.97	5.286
486.31	5.233
486.65	5.201
487.00	5.173
487.34	5.151
487.68	5.141
488.03	5.130
488.37	5.123
488.71	5.126
489.06	5.138
489.40	5.161
489.74	5.175
490.09	5.167
490.43	5.151
490.77	5.147
491.11	5.122
491.46	5.100
491.80	5.069
492.14	5.059
492.49	5.042
492.83	5.033
493.17	4.992
493.51	4.971
493.86	4.966
494.20	5.032
494.54	5.076
494.88	5.166
495.23	5.271
495.57	5.373
495.91	5.477
496.25	5.581
496.60	5.675
496.94	5.793
497.28	5.910
497.62	6.023
497.97	6.103
498.31	6.251
498.65	6.384
498.99	6.517
499.33	6.668
499.68	6.836
500.02	7.000
500.36	7.179
500.70	7.369
501.04	7.547
501.39	7.748
501.73	7.942
502.07	8.133
502.41	8.324
502.75	8.527
503.09	8.754
503.44	8.967
503.78	9.191
504.12	9.407
504.46	9.633
504.80	9.898
505.14	10.158
505.49	10.439
505.83	10.668
506.17	10.922
506.51	11.161
506.85	11.399
507.19	11.638
507.53	11.865
507.87	12.131
508.22	12.399
508.56	12.606
508.90	12.835
509.24	13.037
509.58	13.274
509.92	13.510
510.26	13.747
510.60	13.985
510.94	14.236
511.28	14.484
511.63	14.721
511.97	14.968
512.31	15.263
512.65	15.562
512.99	15.869
513.33	16.215
513.67	16.546
514.01	16.893
514.35	17.230
514.69	17.530
515.03	17.849
515.37	18.142
515.71	18.386
516.05	18.656
516.39	18.856
516.73	19.074
517.07	19.263
517.41	19.430
517.75	19.582
518.09	19.722
518.43	19.852
518.77	19.972
519.11	20.120
519.45	20.279
519.79	20.413
520.13	20.610
520.47	20.813
520.81	20.994
521.15	21.212
521.49	21.451
521.83	21.703
522.17	21.984
522.51	22.262
522.85	22.540
523.19	22.924
523.53	23.345
523.87	23.806
524.21	24.227
524.55	24.618
524.89	24.969
525.23	25.269
525.57	25.528
525.91	25.756
526.25	25.980
526.58	26.160
526.92	26.300
527.26	26.387
527.60	26.415
527.94	26.443
528.28	26.447
528.62	26.448
528.96	26.447
529.30	26.448
529.64	26.456
529.97	26.445
530.31	26.461
530.65	26.462
530.99	26.488
531.33	26.538
531.67	26.598
532.01	26.656
532.35	26.690
532.68	26.709
533.02	26.730
533.36	26.728
533.70	26.746
534.04	26.748
534.38	26.746
534.71	26.737
535.05	26.727
535.39	26.724
535.73	26.768
536.07	26.857
536.41	27.000
536.74	27.164
537.08	27.340
537.42	27.496
537.76	27.671
538.10	27.840
538.43	28.024
538.77	28.200
539.11	28.334
539.45	28.448
539.79	28.510
540.12	28.561
540.46	28.556
540.80	28.526
541.14	28.501
541.47	28.464
541.81	28.406
542.15	28.331
542.49	28.242
542.82	28.144
543.16	28.031
543.50	27.952
543.84	27.851
544.17	27.807
544.51	27.798
544.85	27.770
545.18	27.692
545.52	27.661
545.86	27.588
546.20	27.542
546.53	27.481
546.87	27.481
547.21	27.432
547.54	27.419
547.88	27.403
548.22	27.394
548.55	27.355
548.89	27.384
549.23	27.383
549.56	27.430
549.90	27.420
550.24	27.437
550.57	27.419
550.91	27.454
551.25	27.446
551.58	27.455
551.92	27.422
552.26	27.410
552.59	27.419
552.93	27.410
553.27	27.373
553.60	27.361
553.94	27.389
554.27	27.367
554.61	27.327
554.95	27.318
555.28	27.264
555.62	27.287
555.95	27.343
556.29	27.331
556.63	27.320
556.96	27.317
557.30	27.349
557.63	27.339
557.97	27.354
558.31	27.398
558.64	27.398
558.98	27.417
559.31	27.403
559.65	27.348
559.98	27.349
560.32	27.396
560.65	27.454
560.99	27.441
561.33	27.473
561.66	27.495
562.00	27.522
562.33	27.577
562.67	27.615
563.00	27.657
563.34	27.701
563.67	27.734
564.01	27.748
564.34	27.744
564.68	27.786
565.01	27.774
565.35	27.792
565.68	27.756
566.02	27.741
566.35	27.756
566.69	27.743
567.02	27.765
567.36	27.707
567.69	27.672
568.03	27.657
568.36	27.655
568.69	27.654
569.03	27.606
569.36	27.625
569.70	27.585
570.03	27.578
570.37	27.553
570.70	27.509
571.04	27.534
571.37	27.544
571.70	27.530
572.04	27.515
572.37	27.483
572.71	27.496
573.04	27.480
573.37	27.483
573.71	27.438
574.04	27.446
574.38	27.437
574.71	27.401
575.04	27.347
575.38	27.306
575.71	27.233
576.05	27.236
576.38	27.201
576.71	27.128
577.05	27.055
577.38	27.029
577.71	26.952
578.05	26.906
578.38	26.875
578.71	26.814
579.05	26.774
579.38	26.741
579.71	26.620
580.05	26.547
580.38	26.522
580.71	26.506
581.05	26.470
581.38	26.441
581.71	26.365
582.05	26.323
582.38	26.302
582.71	26.306
583.04	26.253
583.38	26.272
583.71	26.301
584.04	26.341
584.38	26.389
584.71	26.397
585.04	26.414
585.37	26.496
585.71	26.548
586.04	26.629
586.37	26.640
586.70	26.740
587.04	26.769
587.37	26.728
587.70	26.718
588.03	26.669
588.37	26.672
588.70	26.679
589.03	26.639
589.36	26.586
589.69	26.504
590.03	26.488
590.36	26.432
590.69	26.398
591.02	26.423
591.35	26.360
591.69	26.314
592.02	26.245
592.35	26.193
592.68	26.186
593.01	26.140
593.35	26.120
593.68	26.053
594.01	26.024
594.34	25.975
594.67	25.920
595.00	25.879
595.34	25.879
595.67	25.857
596.00	25.787
596.33	25.687
596.66	25.656
596.99	25.613
597.32	25.564
597.65	25.488
597.99	25.429
598.32	25.374
598.65	25.325
598.98	25.271
599.31	25.216
599.64	25.176
599.97	25.191
600.30	25.149
600.63	25.125
600.96	25.155
601.30	25.147
601.63	25.141
601.96	25.114
602.29	25.073
602.62	25.021
602.95	24.961
603.28	24.984
603.61	24.932
603.94	24.900
604.27	24.854
604.60	24.812
604.93	24.765
605.26	24.737
605.59	24.646
605.92	24.615
606.25	24.591
606.58	24.548
606.91	24.488
607.24	24.479
607.57	24.478
607.90	24.483
608.23	24.425
608.56	24.381
608.89	24.336
609.22	24.334
609.55	24.304
609.88	24.280
610.21	24.266
610.54	24.188
610.87	24.148
611.20	24.066
611.53	23.944
611.86	23.916
612.19	23.878
612.52	23.829
612.85	23.798
613.18	23.749
613.51	23.701
613.84	23.630
614.17	23.584
614.49	23.484
614.82	23.389
615.15	23.355
615.48	23.282
615.81	23.178
616.14	23.140
616.47	23.155
616.80	23.152
617.13	23.107
617.46	23.099
617.78	23.128
618.11	23.080
618.44	23.125
618.77	23.086
619.10	23.051
619.43	23.109
619.76	23.061
620.09	22.970
620.41	22.929
620.74	22.900
621.07	22.879
621.40	22.830
621.73	22.850
622.06	22.825
622.38	22.840
622.71	22.869
623.04	22.844
623.37	22.893
623.70	22.920
624.02	22.930
624.35	22.960
624.68	22.970
625.01	22.953
625.34	22.944
625.66	22.905
625.99	22.875
626.32	22.837
626.65	22.790
626.98	22.716
627.30	22.672
627.63	22.595
627.96	22.555
628.29	22.511
628.61	22.451
628.94	22.418
629.27	22.372
629.60	22.329
629.92	22.220
630.25	22.179
630.58	22.167
630.91	22.145
631.23	22.090
631.56	22.075
631.89	22.025
632.21	21.981
632.54	21.899
632.87	21.853
633.19	21.823
633.52	21.846
633.85	21.822
634.18	21.774
634.50	21.692
634.83	21.716
635.16	21.571
635.48	21.457
635.81	21.437
636.14	21.429
636.46	21.397
636.79	21.371
637.11	21.290
637.44	21.274
637.77	21.188
638.09	21.142
638.42	21.081
638.75	21.022
639.07	21.104
639.40	21.057
639.73	21.027
640.05	20.980
640.38	20.951
640.70	20.970
641.03	20.928
641.36	20.956
641.68	20.968
642.01	21.004
642.33	21.083
642.66	21.038
642.98	21.094
643.31	21.110
643.64	21.179
643.96	21.211
644.29	21.203
644.61	21.186
644.94	21.223
645.26	21.233
645.59	21.176
645.91	21.178
646.24	21.170
646.56	21.141
646.89	21.100
647.22	21.054
647.54	21.015
647.87	21.025
648.19	21.023
648.52	20.913
648.84	20.908
649.17	20.874
649.49	20.827
649.82	20.797
650.14	20.771
650.47	20.771
650.79	20.749
651.11	20.748
651.44	20.673
651.76	20.658
652.09	20.700
652.41	20.733
652.74	20.749
653.06	20.753
653.39	20.707
653.71	20.685
654.04	20.660
654.36	20.660
654.68	20.560
655.01	20.556
655.33	20.479
655.66	20.413
655.98	20.316
656.30	20.290
656.63	20.225
656.95	20.228
657.28	20.207
657.60	20.152
657.92	20.135
658.25	20.125
658.57	20.082
658.90	20.051
659.22	19.975
659.54	19.896
659.87	19.815
660.19	19.800
660.51	19.738
660.84	19.643
661.16	19.653
661.48	19.522
661.81	19.526
662.13	19.474
662.45	19.429
662.78	19.410
663.10	19.413
663.42	19.385
663.75	19.295
664.07	19.318
664.39	19.386
664.72	19.394
665.04	19.426
665.36	19.355
665.69	19.334
666.01	19.360
666.33	19.389
666.65	19.372
666.98	19.324
667.30	19.297
667.62	19.220
667.94	19.144
668.27	19.047
668.59	19.038
668.91	19.081
669.23	19.062
669.56	19.023
669.88	19.003
670.20	18.980
670.52	19.057
670.85	19.145
671.17	19.156
671.49	19.111
671.81	19.122
672.13	19.033
672.46	18.918
672.78	18.933
673.10	18.904
673.42	18.898
673.74	18.871
674.07	18.778
674.39	18.707
674.71	18.708
675.03	18.745
675.35	18.721
675.67	18.861
676.00	18.920
676.32	18.911
676.64	18.944
676.96	18.952
677.28	18.919
677.60	18.945
677.92	18.955
678.25	18.958
678.57	18.866
678.89	18.863
679.21	18.740
679.53	18.678
679.85	18.677
680.17	18.707
680.49	18.686
680.81	18.699
681.13	18.622
681.46	18.577
681.78	18.552
682.10	18.626
682.42	18.594
682.74	18.654
683.06	18.689
683.38	18.775
683.70	18.792
684.02	18.855
684.34	18.896
684.66	19.000
684.98	19.086
685.30	19.144
685.62	19.098
685.94	19.185
686.26	19.169
686.58	19.193
686.90	19.045
687.22	18.977
687.54	18.850
687.86	18.805
688.18	18.710
688.50	18.674
688.82	18.534
689.14	18.564
689.46	18.464
689.78	18.414
690.10	18.372
690.42	18.401
690.74	18.282
691.06	18.257
691.38	18.176
691.70	18.121
692.02	18.017
692.34	18.035
692.66	17.988
692.98	17.910
693.30	17.877
693.62	17.788
693.94	17.741
694.26	17.717
694.57	17.663
694.89	17.715
695.21	17.707
695.53	17.734
695.85	17.722
696.17	17.665
696.49	17.694
696.81	17.639
697.13	17.641
697.44	17.570
697.76	17.549
698.08	17.545
698.40	17.391
698.72	17.234
699.04	16.998
699.36	16.815
699.67	16.636
699.99	16.405
700.31	16.110
700.63	15.767
700.95	15.488
701.27	15.249
701.58	14.935
701.90	14.791
702.22	14.691
702.54	14.603
702.86	14.350
703.17	14.171
703.49	14.019
703.81	13.967
704.13	13.886
704.45	13.768
704.76	13.640
705.08	13.588
705.40	13.429
705.72	13.346
706.03	13.246
706.35	13.138
706.67	13.083
706.99	13.004
707.30	12.872
707.62	12.869
707.94	12.739
708.26	12.628
708.57	12.536
708.89	12.492
709.21	12.345
709.53	12.360
709.84	12.323
710.16	12.192
710.48	12.036
710.79	12.039
711.11	11.980
711.43	12.060
711.74	12.062
712.06	12.072
712.38	12.086
712.69	12.236
713.01	12.262
713.33	12.415
713.64	12.627
713.96	12.861
714.28	12.997
714.59	13.120
714.91	13.239
715.23	13.352
715.54	13.453
715.86	13.529
716.17	13.557
716.49	13.549
716.81	13.407
717.12	13.293
717.44	13.116
717.76	12.862
718.07	12.544
718.39	12.172
718.70	12.038
719.02	11.671
719.33	11.277
719.65	10.946
719.97	10.590
720.28	10.388
720.60	10.211
720.91	9.922
721.23	9.878
721.54	9.891
721.86	9.964
722.17	9.779
722.49	9.840
722.81	9.881
723.12	9.934
723.44	10.137
723.75	10.168
724.07	10.115
724.38	10.196
724.70	10.270
725.01	10.250
725.33	10.196
725.64	10.321
725.96	10.248
726.27	10.170
726.59	10.035
726.90	9.753
727.22	9.755
727.53	9.487
727.84	9.384
728.16	9.072
728.47	8.809
728.79	8.614
729.10	8.105
729.42	7.718
729.73	7.314
730.05	6.785
730.36	6.392
730.67	5.794
730.99	5.469
731.30	4.791
731.62	4.160
731.93	3.502
732.24	2.815
732.56	2.268
732.87	1.716
733.19	1.130
733.50	0.636
733.81	-0.096
734.13	-0.629
734.44	-1.233
734.76	-1.629
735.07	-2.258
735.38	-2.789
735.70	-3.420
736.01	-3.555
736.32	-4.173
736.64	-4.585
736.95	-4.981
737.26	-5.236
737.58	-5.568
737.89	-6.134
738.20	-6.790
738.52	-7.079
738.83	-7.542
739.14	-8.005
739.45	-9.325
739.77	-9.846
740.08	-10.703
740.39	-11.654
740.71	-12.622
741.02	-13.812
741.33	-15.010
741.64	-15.653
741.96	-16.348
742.27	-16.849
742.58	-17.824
742.90	-18.120
743.21	-18.727
743.52	-19.237
743.83	-19.566
744.14	-20.188
744.46	-20.482
744.77	-20.161
745.08	-20.566
745.39	-21.105
745.71	-21.545
746.02	-21.351
746.33	-21.464
746.64	-21.333
746.95	-21.260
747.27	-21.422
747.58	-21.167
747.89	-21.098
748.20	-21.518
748.51	-21.443
748.82	-21.320
749.14	-21.242
749.45	-21.477
749.76	-21.550
750.07	-21.709
750.38	-21.916
750.69	-22.148
751.01	-22.452
751.32	-22.786
751.63	-22.805
751.94	-23.096
752.25	-23.287
752.56	-23.473
752.87	-23.543
753.18	-23.636
753.49	-23.844
753.81	-23.678
754.12	-22.901
754.43	-22.201
754.74	-20.913
755.05	-18.899
755.36	-16.622
755.67	-14.667
755.98	-12.419
756.29	-9.968
756.60	-7.422
756.91	-4.880
757.22	-2.157
757.53	0.261
757.84	2.578
758.15	4.649
758.46	6.073
758.77	7.444
759.09	8.799
759.40	9.923
759.71	10.651
760.02	11.156
760.33	11.664
760.64	11.730
760.95	11.703
761.26	11.607
761.57	11.308
761.88	11.009
762.18	10.657
762.49	10.022
762.80	9.333
763.11	8.504
763.42	7.511
763.73	6.234
764.04	5.108
764.35	3.502
764.66	1.735
764.97	-0.196
765.28	-2.368
765.59	-5.321
765.90	-7.977
766.21	-11.061
766.52	-13.732
766.83	-16.758
767.14	-19.325
767.44	-22.287
767.75	-24.626
768.06	-27.192
768.37	-29.438
768.68	-31.638
768.99	-32.889
769.30	-34.787
769.61	-36.361
769.91	-37.929
770.22	-38.776
770.53	-39.913
770.84	-40.890
771.15	-42.003
771.46	-42.109
771.77	-42.928
772.07	-43.638
772.38	-44.450
772.69	-44.687
773.00	-45.225
773.31	-45.546
773.61	-45.899
773.92	-46.164
774.23	-46.301
774.54	-46.502
774.85	-46.859
775.15	-45.742
775.46	-45.688
775.77	-45.890
776.08	-46.010
776.39	-45.039
776.69	-45.017
777.00	-44.513
777.31	-44.880
777.62	-44.306
777.92	-44.218
778.23	-43.711
778.54	-44.426
778.85	-44.631
779.15	-44.580
779.46	-44.183
779.77	-44.900
780.07	-44.672
780.38	-45.458
780.69	-44.453
781.00	-45.651
781.30	-45.381
781.61	-46.428
781.92	-45.836
782.22	-44.776
782.53	-43.763
782.84	-43.071
783.14	-42.552
783.45	-41.390
783.76	-39.064
784.06	-37.912
784.37	-35.463
784.68	-33.430
784.98	-31.185
785.29	-29.390
785.60	-28.011
785.90	-26.416
786.21	-24.944
786.51	-23.277
786.82	-22.153
787.13	-20.994
787.43	-20.226
787.74	-19.510
788.04	-19.101
788.35	-18.658
788.66	-19.171
788.96	-19.493
789.27	-20.106
789.57	-20.365
789.88	-20.598
790.19	-21.021
790.49	-22.253
790.80	-23.257
791.10	-23.596
791.41	-23.836
791.71	-24.236
792.02	-24.128
792.32	-24.117
792.63	-24.009
792.93	-23.858
793.24	-23.315
793.54	-23.398
793.85	-22.491
794.15	-21.290
794.46	-21.045
794.76	-20.723
795.07	-20.467
795.37	-19.206
795.68	-18.620
795.98	-17.872
796.29	-17.041
796.59	-16.916
796.90	-16.397
797.20	-16.714
797.51	-16.390
797.81	-16.072
798.12	-15.806
798.42	-15.162
798.72	-15.289
799.03	-14.713
799.33	-14.773
799.64	-15.345
799.94	-15.828
800.25	-15.635
800.55	-14.989
800.85	-14.905
801.16	-15.677
801.46	-15.830
801.77	-16.232
802.07	-16.823
802.37	-17.456
802.68	-17.552
802.98	-17.882
803.28	-17.803
803.59	-18.479
803.89	-19.028
804.20	-19.316
804.50	-18.680
804.80	-19.312
805.11	-19.275
805.41	-19.268
805.71	-19.146
806.02	-19.533
806.32	-18.634
806.62	-18.193
806.93	-17.594
807.23	-17.357
807.53	-16.783
807.83	-17.207
808.14	-15.995
808.44	-15.963
808.74	-15.411
809.05	-15.247
809.35	-13.379
809.65	-13.366
809.95	-12.775
810.26	-11.889
810.56	-11.155
810.86	-10.740
811.16	-8.761
811.47	-7.951
811.77	-6.681
812.07	-5.379
812.37	-3.566
812.68	-3.677
812.98	-2.762
813.28	-1.862
813.58	-0.995
813.88	0.392
814.19	1.186
814.49	1.196
814.79	2.048
815.09	2.744
815.39	2.931
815.70	3.197
816.00	4.093
816.30	4.351
816.60	4.915
816.90	5.633
817.20	6.291
817.50	7.548
817.81	9.118
818.11	10.444
818.41	11.393
818.71	12.375
819.01	13.148
819.31	13.735
819.61	14.400
819.92	14.808
820.22	15.062
820.52	15.341
820.82	15.458
821.12	15.593
821.42	15.666
821.72	15.847
822.02	15.851
822.32	15.857
822.62	15.830
822.92	15.735
823.22	15.648
823.52	15.474
823.83	15.299
824.13	15.154
824.43	14.968
824.73	14.745
825.03	14.498
825.33	14.285
825.63	14.128
825.93	13.953
826.23	13.742
826.53	13.633
826.83	13.719
827.13	13.481
827.43	13.303
827.73	13.081
828.03	12.811
828.33	12.398
828.63	11.928
828.93	11.253
829.23	10.661
829.53	10.034
829.83	8.948
830.13	7.978
830.42	7.773
830.72	7.932
831.02	8.073
831.32	8.215
831.62	8.200
831.92	8.691
832.22	9.013
832.52	9.172
832.82	9.449
833.12	9.897
833.42	9.886
833.72	9.717
834.01	9.176
834.31	8.974
834.61	8.346
834.91	7.862
835.21	7.246
835.51	6.540
835.81	5.807
836.11	4.654
836.40	3.510
836.70	2.574
837.00	1.308
837.30	-0.018
837.60	-2.089
837.90	-2.944
838.19	-3.425
838.49	-4.761
838.79	-5.380
839.09	-6.141
839.39	-6.892
839.68	-7.910
839.98	-7.721
840.28	-8.050
840.58	-8.349
840.88	-9.254
841.17	-10.717
841.47	-12.552
841.77	-13.397
842.07	-16.903
842.36	-19.650
842.66	-22.345
842.96	-23.859
843.26	-29.139
843.55	-34.850
843.85	-38.791
844.15	-40.939
844.45	-42.841
844.74	-45.836
845.04	-49.760
845.34	-48.462
845.63	-50.883
845.93	-50.382
846.23	-52.959
846.53	-54.087
846.82	-51.648
847.12	-54.679
847.42	-54.060
847.71	-54.068
848.01	-55.039
848.31	-53.475
848.60	-54.786
848.90	-48.715
849.19	-53.514
849.49	-51.983
849.79	-52.788
850.08	-51.883
850.38	-47.505
850.68	-46.646
850.97	-44.325
851.27	-43.304
851.56	-42.461
851.86	-40.439
852.16	-44.325
852.45	-42.050
852.75	-45.232
853.04	-43.126
853.34	-45.915
853.64	-44.544
853.93	-46.381
854.23	-48.408
854.52	-49.395
854.82	-50.185
855.11	-51.003
855.41	-51.831
855.70	-51.500
856.00	-47.363
856.30	-48.806
856.59	-47.862
856.89	-52.931
857.18	-52.435
857.48	-51.477
857.77	-45.745
858.07	-46.615
858.36	-45.534
858.66	-42.334
858.95	-41.012
859.25	-42.210
859.54	-41.853
859.84	-41.847
860.13	-38.798
860.42	-35.772
860.72	-37.038
861.01	-41.740
861.31	-40.498
861.60	-43.441
861.90	-43.316
862.19	-43.726
862.49	-41.803
862.78	-36.116
863.07	-34.524
863.37	-35.042
863.66	-34.645
863.96	-33.578
864.25	-30.880
864.54	-30.105
864.84	-27.104
865.13	-27.152
865.43	-26.654
865.72	-25.549
866.01	-23.151
866.31	-22.076
866.60	-31.939
866.89	-35.719
>>>>>End Spectral Data<<<<<
