OOIBase32 Version 2.0.0.6 Data File
++++++++++++++++++++++++++++++++++++
Date: 01-23-2012, 21:38:24
User: Valued Ocean Optics Customer
Spectrometer Serial Number: USB2E2917
Spectrometer Channel: Master
Integration Time (msec): 5
Spectra Averaged: 10
Boxcar Smoothing: 5
Correct for Electrical Dark: Enabled
Time Normalized: Disabled
Dual-beam Reference: Disabled
Reference Channel: Master
Temperature: Not acquired
Spectrometer Type: S2000
ADC Type: USB2000
Number of Pixels in File: 2048
Graph Title: 
>>>>>Begin Spectral Data<<<<<
180.30	0.000
180.67	0.000
181.03	157.074
181.40	-172.526
181.77	1908.800
182.14	115.969
182.51	99.357
182.88	-1301.695
183.25	166.887
183.62	87.488
183.99	81.388
184.36	-64.357
184.73	-20.123
185.10	-46.580
185.46	70.034
185.83	222.554
186.20	7.492
186.57	-227.356
186.94	-148.378
187.31	178.678
187.68	-44.712
188.05	63.850
188.42	51.537
188.78	49.997
189.15	33.570
189.52	49.998
189.89	43.355
190.26	21.110
190.63	30.792
191.00	24.812
191.37	21.885
191.73	27.240
192.10	37.438
192.47	35.122
192.84	32.056
193.21	29.940
193.58	29.932
193.94	33.899
194.31	29.170
194.68	34.194
195.05	31.224
195.42	17.265
195.79	11.745
196.15	11.910
196.52	2.334
196.89	-15.276
197.26	-15.354
197.63	-28.827
198.00	-27.019
198.36	-10.263
198.73	-13.562
199.10	-14.585
199.47	1.157
199.84	0.841
200.20	5.404
200.57	11.776
200.94	22.565
201.31	21.746
201.68	24.673
202.04	14.696
202.41	10.752
202.78	0.334
203.15	10.202
203.51	-13.499
203.88	-11.891
204.25	-26.719
204.62	-10.671
204.98	-16.029
205.35	-20.731
205.72	-20.853
206.09	-23.004
206.46	-17.461
206.82	-11.521
207.19	-23.434
207.56	-8.825
207.92	-14.981
208.29	-21.351
208.66	-31.774
209.03	-23.580
209.39	-20.941
209.76	-28.411
210.13	-25.576
210.50	-33.780
210.86	-31.093
211.23	-10.506
211.60	-12.160
211.96	-0.920
212.33	-8.256
212.70	-3.304
213.07	-8.001
213.43	1.934
213.80	1.143
214.17	-6.441
214.53	-5.351
214.90	-2.462
215.27	-16.755
215.63	-20.044
216.00	-28.695
216.37	-2.641
216.74	-6.161
217.10	-3.173
217.47	-9.719
217.84	4.226
218.20	28.675
218.57	43.969
218.94	39.644
219.30	43.842
219.67	46.255
220.04	45.993
220.40	34.996
220.77	30.705
221.13	29.392
221.50	17.670
221.87	16.898
222.23	5.860
222.60	-7.094
222.97	-10.280
223.33	-13.419
223.70	-14.668
224.07	-7.577
224.43	-3.104
224.80	1.462
225.16	1.862
225.53	4.841
225.90	0.022
226.26	-1.468
226.63	0.923
226.99	1.018
227.36	2.688
227.73	3.496
228.09	0.520
228.46	0.048
228.82	-0.785
229.19	-0.857
229.56	-2.260
229.92	-0.359
230.29	0.848
230.65	0.990
231.02	2.008
231.38	1.545
231.75	1.312
232.12	3.040
232.48	2.667
232.85	2.113
233.21	4.772
233.58	5.548
233.94	8.336
234.31	7.274
234.68	4.268
235.04	3.126
235.41	3.565
235.77	3.993
236.14	2.886
236.50	2.455
236.87	3.287
237.23	1.214
237.60	1.982
237.96	-0.032
238.33	0.786
238.69	1.592
239.06	1.872
239.42	2.264
239.79	1.892
240.15	2.460
240.52	2.626
240.88	2.776
241.25	3.001
241.61	2.406
241.98	2.909
242.34	2.563
242.71	2.840
243.07	2.654
243.44	2.273
243.80	2.592
244.17	2.408
244.53	2.497
244.90	2.343
245.26	2.254
245.63	2.302
245.99	2.249
246.36	2.495
246.72	2.006
247.09	2.327
247.45	2.554
247.81	2.264
248.18	2.049
248.54	1.821
248.91	2.005
249.27	2.207
249.64	2.050
250.00	1.817
250.36	1.771
250.73	2.413
251.09	2.241
251.46	2.111
251.82	2.736
252.19	3.409
252.55	3.106
252.91	3.185
253.28	2.223
253.64	2.759
254.01	3.196
254.37	2.894
254.73	3.120
255.10	2.975
255.46	3.139
255.83	2.419
256.19	2.179
256.55	2.394
256.92	1.941
257.28	2.171
257.65	2.241
258.01	2.127
258.37	1.943
258.74	1.950
259.10	2.125
259.46	2.059
259.83	2.226
260.19	2.115
260.55	2.096
260.92	2.279
261.28	2.213
261.64	1.960
262.01	1.945
262.37	2.002
262.73	1.618
263.10	1.324
263.46	1.619
263.82	1.784
264.19	1.635
264.55	1.535
264.91	1.499
265.28	2.080
265.64	2.055
266.00	1.796
266.37	1.827
266.73	2.065
267.09	2.123
267.46	1.929
267.82	1.722
268.18	1.956
268.54	1.907
268.91	2.254
269.27	2.132
269.63	2.268
270.00	2.459
270.36	2.804
270.72	2.678
271.08	2.441
271.45	2.476
271.81	2.889
272.17	2.928
272.53	2.900
272.90	2.554
273.26	2.434
273.62	2.446
273.98	2.487
274.35	2.064
274.71	2.307
275.07	2.531
275.43	2.650
275.80	2.390
276.16	2.530
276.52	2.515
276.88	2.675
277.25	2.757
277.61	2.765
277.97	2.630
278.33	2.529
278.69	2.062
279.06	2.184
279.42	1.900
279.78	1.712
280.14	1.703
280.50	1.966
280.87	2.040
281.23	2.079
281.59	1.889
281.95	2.009
282.31	2.285
282.68	2.618
283.04	2.578
283.40	2.651
283.76	2.484
284.12	2.599
284.48	2.527
284.85	2.349
285.21	2.187
285.57	2.244
285.93	2.270
286.29	2.136
286.65	2.026
287.02	2.080
287.38	2.190
287.74	2.529
288.10	2.405
288.46	2.462
288.82	2.420
289.18	2.456
289.54	2.393
289.91	2.457
290.27	2.446
290.63	2.606
290.99	2.450
291.35	2.591
291.71	2.689
292.07	2.485
292.43	2.534
292.79	2.908
293.16	2.910
293.52	2.952
293.88	2.868
294.24	2.988
294.60	2.725
294.96	2.935
295.32	2.820
295.68	2.464
296.04	2.617
296.40	2.418
296.76	2.327
297.12	2.476
297.49	2.587
297.85	2.746
298.21	2.786
298.57	2.810
298.93	2.632
299.29	2.495
299.65	2.579
300.01	2.632
300.37	2.679
300.73	2.684
301.09	2.530
301.45	2.492
301.81	2.356
302.17	2.287
302.53	2.319
302.89	2.346
303.25	2.286
303.61	2.497
303.97	2.394
304.33	2.393
304.69	2.228
305.05	2.290
305.41	2.245
305.77	2.301
306.13	2.293
306.49	2.403
306.85	2.299
307.21	2.415
307.57	2.339
307.93	2.445
308.29	2.533
308.65	2.477
309.01	2.514
309.37	2.746
309.73	2.728
310.09	2.801
310.45	2.722
310.81	2.840
311.17	2.762
311.53	2.762
311.89	2.766
312.25	2.763
312.61	2.872
312.96	2.990
313.32	2.953
313.68	2.836
314.04	2.750
314.40	2.870
314.76	2.830
315.12	2.925
315.48	3.073
315.84	2.921
316.20	2.820
316.56	2.946
316.92	2.654
317.27	2.341
317.63	2.233
317.99	2.220
318.35	2.013
318.71	1.993
319.07	1.993
319.43	2.022
319.79	2.085
320.15	2.094
320.50	1.936
320.86	2.093
321.22	2.229
321.58	2.445
321.94	2.383
322.30	2.520
322.66	2.568
323.01	2.623
323.37	2.563
323.73	2.605
324.09	2.743
324.45	2.931
324.81	2.934
325.17	2.987
325.52	2.946
325.88	3.042
326.24	3.027
326.60	3.102
326.96	3.118
327.31	3.085
327.67	3.067
328.03	2.908
328.39	2.708
328.75	2.706
329.11	2.677
329.46	2.672
329.82	2.648
330.18	2.708
330.54	2.692
330.90	2.622
331.25	2.558
331.61	2.564
331.97	2.580
332.33	2.772
332.68	2.662
333.04	2.642
333.40	2.650
333.76	2.678
334.11	2.550
334.47	2.515
334.83	2.497
335.19	2.581
335.54	2.634
335.90	2.806
336.26	2.712
336.62	2.837
336.97	2.741
337.33	2.729
337.69	2.723
338.05	2.789
338.40	2.735
338.76	2.747
339.12	2.672
339.48	2.681
339.83	2.538
340.19	2.546
340.55	2.458
340.90	2.520
341.26	2.479
341.62	2.435
341.97	2.563
342.33	2.666
342.69	2.678
343.04	2.682
343.40	2.558
343.76	2.606
344.12	2.638
344.47	2.683
344.83	2.641
345.19	2.646
345.54	2.785
345.90	2.724
346.26	2.586
346.61	2.688
346.97	2.728
347.32	2.765
347.68	2.744
348.04	2.734
348.39	2.729
348.75	2.875
349.11	2.836
349.46	2.744
349.82	2.702
350.18	2.805
350.53	2.694
350.89	2.706
351.24	2.698
351.60	2.684
351.96	2.704
352.31	2.778
352.67	2.663
353.02	2.775
353.38	2.787
353.74	2.772
354.09	2.743
354.45	2.833
354.80	2.755
355.16	2.742
355.52	2.775
355.87	2.698
356.23	2.644
356.58	2.696
356.94	2.607
357.29	2.566
357.65	2.501
358.00	2.519
358.36	2.455
358.72	2.563
359.07	2.629
359.43	2.659
359.78	2.700
360.14	2.697
360.49	2.706
360.85	2.735
361.20	2.819
361.56	2.875
361.91	2.798
362.27	2.821
362.62	2.769
362.98	2.709
363.33	2.687
363.69	2.648
364.04	2.639
364.40	2.626
364.75	2.622
365.11	2.569
365.46	2.573
365.82	2.659
366.17	2.597
366.53	2.629
366.88	2.665
367.24	2.671
367.59	2.710
367.95	2.778
368.30	2.754
368.66	2.763
369.01	2.793
369.37	2.828
369.72	2.816
370.08	2.890
370.43	2.824
370.78	2.807
371.14	2.808
371.49	2.830
371.85	2.808
372.20	2.895
372.56	2.951
372.91	2.907
373.26	2.880
373.62	2.851
373.97	2.862
374.33	2.900
374.68	2.921
375.03	2.997
375.39	2.950
375.74	2.915
376.10	2.877
376.45	2.864
376.80	2.930
377.16	2.990
377.51	3.061
377.87	3.014
378.22	3.036
378.57	3.107
378.93	3.071
379.28	3.147
379.63	3.225
379.99	3.265
380.34	3.265
380.70	3.272
381.05	3.282
381.40	3.290
381.76	3.292
382.11	3.337
382.46	3.289
382.82	3.316
383.17	3.319
383.52	3.323
383.88	3.292
384.23	3.341
384.58	3.316
384.94	3.300
385.29	3.324
385.64	3.420
385.99	3.412
386.35	3.497
386.70	3.486
387.05	3.492
387.41	3.485
387.76	3.500
388.11	3.490
388.47	3.559
388.82	3.570
389.17	3.574
389.52	3.582
389.88	3.633
390.23	3.620
390.58	3.664
390.93	3.677
391.29	3.729
391.64	3.804
391.99	3.847
392.34	3.834
392.70	3.876
393.05	3.898
393.40	3.867
393.75	3.851
394.11	3.858
394.46	3.853
394.81	3.847
395.16	3.792
395.52	3.769
395.87	3.721
396.22	3.744
396.57	3.733
396.92	3.745
397.28	3.778
397.63	3.794
397.98	3.828
398.33	3.867
398.68	3.902
399.04	3.963
399.39	3.975
399.74	4.037
400.09	4.052
400.44	4.105
400.80	4.099
401.15	4.115
401.50	4.139
401.85	4.167
402.20	4.179
402.55	4.196
402.90	4.214
403.26	4.276
403.61	4.310
403.96	4.339
404.31	4.336
404.66	4.392
405.01	4.457
405.36	4.498
405.72	4.502
406.07	4.546
406.42	4.614
406.77	4.637
407.12	4.638
407.47	4.671
407.82	4.668
408.17	4.691
408.53	4.691
408.88	4.700
409.23	4.688
409.58	4.702
409.93	4.695
410.28	4.714
410.63	4.743
410.98	4.765
411.33	4.762
411.68	4.812
412.03	4.878
412.38	4.936
412.73	4.931
413.09	4.980
413.44	5.029
413.79	5.078
414.14	5.070
414.49	5.094
414.84	5.121
415.19	5.163
415.54	5.193
415.89	5.200
416.24	5.199
416.59	5.243
416.94	5.257
417.29	5.284
417.64	5.307
417.99	5.343
418.34	5.375
418.69	5.403
419.04	5.416
419.39	5.433
419.74	5.448
420.09	5.480
420.44	5.494
420.79	5.521
421.14	5.529
421.49	5.539
421.84	5.550
422.19	5.562
422.54	5.582
422.89	5.590
423.24	5.613
423.59	5.644
423.94	5.659
424.29	5.675
424.64	5.691
424.99	5.711
425.34	5.740
425.68	5.775
426.03	5.803
426.38	5.828
426.73	5.879
427.08	5.900
427.43	5.914
427.78	5.942
428.13	5.963
428.48	5.984
428.83	5.999
429.18	6.019
429.53	6.020
429.87	6.035
430.22	5.997
430.57	6.003
430.92	6.009
431.27	6.038
431.62	6.043
431.97	6.030
432.32	6.043
432.67	6.055
433.01	6.054
433.36	6.080
433.71	6.095
434.06	6.140
434.41	6.175
434.76	6.218
435.11	6.215
435.45	6.240
435.80	6.288
436.15	6.301
436.50	6.326
436.85	6.345
437.20	6.366
437.54	6.383
437.89	6.398
438.24	6.396
438.59	6.397
438.94	6.417
439.29	6.428
439.63	6.436
439.98	6.456
440.33	6.453
440.68	6.468
441.03	6.488
441.37	6.490
441.72	6.489
442.07	6.505
442.42	6.519
442.76	6.522
443.11	6.524
443.46	6.519
443.81	6.525
444.16	6.544
444.50	6.539
444.85	6.537
445.20	6.534
445.55	6.554
445.89	6.538
446.24	6.509
446.59	6.510
446.94	6.500
447.28	6.515
447.63	6.510
447.98	6.502
448.32	6.521
448.67	6.498
449.02	6.509
449.37	6.501
449.71	6.524
450.06	6.557
450.41	6.564
450.75	6.580
451.10	6.577
451.45	6.576
451.79	6.567
452.14	6.557
452.49	6.562
452.84	6.566
453.18	6.573
453.53	6.579
453.88	6.600
454.22	6.596
454.57	6.623
454.92	6.653
455.26	6.685
455.61	6.719
455.95	6.743
456.30	6.791
456.65	6.793
456.99	6.811
457.34	6.831
457.69	6.841
458.03	6.872
458.38	6.892
458.73	6.907
459.07	6.921
459.42	6.931
459.76	6.948
460.11	6.933
460.46	6.962
460.80	6.988
461.15	7.010
461.49	7.009
461.84	7.020
462.19	7.031
462.53	7.046
462.88	7.050
463.22	7.068
463.57	7.098
463.91	7.141
464.26	7.185
464.61	7.210
464.95	7.227
465.30	7.265
465.64	7.294
465.99	7.295
466.33	7.306
466.68	7.358
467.02	7.385
467.37	7.404
467.71	7.422
468.06	7.432
468.41	7.436
468.75	7.446
469.10	7.443
469.44	7.452
469.79	7.469
470.13	7.494
470.48	7.467
470.82	7.482
471.17	7.479
471.51	7.466
471.86	7.451
472.20	7.466
472.55	7.499
472.89	7.533
473.23	7.534
473.58	7.550
473.92	7.543
474.27	7.555
474.61	7.539
474.96	7.520
475.30	7.523
475.65	7.528
475.99	7.507
476.34	7.494
476.68	7.497
477.02	7.495
477.37	7.490
477.71	7.506
478.06	7.546
478.40	7.615
478.75	7.703
479.09	7.794
479.43	7.885
479.78	8.003
480.12	8.120
480.47	8.240
480.81	8.378
481.15	8.518
481.50	8.653
481.84	8.816
482.19	8.983
482.53	9.121
482.87	9.181
483.22	9.177
483.56	9.089
483.90	8.959
484.25	8.796
484.59	8.635
484.94	8.517
485.28	8.407
485.62	8.249
485.97	8.077
486.31	7.927
486.65	7.860
487.00	7.860
487.34	7.929
487.68	8.026
488.03	8.141
488.37	8.243
488.71	8.287
489.06	8.302
489.40	8.313
489.74	8.320
490.09	8.339
490.43	8.337
490.77	8.336
491.11	8.336
491.46	8.339
491.80	8.350
492.14	8.357
492.49	8.359
492.83	8.375
493.17	8.393
493.51	8.437
493.86	8.487
494.20	8.527
494.54	8.577
494.88	8.642
495.23	8.701
495.57	8.764
495.91	8.832
496.25	8.881
496.60	8.931
496.94	9.005
497.28	9.058
497.62	9.097
497.97	9.171
498.31	9.241
498.65	9.284
498.99	9.350
499.33	9.416
499.68	9.489
500.02	9.582
500.36	9.673
500.70	9.742
501.04	9.828
501.39	9.903
501.73	9.993
502.07	10.076
502.41	10.169
502.75	10.250
503.09	10.342
503.44	10.434
503.78	10.530
504.12	10.633
504.46	10.744
504.80	10.838
505.14	10.940
505.49	11.028
505.83	11.125
506.17	11.212
506.51	11.321
506.85	11.411
507.19	11.493
507.53	11.581
507.87	11.664
508.22	11.742
508.56	11.822
508.90	11.918
509.24	12.005
509.58	12.086
509.92	12.168
510.26	12.240
510.60	12.341
510.94	12.423
511.28	12.506
511.63	12.602
511.97	12.681
512.31	12.759
512.65	12.851
512.99	12.934
513.33	13.028
513.67	13.171
514.01	13.272
514.35	13.363
514.69	13.479
515.03	13.578
515.37	13.659
515.71	13.758
516.05	13.855
516.39	13.921
516.73	14.009
517.07	14.092
517.41	14.152
517.75	14.216
518.09	14.285
518.43	14.347
518.77	14.403
519.11	14.485
519.45	14.549
519.79	14.617
520.13	14.704
520.47	14.785
520.81	14.881
521.15	14.974
521.49	15.080
521.83	15.151
522.17	15.256
522.51	15.359
522.85	15.455
523.19	15.616
523.53	15.807
523.87	15.997
524.21	16.172
524.55	16.326
524.89	16.462
525.23	16.604
525.57	16.752
525.91	16.874
526.25	16.974
526.58	17.076
526.92	17.144
527.26	17.190
527.60	17.218
527.94	17.238
528.28	17.260
528.62	17.285
528.96	17.315
529.30	17.319
529.64	17.326
529.97	17.355
530.31	17.366
530.65	17.392
530.99	17.435
531.33	17.488
531.67	17.568
532.01	17.638
532.35	17.695
532.68	17.725
533.02	17.766
533.36	17.803
533.70	17.851
534.04	17.908
534.38	17.958
534.71	18.016
535.05	18.086
535.39	18.144
535.73	18.219
536.07	18.302
536.41	18.423
536.74	18.562
537.08	18.685
537.42	18.783
537.76	18.910
538.10	19.043
538.43	19.160
538.77	19.261
539.11	19.354
539.45	19.440
539.79	19.510
540.12	19.558
540.46	19.600
540.80	19.635
541.14	19.680
541.47	19.720
541.81	19.736
542.15	19.762
542.49	19.778
542.82	19.796
543.16	19.835
543.50	19.873
543.84	19.935
544.17	19.996
544.51	20.078
544.85	20.145
545.18	20.186
545.52	20.245
545.86	20.290
546.20	20.360
546.53	20.404
546.87	20.440
547.21	20.520
547.54	20.563
547.88	20.631
548.22	20.676
548.55	20.743
548.89	20.846
549.23	20.936
549.56	21.011
549.90	21.084
550.24	21.184
550.57	21.259
550.91	21.306
551.25	21.406
551.58	21.459
551.92	21.558
552.26	21.632
552.59	21.695
552.93	21.766
553.27	21.845
553.60	21.907
553.94	21.982
554.27	22.047
554.61	22.132
554.95	22.195
555.28	22.276
555.62	22.331
555.95	22.417
556.29	22.490
556.63	22.574
556.96	22.627
557.30	22.712
557.63	22.785
557.97	22.856
558.31	22.941
558.64	23.022
558.98	23.101
559.31	23.159
559.65	23.202
559.98	23.247
560.32	23.302
560.65	23.370
560.99	23.432
561.33	23.486
561.66	23.552
562.00	23.587
562.33	23.626
562.67	23.649
563.00	23.722
563.34	23.809
563.67	23.860
564.01	23.879
564.34	23.902
564.68	23.940
565.01	23.959
565.35	23.998
565.68	24.045
566.02	24.080
566.35	24.163
566.69	24.211
567.02	24.227
567.36	24.285
567.69	24.360
568.03	24.437
568.36	24.508
568.69	24.579
569.03	24.641
569.36	24.683
569.70	24.736
570.03	24.767
570.37	24.812
570.70	24.856
571.04	24.889
571.37	24.919
571.70	24.984
572.04	25.004
572.37	25.065
572.71	25.113
573.04	25.163
573.37	25.201
573.71	25.242
574.04	25.274
574.38	25.339
574.71	25.405
575.04	25.485
575.38	25.504
575.71	25.570
576.05	25.642
576.38	25.702
576.71	25.772
577.05	25.840
577.38	25.902
577.71	25.965
578.05	26.008
578.38	26.024
578.71	26.065
579.05	26.132
579.38	26.183
579.71	26.186
580.05	26.205
580.38	26.261
580.71	26.329
581.05	26.374
581.38	26.410
581.71	26.450
582.05	26.515
582.38	26.563
582.71	26.609
583.04	26.642
583.38	26.718
583.71	26.789
584.04	26.819
584.38	26.874
584.71	26.911
585.04	26.974
585.37	27.061
585.71	27.121
586.04	27.159
586.37	27.185
586.70	27.244
587.04	27.242
587.37	27.255
587.70	27.280
588.03	27.277
588.37	27.339
588.70	27.378
589.03	27.373
589.36	27.394
589.69	27.407
590.03	27.421
590.36	27.422
590.69	27.498
591.02	27.547
591.35	27.591
591.69	27.636
592.02	27.646
592.35	27.633
592.68	27.670
593.01	27.673
593.35	27.714
593.68	27.759
594.01	27.768
594.34	27.784
594.67	27.799
595.00	27.839
595.34	27.828
595.67	27.842
596.00	27.887
596.33	27.893
596.66	27.940
596.99	27.983
597.32	28.050
597.65	28.125
597.99	28.159
598.32	28.196
598.65	28.222
598.98	28.311
599.31	28.348
599.64	28.402
599.97	28.476
600.30	28.476
600.63	28.499
600.96	28.489
601.30	28.490
601.63	28.477
601.96	28.506
602.29	28.554
602.62	28.562
602.95	28.611
603.28	28.616
603.61	28.606
603.94	28.667
604.27	28.676
604.60	28.720
604.93	28.790
605.26	28.870
605.59	28.916
605.92	28.925
606.25	28.956
606.58	28.983
606.91	29.027
607.24	29.082
607.57	29.050
607.90	29.096
608.23	29.137
608.56	29.139
608.89	29.148
609.22	29.155
609.55	29.179
609.88	29.225
610.21	29.276
610.54	29.313
610.87	29.372
611.20	29.491
611.53	29.579
611.86	29.604
612.19	29.671
612.52	29.719
612.85	29.781
613.18	29.813
613.51	29.785
613.84	29.779
614.17	29.792
614.49	29.799
614.82	29.831
615.15	29.794
615.48	29.846
615.81	29.846
616.14	29.880
616.47	29.889
616.80	29.929
617.13	29.976
617.46	29.998
617.78	30.020
618.11	30.033
618.44	30.015
618.77	30.026
619.10	29.978
619.43	29.995
619.76	30.001
620.09	30.041
620.41	30.085
620.74	30.134
621.07	30.195
621.40	30.233
621.73	30.279
622.06	30.288
622.38	30.355
622.71	30.386
623.04	30.417
623.37	30.409
623.70	30.383
624.02	30.358
624.35	30.367
624.68	30.359
625.01	30.365
625.34	30.360
625.66	30.425
625.99	30.395
626.32	30.442
626.65	30.475
626.98	30.534
627.30	30.606
627.63	30.642
627.96	30.650
628.29	30.685
628.61	30.750
628.94	30.803
629.27	30.817
629.60	30.899
629.92	30.860
630.25	30.876
630.58	30.864
630.91	30.876
631.23	30.896
631.56	30.901
631.89	30.931
632.21	30.943
632.54	30.916
632.87	30.950
633.19	30.939
633.52	31.002
633.85	31.038
634.18	31.011
634.50	30.981
634.83	30.969
635.16	31.025
635.48	30.995
635.81	30.959
636.14	30.982
636.46	30.967
636.79	30.987
637.11	31.018
637.44	31.002
637.77	31.092
638.09	31.086
638.42	31.134
638.75	31.112
639.07	31.132
639.40	31.154
639.73	31.189
640.05	31.204
640.38	31.188
640.70	31.170
641.03	31.169
641.36	31.136
641.68	31.137
642.01	31.104
642.33	31.139
642.66	31.210
642.98	31.200
643.31	31.205
643.64	31.203
643.96	31.208
644.29	31.224
644.61	31.260
644.94	31.296
645.26	31.312
645.59	31.381
645.91	31.422
646.24	31.403
646.56	31.410
646.89	31.433
647.22	31.417
647.54	31.445
647.87	31.432
648.19	31.447
648.52	31.471
648.84	31.521
649.17	31.482
649.49	31.453
649.82	31.416
650.14	31.506
650.47	31.478
650.79	31.469
651.11	31.453
651.44	31.520
651.76	31.504
652.09	31.449
652.41	31.426
652.74	31.470
653.06	31.492
653.39	31.566
653.71	31.492
654.04	31.466
654.36	31.499
654.68	31.470
655.01	31.435
655.33	31.424
655.66	31.464
655.98	31.504
656.30	31.466
656.63	31.441
656.95	31.366
657.28	31.361
657.60	31.339
657.92	31.272
658.25	31.272
658.57	31.215
658.90	31.224
659.22	31.165
659.54	31.185
659.87	31.107
660.19	31.075
660.51	31.135
660.84	31.154
661.16	31.211
661.48	31.266
661.81	31.323
662.13	31.384
662.45	31.325
662.78	31.388
663.10	31.359
663.42	31.412
663.75	31.407
664.07	31.360
664.39	31.348
664.72	31.301
665.04	31.274
665.36	31.239
665.69	31.232
666.01	31.296
666.33	31.327
666.65	31.262
666.98	31.330
667.30	31.330
667.62	31.288
667.94	31.327
668.27	31.388
668.59	31.417
668.91	31.437
669.23	31.434
669.56	31.411
669.88	31.321
670.20	31.338
670.52	31.278
670.85	31.353
671.17	31.400
671.49	31.310
671.81	31.286
672.13	31.288
672.46	31.269
672.78	31.253
673.10	31.193
673.42	31.253
673.74	31.313
674.07	31.273
674.39	31.244
674.71	31.238
675.03	31.303
675.35	31.231
675.67	31.255
676.00	31.295
676.32	31.285
676.64	31.347
676.96	31.329
677.28	31.286
677.60	31.330
677.92	31.333
678.25	31.305
678.57	31.265
678.89	31.300
679.21	31.263
679.53	31.228
679.85	31.193
680.17	31.219
680.49	31.159
680.81	31.146
681.13	31.195
681.46	31.196
681.78	31.278
682.10	31.278
682.42	31.297
682.74	31.282
683.06	31.270
683.38	31.367
683.70	31.343
684.02	31.345
684.34	31.335
684.66	31.254
684.98	31.241
685.30	31.240
685.62	31.256
685.94	31.200
686.26	31.253
686.58	31.284
686.90	31.270
687.22	31.221
687.54	31.266
687.86	31.297
688.18	31.289
688.50	31.220
688.82	31.100
689.14	31.040
689.46	31.146
689.78	31.041
690.10	31.014
690.42	30.967
690.74	30.951
691.06	30.938
691.38	30.871
691.70	30.868
692.02	30.873
692.34	30.914
692.66	30.903
692.98	30.796
693.30	30.853
693.62	30.795
693.94	30.696
694.26	30.755
694.57	30.607
694.89	30.569
695.21	30.583
695.53	30.588
695.85	30.587
696.17	30.617
696.49	30.607
696.81	30.581
697.13	30.590
697.44	30.624
697.76	30.491
698.08	30.599
698.40	30.620
698.72	30.568
699.04	30.545
699.36	30.519
699.67	30.401
699.99	30.274
700.31	30.172
700.63	30.105
700.95	30.045
701.27	30.018
701.58	29.871
701.90	29.812
702.22	29.751
702.54	29.667
702.86	29.518
703.17	29.583
703.49	29.613
703.81	29.618
704.13	29.645
704.45	29.624
704.76	29.607
705.08	29.553
705.40	29.480
705.72	29.413
706.03	29.375
706.35	29.435
706.67	29.372
706.99	29.358
707.30	29.368
707.62	29.268
707.94	29.284
708.26	29.253
708.57	29.316
708.89	29.273
709.21	29.310
709.53	29.377
709.84	29.333
710.16	29.388
710.48	29.414
710.79	29.334
711.11	29.313
711.43	29.178
711.74	29.175
712.06	29.179
712.38	29.279
712.69	29.268
713.01	29.292
713.33	29.234
713.64	29.210
713.96	29.198
714.28	29.322
714.59	29.378
714.91	29.497
715.23	29.637
715.54	29.648
715.86	29.615
716.17	29.713
716.49	29.590
716.81	29.657
717.12	29.514
717.44	29.482
717.76	29.490
718.07	29.415
718.39	29.295
718.70	29.135
719.02	28.980
719.33	28.926
719.65	28.762
719.97	28.766
720.28	28.787
720.60	28.907
720.91	28.902
721.23	28.765
721.54	28.855
721.86	28.894
722.17	28.899
722.49	28.968
722.81	28.808
723.12	28.674
723.44	28.681
723.75	28.632
724.07	28.511
724.38	28.554
724.70	28.636
725.01	28.605
725.33	28.629
725.64	28.623
725.96	28.561
726.27	28.607
726.59	28.735
726.90	28.704
727.22	28.633
727.53	28.667
727.84	28.505
728.16	28.288
728.47	28.223
728.79	28.123
729.10	28.001
729.42	28.028
729.73	28.031
730.05	27.960
730.36	27.836
730.67	27.750
730.99	27.673
731.30	27.625
731.62	27.549
731.93	27.491
732.24	27.392
732.56	27.386
732.87	27.268
733.19	27.176
733.50	27.091
733.81	27.055
734.13	27.107
734.44	27.057
734.76	26.904
735.07	26.753
735.38	26.513
735.70	26.496
736.01	26.333
736.32	26.249
736.64	26.295
736.95	26.223
737.26	26.086
737.58	25.953
737.89	25.937
738.20	25.954
738.52	26.044
738.83	26.136
739.14	26.074
739.45	26.064
739.77	25.966
740.08	25.850
740.39	25.692
740.71	25.836
741.02	25.798
741.33	25.768
741.64	25.613
741.96	25.510
742.27	25.274
742.58	25.201
742.90	25.207
743.21	25.100
743.52	24.995
743.83	25.002
744.14	24.607
744.46	24.391
744.77	24.163
745.08	24.407
745.39	24.274
745.71	24.344
746.02	24.345
746.33	24.241
746.64	24.189
746.95	24.146
747.27	24.156
747.58	24.325
747.89	24.442
748.20	24.436
748.51	24.263
748.82	24.383
749.14	24.321
749.45	24.179
749.76	24.014
750.07	24.141
750.38	23.926
750.69	24.013
751.01	23.949
751.32	23.716
751.63	23.564
751.94	23.532
752.25	23.551
752.56	23.558
752.87	23.570
753.18	23.709
753.49	23.525
753.81	23.619
754.12	23.494
754.43	23.595
754.74	23.759
755.05	23.834
755.36	24.038
755.67	24.181
755.98	24.291
756.29	24.509
756.60	24.629
756.91	24.931
757.22	25.352
757.53	25.536
757.84	25.744
758.15	26.105
758.46	26.489
758.77	26.551
759.09	26.651
759.40	26.893
759.71	27.077
760.02	27.109
760.33	27.124
760.64	27.026
760.95	27.123
761.26	27.033
761.57	27.013
761.88	26.936
762.18	26.822
762.49	26.749
762.80	26.571
763.11	26.311
763.42	26.277
763.73	26.168
764.04	25.894
764.35	25.640
764.66	25.323
764.97	24.929
765.28	24.603
765.59	24.378
765.90	24.055
766.21	24.000
766.52	23.798
766.83	23.561
767.14	23.373
767.44	23.286
767.75	23.119
768.06	23.077
768.37	22.882
768.68	22.812
768.99	22.729
769.30	22.490
769.61	22.079
769.91	21.945
770.22	21.768
770.53	21.421
770.84	21.555
771.15	21.647
771.46	21.710
771.77	21.589
772.07	21.915
772.38	21.810
772.69	21.760
773.00	21.397
773.31	21.697
773.61	21.491
773.92	21.493
774.23	21.319
774.54	21.078
774.85	20.946
775.15	21.028
775.46	20.559
775.77	20.544
776.08	20.572
776.39	20.836
776.69	20.412
777.00	20.705
777.31	20.754
777.62	20.863
777.92	20.798
778.23	20.874
778.54	20.715
778.85	20.580
779.15	20.709
779.46	20.606
779.77	20.586
780.07	20.804
780.38	20.584
780.69	20.461
781.00	20.121
781.30	20.240
781.61	20.131
781.92	20.452
782.22	20.656
782.53	20.529
782.84	20.800
783.14	21.014
783.45	21.090
783.76	21.467
784.06	21.613
784.37	21.984
784.68	21.941
784.98	22.056
785.29	21.992
785.60	21.979
785.90	22.080
786.21	22.160
786.51	22.037
786.82	21.799
787.13	21.874
787.43	22.220
787.74	21.960
788.04	21.879
788.35	21.720
788.66	21.698
788.96	21.783
789.27	22.033
789.57	22.095
789.88	22.162
790.19	22.403
790.49	22.138
790.80	22.003
791.10	22.119
791.41	22.176
791.71	22.434
792.02	22.692
792.32	22.709
792.63	22.648
792.93	22.434
793.24	22.418
793.54	22.328
793.85	22.560
794.15	22.596
794.46	22.574
794.76	22.392
795.07	22.423
795.37	22.218
795.68	21.889
795.98	21.905
796.29	22.075
796.59	22.037
796.90	21.995
797.20	21.678
797.51	21.648
797.81	21.673
798.12	21.966
798.42	21.750
798.72	21.619
799.03	22.037
799.33	21.818
799.64	21.816
799.94	21.658
800.25	21.531
800.55	21.656
800.85	21.543
801.16	21.445
801.46	21.311
801.77	21.307
802.07	21.122
802.37	20.575
802.68	20.740
802.98	20.623
803.28	20.729
803.59	20.949
803.89	20.973
804.20	21.140
804.50	20.994
804.80	20.880
805.11	21.249
805.41	21.746
805.71	21.881
806.02	21.501
806.32	21.620
806.62	21.538
806.93	21.556
807.23	21.220
807.53	20.870
807.83	20.958
808.14	21.179
808.44	20.990
808.74	20.848
809.05	21.458
809.35	22.031
809.65	22.070
809.95	22.212
810.26	21.912
810.56	22.573
810.86	23.015
811.16	23.352
811.47	23.320
811.77	23.657
812.07	23.786
812.37	23.481
812.68	23.332
812.98	23.482
813.28	23.564
813.58	23.834
813.88	23.085
814.19	23.040
814.49	22.987
814.79	23.096
815.09	22.658
815.39	22.928
815.70	23.107
816.00	23.015
816.30	22.808
816.60	22.905
816.90	23.427
817.20	24.027
817.50	24.305
817.81	24.731
818.11	25.083
818.41	25.462
818.71	25.319
819.01	25.478
819.31	25.633
819.61	25.711
819.92	25.771
820.22	25.757
820.52	25.806
820.82	25.845
821.12	25.754
821.42	25.696
821.72	25.644
822.02	25.640
822.32	25.506
822.62	25.396
822.92	25.298
823.22	25.265
823.52	25.205
823.83	25.057
824.13	25.000
824.43	25.007
824.73	24.973
825.03	24.826
825.33	24.716
825.63	24.752
825.93	24.741
826.23	24.850
826.53	24.723
826.83	24.564
827.13	24.597
827.43	24.395
827.73	24.328
828.03	24.040
828.33	23.949
828.63	23.932
828.93	23.708
829.23	23.534
829.53	23.329
829.83	23.509
830.13	23.494
830.42	23.228
830.72	23.287
831.02	23.306
831.32	23.669
831.62	23.506
831.92	23.699
832.22	24.005
832.52	24.266
832.82	24.444
833.12	24.191
833.42	24.340
833.72	24.735
834.01	24.725
834.31	24.473
834.61	24.473
834.91	24.753
835.21	24.726
835.51	24.358
835.81	24.205
836.11	24.015
836.40	23.638
836.70	23.309
837.00	22.594
837.30	21.614
837.60	22.017
837.90	21.812
838.19	21.684
838.49	21.646
838.79	21.642
839.09	21.514
839.39	21.337
839.68	21.729
839.98	21.945
840.28	22.044
840.58	23.158
840.88	22.642
841.17	22.108
841.47	21.815
841.77	21.809
842.07	21.665
842.36	21.500
842.66	21.116
842.96	21.531
843.26	20.331
843.55	19.790
843.85	18.117
844.15	18.056
844.45	18.234
844.74	18.855
845.04	18.506
845.34	19.535
845.63	18.385
845.93	18.461
846.23	18.035
846.53	18.442
846.82	18.556
847.12	19.174
847.42	16.858
847.71	16.427
848.01	16.131
848.31	16.165
848.60	14.088
848.90	13.896
849.19	12.905
849.49	12.472
849.79	12.257
850.08	12.420
850.38	13.252
850.68	15.378
850.97	15.902
851.27	15.210
851.56	13.989
851.86	15.297
852.16	16.433
852.45	16.764
852.75	17.237
853.04	16.098
853.34	16.204
853.64	14.452
853.93	14.603
854.23	15.094
854.52	14.824
854.82	16.936
855.11	16.405
855.41	16.794
855.70	17.601
856.00	15.969
856.30	17.713
856.59	16.485
856.89	18.285
857.18	18.084
857.48	16.617
857.77	16.126
858.07	15.782
858.36	16.334
858.66	15.582
858.95	15.214
859.25	16.587
859.54	16.052
859.84	16.417
860.13	16.526
860.42	16.836
860.72	17.960
861.01	19.407
861.31	18.875
861.60	19.019
861.90	17.577
862.19	17.175
862.49	16.377
862.78	17.183
863.07	17.701
863.37	15.827
863.66	16.079
863.96	16.069
864.25	15.283
864.54	15.208
864.84	14.650
865.13	15.025
865.43	15.549
865.72	13.848
866.01	21.855
866.31	13.135
866.60	2.866
866.89	22.026
>>>>>End Spectral Data<<<<<
