OOIBase32 Version 2.0.0.6 Data File
++++++++++++++++++++++++++++++++++++
Date: 01-22-2012, 21:31:41
User: Valued Ocean Optics Customer
Spectrometer Serial Number: USB2E2917
Spectrometer Channel: Master
Integration Time (msec): 4
Spectra Averaged: 10
Boxcar Smoothing: 5
Correct for Electrical Dark: Enabled
Time Normalized: Disabled
Dual-beam Reference: Disabled
Reference Channel: Master
Temperature: Not acquired
Spectrometer Type: S2000
ADC Type: USB2000
Number of Pixels in File: 2048
Graph Title: 
>>>>>Begin Spectral Data<<<<<
180.30	0.000
180.67	0.000
181.03	26.724
181.40	55.350
181.77	-145.202
182.14	-92.946
182.51	287.800
182.88	139.164
183.25	57.498
183.62	52.879
183.99	59.916
184.36	13.586
184.73	-106.013
185.10	-1048.310
185.46	81.098
185.83	13.658
186.20	50.408
186.57	319.308
186.94	160.364
187.31	75.452
187.68	-5246.466
188.05	377.010
188.42	311.118
188.78	-30.529
189.15	46.583
189.52	39.421
189.89	7.756
190.26	23.105
190.63	29.375
191.00	23.450
191.37	-2.760
191.73	-24.171
192.10	-65.432
192.47	-91.401
192.84	-407.738
193.21	-604.466
193.58	-483.561
193.94	-372.341
194.31	-206.922
194.68	-95.100
195.05	-93.310
195.42	-99.941
195.79	-73.248
196.15	-42.910
196.52	-10.061
196.89	0.185
197.26	-8.231
197.63	-31.785
198.00	-69.285
198.36	-148.369
198.73	-253.896
199.10	-135.520
199.47	-42.378
199.84	-11.981
200.20	-43.666
200.57	-39.107
200.94	-9.656
201.31	14.536
201.68	23.296
202.04	29.994
202.41	26.931
202.78	27.180
203.15	23.669
203.51	25.540
203.88	24.355
204.25	19.581
204.62	20.734
204.98	19.858
205.35	-12.507
205.72	-52.331
206.09	-124.531
206.46	-76.757
206.82	-104.824
207.19	-94.938
207.56	-91.666
207.92	-113.010
208.29	-88.182
208.66	-81.080
209.03	-94.088
209.39	-44.947
209.76	-36.111
210.13	-8.011
210.50	-14.193
210.86	-45.002
211.23	-73.661
211.60	-113.613
211.96	-134.924
212.33	-244.844
212.70	8145.862
213.07	692.371
213.43	623.254
213.80	1637.271
214.17	300.403
214.53	1500.473
214.90	-130.539
215.27	-45.742
215.63	-88.431
216.00	-35.887
216.37	-21.418
216.74	-16.284
217.10	-15.046
217.47	0.830
217.84	5.913
218.20	-5.002
218.57	-4.061
218.94	-28.780
219.30	-26.847
219.67	-10.077
220.04	-5.437
220.40	6.613
220.77	8.261
221.13	2.930
221.50	1.941
221.87	2.619
222.23	12.154
222.60	5.553
222.97	7.067
223.33	-2.929
223.70	-10.355
224.07	-14.417
224.43	-16.232
224.80	-8.676
225.16	-5.709
225.53	-4.692
225.90	-4.165
226.26	-3.732
226.63	-1.732
226.99	-1.612
227.36	0.521
227.73	1.868
228.09	1.620
228.46	3.444
228.82	2.192
229.19	2.744
229.56	0.552
229.92	0.554
230.29	-0.340
230.65	0.385
231.02	-1.405
231.38	-1.055
231.75	-1.481
232.12	-1.310
232.48	-3.121
232.85	-2.286
233.21	-2.293
233.58	1.542
233.94	2.472
234.31	4.153
234.68	1.823
235.04	5.410
235.41	5.280
235.77	4.194
236.14	5.114
236.50	7.257
236.87	7.758
237.23	7.456
237.60	4.578
237.96	2.987
238.33	1.935
238.69	3.590
239.06	1.640
239.42	1.751
239.79	1.959
240.15	1.708
240.52	0.780
240.88	0.410
241.25	-0.269
241.61	-0.392
241.98	0.197
242.34	0.420
242.71	-0.300
243.07	0.527
243.44	0.709
243.80	1.067
244.17	0.752
244.53	0.645
244.90	0.797
245.26	1.283
245.63	1.619
245.99	1.567
246.36	1.472
246.72	1.516
247.09	1.461
247.45	1.591
247.81	1.745
248.18	2.229
248.54	2.448
248.91	2.062
249.27	1.349
249.64	1.339
250.00	1.325
250.36	1.672
250.73	1.207
251.09	0.812
251.46	0.230
251.82	-0.138
252.19	-0.285
252.55	-0.235
252.91	0.344
253.28	0.963
253.64	1.037
254.01	1.085
254.37	1.323
254.73	2.069
255.10	2.199
255.46	2.223
255.83	1.935
256.19	1.839
256.55	1.778
256.92	1.771
257.28	1.717
257.65	1.804
258.01	1.692
258.37	1.555
258.74	1.580
259.10	2.084
259.46	2.050
259.83	2.253
260.19	2.150
260.55	2.142
260.92	2.086
261.28	2.024
261.64	2.073
262.01	2.069
262.37	1.825
262.73	1.382
263.10	0.395
263.46	0.851
263.82	0.833
264.19	0.706
264.55	0.945
264.91	1.141
265.28	1.602
265.64	1.260
266.00	1.333
266.37	1.661
266.73	2.233
267.09	2.414
267.46	1.777
267.82	1.857
268.18	2.140
268.54	1.933
268.91	2.080
269.27	1.669
269.63	1.595
270.00	1.806
270.36	1.726
270.72	1.292
271.08	1.238
271.45	1.634
271.81	1.808
272.17	1.957
272.53	2.200
272.90	2.176
273.26	2.328
273.62	2.679
273.98	2.733
274.35	2.810
274.71	2.892
275.07	3.140
275.43	3.246
275.80	3.178
276.16	3.006
276.52	2.860
276.88	2.674
277.25	2.369
277.61	2.299
277.97	2.243
278.33	2.241
278.69	2.416
279.06	2.038
279.42	1.996
279.78	1.959
280.14	1.865
280.50	2.006
280.87	1.902
281.23	2.164
281.59	2.244
281.95	2.064
282.31	1.952
282.68	2.043
283.04	2.020
283.40	1.651
283.76	1.614
284.12	1.704
284.48	1.598
284.85	1.729
285.21	1.766
285.57	1.749
285.93	1.912
286.29	1.802
286.65	1.659
287.02	1.792
287.38	2.024
287.74	1.940
288.10	1.833
288.46	1.685
288.82	1.708
289.18	1.500
289.54	1.230
289.91	1.125
290.27	1.284
290.63	1.396
290.99	1.364
291.35	1.384
291.71	1.502
292.07	1.548
292.43	1.572
292.79	1.465
293.16	1.608
293.52	1.769
293.88	1.697
294.24	1.811
294.60	1.781
294.96	1.725
295.32	1.666
295.68	1.492
296.04	1.552
296.40	1.522
296.76	1.485
297.12	1.660
297.49	1.790
297.85	2.063
298.21	2.089
298.57	2.116
298.93	2.337
299.29	2.569
299.65	2.859
300.01	2.801
300.37	3.009
300.73	3.174
301.09	3.135
301.45	2.977
301.81	2.809
302.17	2.752
302.53	2.535
302.89	2.371
303.25	2.266
303.61	2.034
303.97	2.065
304.33	2.056
304.69	2.283
305.05	2.164
305.41	2.254
305.77	2.175
306.13	2.253
306.49	2.543
306.85	2.751
307.21	2.704
307.57	2.753
307.93	2.801
308.29	2.789
308.65	2.372
309.01	2.324
309.37	2.386
309.73	2.438
310.09	2.352
310.45	2.214
310.81	2.155
311.17	2.157
311.53	2.293
311.89	2.250
312.25	2.182
312.61	2.389
312.96	2.424
313.32	2.325
313.68	2.273
314.04	2.311
314.40	2.412
314.76	2.347
315.12	2.352
315.48	2.240
315.84	2.085
316.20	2.014
316.56	1.965
316.92	1.888
317.27	1.909
317.63	1.889
317.99	1.805
318.35	1.880
318.71	1.981
319.07	2.158
319.43	2.152
319.79	2.329
320.15	2.468
320.50	2.516
320.86	2.641
321.22	2.682
321.58	2.587
321.94	2.634
322.30	2.602
322.66	2.517
323.01	2.331
323.37	2.334
323.73	2.230
324.09	2.448
324.45	2.407
324.81	2.484
325.17	2.456
325.52	2.584
325.88	2.659
326.24	2.511
326.60	2.457
326.96	2.496
327.31	2.343
327.67	2.469
328.03	2.208
328.39	2.159
328.75	2.065
329.11	1.974
329.46	1.942
329.82	1.871
330.18	2.010
330.54	2.114
330.90	2.162
331.25	2.311
331.61	2.182
331.97	2.228
332.33	2.252
332.68	2.300
333.04	2.395
333.40	2.468
333.76	2.423
334.11	2.328
334.47	2.353
334.83	2.222
335.19	2.126
335.54	2.107
335.90	2.022
336.26	2.037
336.62	1.989
336.97	1.871
337.33	1.802
337.69	1.829
338.05	1.982
338.40	1.877
338.76	1.967
339.12	2.048
339.48	2.028
339.83	2.085
340.19	2.163
340.55	2.157
340.90	2.263
341.26	2.347
341.62	2.403
341.97	2.399
342.33	2.441
342.69	2.485
343.04	2.416
343.40	2.549
343.76	2.532
344.12	2.442
344.47	2.450
344.83	2.433
345.19	2.451
345.54	2.419
345.90	2.194
346.26	2.218
346.61	2.135
346.97	2.209
347.32	2.096
347.68	2.170
348.04	2.164
348.39	2.176
348.75	2.174
349.11	2.056
349.46	2.126
349.82	2.304
350.18	2.345
350.53	2.444
350.89	2.430
351.24	2.481
351.60	2.430
351.96	2.516
352.31	2.494
352.67	2.500
353.02	2.573
353.38	2.522
353.74	2.489
354.09	2.462
354.45	2.412
354.80	2.424
355.16	2.488
355.52	2.486
355.87	2.447
356.23	2.479
356.58	2.524
356.94	2.540
357.29	2.512
357.65	2.518
358.00	2.478
358.36	2.488
358.72	2.466
359.07	2.425
359.43	2.400
359.78	2.377
360.14	2.342
360.49	2.290
360.85	2.214
361.20	2.263
361.56	2.245
361.91	2.289
362.27	2.298
362.62	2.344
362.98	2.381
363.33	2.416
363.69	2.444
364.04	2.441
364.40	2.511
364.75	2.578
365.11	2.471
365.46	2.501
365.82	2.450
366.17	2.401
366.53	2.321
366.88	2.280
367.24	2.269
367.59	2.267
367.95	2.304
368.30	2.246
368.66	2.232
369.01	2.317
369.37	2.286
369.72	2.330
370.08	2.384
370.43	2.444
370.78	2.506
371.14	2.504
371.49	2.454
371.85	2.443
372.20	2.478
372.56	2.504
372.91	2.494
373.26	2.513
373.62	2.458
373.97	2.462
374.33	2.470
374.68	2.464
375.03	2.451
375.39	2.474
375.74	2.505
376.10	2.511
376.45	2.451
376.80	2.496
377.16	2.459
377.51	2.496
377.87	2.545
378.22	2.565
378.57	2.537
378.93	2.548
379.28	2.573
379.63	2.572
379.99	2.555
380.34	2.596
380.70	2.559
381.05	2.625
381.40	2.633
381.76	2.588
382.11	2.533
382.46	2.506
382.82	2.477
383.17	2.450
383.52	2.421
383.88	2.443
384.23	2.463
384.58	2.494
384.94	2.485
385.29	2.546
385.64	2.566
385.99	2.554
386.35	2.583
386.70	2.622
387.05	2.632
387.41	2.648
387.76	2.593
388.11	2.549
388.47	2.475
388.82	2.467
389.17	2.437
389.52	2.411
389.88	2.478
390.23	2.529
390.58	2.499
390.93	2.555
391.29	2.589
391.64	2.654
391.99	2.714
392.34	2.781
392.70	2.808
393.05	2.778
393.40	2.791
393.75	2.782
394.11	2.758
394.46	2.821
394.81	2.796
395.16	2.789
395.52	2.767
395.87	2.725
396.22	2.729
396.57	2.726
396.92	2.745
397.28	2.727
397.63	2.716
397.98	2.691
398.33	2.665
398.68	2.640
399.04	2.591
399.39	2.580
399.74	2.610
400.09	2.611
400.44	2.592
400.80	2.600
401.15	2.603
401.50	2.614
401.85	2.596
402.20	2.594
402.55	2.614
402.90	2.653
403.26	2.646
403.61	2.628
403.96	2.590
404.31	2.622
404.66	2.603
405.01	2.597
405.36	2.585
405.72	2.602
406.07	2.591
406.42	2.637
406.77	2.614
407.12	2.607
407.47	2.592
407.82	2.606
408.17	2.559
408.53	2.569
408.88	2.601
409.23	2.576
409.58	2.598
409.93	2.615
410.28	2.570
410.63	2.572
410.98	2.574
411.33	2.573
411.68	2.594
412.03	2.590
412.38	2.567
412.73	2.546
413.09	2.546
413.44	2.513
413.79	2.523
414.14	2.526
414.49	2.504
414.84	2.524
415.19	2.535
415.54	2.524
415.89	2.513
416.24	2.538
416.59	2.528
416.94	2.532
417.29	2.531
417.64	2.513
417.99	2.497
418.34	2.507
418.69	2.480
419.04	2.474
419.39	2.486
419.74	2.506
420.09	2.490
420.44	2.500
420.79	2.501
421.14	2.514
421.49	2.511
421.84	2.509
422.19	2.525
422.54	2.531
422.89	2.535
423.24	2.507
423.59	2.504
423.94	2.515
424.29	2.512
424.64	2.519
424.99	2.536
425.34	2.539
425.68	2.564
426.03	2.542
426.38	2.566
426.73	2.573
427.08	2.594
427.43	2.572
427.78	2.561
428.13	2.560
428.48	2.574
428.83	2.556
429.18	2.549
429.53	2.543
429.87	2.555
430.22	2.547
430.57	2.553
430.92	2.557
431.27	2.558
431.62	2.557
431.97	2.543
432.32	2.510
432.67	2.488
433.01	2.501
433.36	2.490
433.71	2.468
434.06	2.477
434.41	2.487
434.76	2.496
435.11	2.527
435.45	2.530
435.80	2.531
436.15	2.554
436.50	2.568
436.85	2.566
437.20	2.570
437.54	2.581
437.89	2.573
438.24	2.542
438.59	2.540
438.94	2.509
439.29	2.507
439.63	2.510
439.98	2.508
440.33	2.496
440.68	2.497
441.03	2.483
441.37	2.477
441.72	2.471
442.07	2.488
442.42	2.493
442.76	2.505
443.11	2.511
443.46	2.511
443.81	2.503
444.16	2.498
444.50	2.503
444.85	2.526
445.20	2.545
445.55	2.558
445.89	2.557
446.24	2.542
446.59	2.560
446.94	2.565
447.28	2.581
447.63	2.580
447.98	2.592
448.32	2.593
448.67	2.574
449.02	2.560
449.37	2.569
449.71	2.566
450.06	2.586
450.41	2.581
450.75	2.581
451.10	2.586
451.45	2.603
451.79	2.615
452.14	2.634
452.49	2.657
452.84	2.668
453.18	2.662
453.53	2.678
453.88	2.680
454.22	2.659
454.57	2.654
454.92	2.645
455.26	2.640
455.61	2.637
455.95	2.632
456.30	2.626
456.65	2.622
456.99	2.625
457.34	2.613
457.69	2.618
458.03	2.635
458.38	2.654
458.73	2.663
459.07	2.676
459.42	2.680
459.76	2.667
460.11	2.668
460.46	2.680
460.80	2.663
461.15	2.668
461.49	2.652
461.84	2.643
462.19	2.639
462.53	2.631
462.88	2.628
463.22	2.622
463.57	2.643
463.91	2.643
464.26	2.637
464.61	2.642
464.95	2.666
465.30	2.678
465.64	2.686
465.99	2.683
466.33	2.674
466.68	2.658
467.02	2.671
467.37	2.661
467.71	2.660
468.06	2.662
468.41	2.647
468.75	2.624
469.10	2.631
469.44	2.634
469.79	2.621
470.13	2.627
470.48	2.635
470.82	2.639
471.17	2.644
471.51	2.629
471.86	2.625
472.20	2.642
472.55	2.650
472.89	2.646
473.23	2.625
473.58	2.619
473.92	2.626
474.27	2.616
474.61	2.607
474.96	2.598
475.30	2.608
475.65	2.608
475.99	2.612
476.34	2.590
476.68	2.587
477.02	2.605
477.37	2.626
477.71	2.632
478.06	2.647
478.40	2.646
478.75	2.679
479.09	2.708
479.43	2.737
479.78	2.768
480.12	2.809
480.47	2.839
480.81	2.864
481.15	2.893
481.50	2.929
481.84	2.971
482.19	3.021
482.53	3.050
482.87	3.058
483.22	3.039
483.56	3.012
483.90	2.974
484.25	2.946
484.59	2.928
484.94	2.902
485.28	2.874
485.62	2.838
485.97	2.794
486.31	2.752
486.65	2.741
487.00	2.754
487.34	2.775
487.68	2.808
488.03	2.829
488.37	2.840
488.71	2.846
489.06	2.845
489.40	2.847
489.74	2.846
490.09	2.855
490.43	2.853
490.77	2.851
491.11	2.866
491.46	2.865
491.80	2.857
492.14	2.850
492.49	2.851
492.83	2.853
493.17	2.855
493.51	2.863
493.86	2.862
494.20	2.861
494.54	2.864
494.88	2.868
495.23	2.879
495.57	2.895
495.91	2.900
496.25	2.910
496.60	2.924
496.94	2.925
497.28	2.927
497.62	2.928
497.97	2.936
498.31	2.967
498.65	2.964
498.99	2.990
499.33	3.017
499.68	3.040
500.02	3.068
500.36	3.076
500.70	3.107
501.04	3.130
501.39	3.181
501.73	3.216
502.07	3.220
502.41	3.252
502.75	3.274
503.09	3.299
503.44	3.327
503.78	3.336
504.12	3.374
504.46	3.410
504.80	3.451
505.14	3.468
505.49	3.510
505.83	3.535
506.17	3.563
506.51	3.600
506.85	3.616
507.19	3.650
507.53	3.696
507.87	3.725
508.22	3.762
508.56	3.802
508.90	3.843
509.24	3.871
509.58	3.927
509.92	3.954
510.26	3.975
510.60	4.022
510.94	4.048
511.28	4.080
511.63	4.124
511.97	4.146
512.31	4.159
512.65	4.200
512.99	4.249
513.33	4.295
513.67	4.336
514.01	4.389
514.35	4.441
514.69	4.501
515.03	4.543
515.37	4.579
515.71	4.620
516.05	4.680
516.39	4.710
516.73	4.730
517.07	4.763
517.41	4.806
517.75	4.838
518.09	4.864
518.43	4.895
518.77	4.937
519.11	4.971
519.45	5.011
519.79	5.039
520.13	5.066
520.47	5.110
520.81	5.140
521.15	5.178
521.49	5.214
521.83	5.238
522.17	5.270
522.51	5.293
522.85	5.331
523.19	5.377
523.53	5.430
523.87	5.500
524.21	5.555
524.55	5.616
524.89	5.664
525.23	5.720
525.57	5.778
525.91	5.820
526.25	5.854
526.58	5.892
526.92	5.933
527.26	5.957
527.60	5.975
527.94	5.996
528.28	6.003
528.62	6.012
528.96	6.014
529.30	6.010
529.64	6.018
529.97	6.036
530.31	6.042
530.65	6.037
530.99	6.037
531.33	6.043
531.67	6.054
532.01	6.067
532.35	6.087
532.68	6.103
533.02	6.129
533.36	6.131
533.70	6.147
534.04	6.155
534.38	6.150
534.71	6.169
535.05	6.185
535.39	6.185
535.73	6.197
536.07	6.200
536.41	6.205
536.74	6.210
537.08	6.232
537.42	6.237
537.76	6.247
538.10	6.277
538.43	6.285
538.77	6.301
539.11	6.322
539.45	6.336
539.79	6.350
540.12	6.359
540.46	6.361
540.80	6.365
541.14	6.360
541.47	6.372
541.81	6.374
542.15	6.387
542.49	6.389
542.82	6.391
543.16	6.386
543.50	6.396
543.84	6.394
544.17	6.388
544.51	6.392
544.85	6.413
545.18	6.416
545.52	6.414
545.86	6.422
546.20	6.432
546.53	6.440
546.87	6.446
547.21	6.460
547.54	6.473
547.88	6.517
548.22	6.524
548.55	6.528
548.89	6.534
549.23	6.561
549.56	6.572
549.90	6.566
550.24	6.575
550.57	6.590
550.91	6.585
551.25	6.599
551.58	6.599
551.92	6.614
552.26	6.620
552.59	6.605
552.93	6.615
553.27	6.585
553.60	6.591
553.94	6.580
554.27	6.578
554.61	6.584
554.95	6.585
555.28	6.583
555.62	6.570
555.95	6.575
556.29	6.598
556.63	6.586
556.96	6.611
557.30	6.635
557.63	6.637
557.97	6.649
558.31	6.650
558.64	6.663
558.98	6.676
559.31	6.684
559.65	6.689
559.98	6.671
560.32	6.657
560.65	6.637
560.99	6.606
561.33	6.593
561.66	6.566
562.00	6.546
562.33	6.523
562.67	6.476
563.00	6.454
563.34	6.447
563.67	6.448
564.01	6.456
564.34	6.471
564.68	6.473
565.01	6.471
565.35	6.474
565.68	6.470
566.02	6.479
566.35	6.490
566.69	6.478
567.02	6.448
567.36	6.448
567.69	6.420
568.03	6.395
568.36	6.369
568.69	6.367
569.03	6.356
569.36	6.349
569.70	6.310
570.03	6.293
570.37	6.310
570.70	6.306
571.04	6.285
571.37	6.281
571.70	6.285
572.04	6.283
572.37	6.274
572.71	6.279
573.04	6.261
573.37	6.267
573.71	6.283
574.04	6.273
574.38	6.276
574.71	6.281
575.04	6.288
575.38	6.270
575.71	6.269
576.05	6.265
576.38	6.247
576.71	6.256
577.05	6.277
577.38	6.259
577.71	6.243
578.05	6.232
578.38	6.209
578.71	6.193
579.05	6.169
579.38	6.133
579.71	6.120
580.05	6.106
580.38	6.096
580.71	6.049
581.05	6.017
581.38	5.991
581.71	5.972
582.05	5.956
582.38	5.905
582.71	5.892
583.04	5.908
583.38	5.892
583.71	5.880
584.04	5.843
584.38	5.837
584.71	5.819
585.04	5.839
585.37	5.837
585.71	5.846
586.04	5.859
586.37	5.867
586.70	5.832
587.04	5.828
587.37	5.798
587.70	5.771
588.03	5.746
588.37	5.728
588.70	5.704
589.03	5.689
589.36	5.651
589.69	5.631
590.03	5.592
590.36	5.595
590.69	5.557
591.02	5.559
591.35	5.544
591.69	5.532
592.02	5.505
592.35	5.505
592.68	5.475
593.01	5.464
593.35	5.459
593.68	5.441
594.01	5.416
594.34	5.414
594.67	5.395
595.00	5.384
595.34	5.367
595.67	5.355
596.00	5.289
596.33	5.263
596.66	5.225
596.99	5.192
597.32	5.179
597.65	5.143
597.99	5.109
598.32	5.062
598.65	5.036
598.98	4.991
599.31	4.984
599.64	4.986
599.97	4.983
600.30	4.963
600.63	4.948
600.96	4.936
601.30	4.918
601.63	4.923
601.96	4.914
602.29	4.928
602.62	4.930
602.95	4.926
603.28	4.913
603.61	4.889
603.94	4.887
604.27	4.888
604.60	4.887
604.93	4.872
605.26	4.833
605.59	4.825
605.92	4.807
606.25	4.808
606.58	4.777
606.91	4.747
607.24	4.710
607.57	4.697
607.90	4.649
608.23	4.599
608.56	4.575
608.89	4.558
609.22	4.519
609.55	4.475
609.88	4.441
610.21	4.406
610.54	4.371
610.87	4.365
611.20	4.310
611.53	4.283
611.86	4.285
612.19	4.261
612.52	4.224
612.85	4.217
613.18	4.176
613.51	4.096
613.84	4.074
614.17	4.071
614.49	4.052
614.82	4.098
615.15	4.135
615.48	4.111
615.81	4.115
616.14	4.094
616.47	4.082
616.80	4.104
617.13	4.141
617.46	4.134
617.78	4.079
618.11	4.079
618.44	4.018
618.77	3.950
619.10	3.901
619.43	3.892
619.76	3.871
620.09	3.836
620.41	3.791
620.74	3.780
621.07	3.758
621.40	3.834
621.73	3.834
622.06	3.845
622.38	3.880
622.71	3.906
623.04	3.920
623.37	3.973
623.70	3.987
624.02	4.019
624.35	4.014
624.68	4.042
625.01	4.042
625.34	4.039
625.66	4.057
625.99	4.041
626.32	4.044
626.65	4.044
626.98	4.006
627.30	4.008
627.63	3.984
627.96	3.961
628.29	3.962
628.61	3.915
628.94	3.873
629.27	3.834
629.60	3.820
629.92	3.814
630.25	3.798
630.58	3.776
630.91	3.749
631.23	3.705
631.56	3.712
631.89	3.673
632.21	3.692
632.54	3.684
632.87	3.658
633.19	3.623
633.52	3.583
633.85	3.529
634.18	3.488
634.50	3.479
634.83	3.458
635.16	3.399
635.48	3.345
635.81	3.253
636.14	3.180
636.46	3.121
636.79	3.055
637.11	3.008
637.44	2.945
637.77	2.902
638.09	2.820
638.42	2.758
638.75	2.692
639.07	2.665
639.40	2.640
639.73	2.624
640.05	2.556
640.38	2.526
640.70	2.437
641.03	2.408
641.36	2.366
641.68	2.351
642.01	2.365
642.33	2.381
642.66	2.347
642.98	2.301
643.31	2.239
643.64	2.285
643.96	2.280
644.29	2.332
644.61	2.288
644.94	2.303
645.26	2.322
645.59	2.313
645.91	2.287
646.24	2.281
646.56	2.266
646.89	2.335
647.22	2.287
647.54	2.264
647.87	2.248
648.19	2.263
648.52	2.244
648.84	2.173
649.17	2.193
649.49	2.133
649.82	2.142
650.14	2.167
650.47	2.097
650.79	2.125
651.11	2.086
651.44	2.053
651.76	2.074
652.09	2.082
652.41	2.113
652.74	2.029
653.06	2.090
653.39	2.053
653.71	2.075
654.04	2.159
654.36	2.160
654.68	2.239
655.01	2.294
655.33	2.342
655.66	2.347
655.98	2.362
656.30	2.407
656.63	2.402
656.95	2.384
657.28	2.377
657.60	2.327
657.92	2.315
658.25	2.286
658.57	2.189
658.90	2.093
659.22	2.015
659.54	1.915
659.87	1.852
660.19	1.781
660.51	1.774
660.84	1.651
661.16	1.577
661.48	1.525
661.81	1.469
662.13	1.455
662.45	1.457
662.78	1.433
663.10	1.430
663.42	1.376
663.75	1.361
664.07	1.314
664.39	1.323
664.72	1.334
665.04	1.341
665.36	1.305
665.69	1.296
666.01	1.270
666.33	1.309
666.65	1.291
666.98	1.333
667.30	1.351
667.62	1.337
667.94	1.351
668.27	1.403
668.59	1.314
668.91	1.355
669.23	1.421
669.56	1.436
669.88	1.398
670.20	1.375
670.52	1.366
670.85	1.351
671.17	1.334
671.49	1.362
671.81	1.326
672.13	1.359
672.46	1.322
672.78	1.326
673.10	1.310
673.42	1.376
673.74	1.478
674.07	1.542
674.39	1.601
674.71	1.720
675.03	1.783
675.35	1.774
675.67	1.895
676.00	1.981
676.32	2.000
676.64	2.067
676.96	2.125
677.28	2.250
677.60	2.252
677.92	2.312
678.25	2.337
678.57	2.371
678.89	2.420
679.21	2.442
679.53	2.438
679.85	2.482
680.17	2.552
680.49	2.583
680.81	2.554
681.13	2.659
681.46	2.677
681.78	2.693
682.10	2.724
682.42	2.835
682.74	2.933
683.06	3.067
683.38	3.175
683.70	3.297
684.02	3.401
684.34	3.488
684.66	3.612
684.98	3.777
685.30	3.941
685.62	4.104
685.94	4.194
686.26	4.288
686.58	4.422
686.90	4.526
687.22	4.648
687.54	4.757
687.86	4.897
688.18	4.947
688.50	5.006
688.82	5.096
689.14	5.097
689.46	5.266
689.78	5.415
690.10	5.522
690.42	5.559
690.74	5.613
691.06	5.733
691.38	5.813
691.70	5.886
692.02	6.019
692.34	6.092
692.66	6.254
692.98	6.313
693.30	6.381
693.62	6.513
693.94	6.715
694.26	6.774
694.57	6.890
694.89	6.989
695.21	7.181
695.53	7.301
695.85	7.415
696.17	7.534
696.49	7.628
696.81	7.733
697.13	7.825
697.44	7.876
697.76	8.005
698.08	8.022
698.40	8.114
698.72	8.062
699.04	8.081
699.36	8.089
699.67	8.059
699.99	8.060
700.31	8.023
700.63	7.962
700.95	7.965
701.27	7.891
701.58	7.999
701.90	8.045
702.22	8.127
702.54	8.228
702.86	8.315
703.17	8.459
703.49	8.487
703.81	8.654
704.13	8.683
704.45	8.784
704.76	8.850
705.08	8.885
705.40	8.897
705.72	9.051
706.03	9.119
706.35	9.328
706.67	9.436
706.99	9.561
707.30	9.585
707.62	9.677
707.94	9.796
708.26	9.914
708.57	9.926
708.89	10.024
709.21	10.066
709.53	10.023
709.84	9.990
710.16	9.966
710.48	10.115
710.79	10.130
711.11	10.256
711.43	10.325
711.74	10.392
712.06	10.551
712.38	10.606
712.69	10.713
713.01	10.890
713.33	11.021
713.64	11.215
713.96	11.256
714.28	11.397
714.59	11.558
714.91	11.636
715.23	11.812
715.54	11.859
715.86	11.962
716.17	12.028
716.49	12.014
716.81	12.060
717.12	12.041
717.44	12.085
717.76	12.099
718.07	12.017
718.39	12.015
718.70	12.024
719.02	11.957
719.33	11.885
719.65	11.803
719.97	11.994
720.28	11.968
720.60	12.027
720.91	12.035
721.23	11.946
721.54	11.969
721.86	12.094
722.17	12.113
722.49	12.328
722.81	12.451
723.12	12.554
723.44	12.501
723.75	12.496
724.07	12.471
724.38	12.541
724.70	12.667
725.01	12.735
725.33	12.801
725.64	12.833
725.96	12.823
726.27	12.895
726.59	12.959
726.90	12.915
727.22	13.027
727.53	13.188
727.84	13.226
728.16	13.250
728.47	13.327
728.79	13.288
729.10	13.265
729.42	13.182
729.73	13.117
730.05	13.095
730.36	13.029
730.67	13.006
730.99	12.816
731.30	12.767
731.62	12.822
731.93	12.748
732.24	12.627
732.56	12.593
732.87	12.567
733.19	12.547
733.50	12.559
733.81	12.653
734.13	12.511
734.44	12.537
734.76	12.504
735.07	12.431
735.38	12.332
735.70	12.228
736.01	12.177
736.32	12.299
736.64	12.288
736.95	12.214
737.26	12.259
737.58	12.416
737.89	12.379
738.20	12.296
738.52	12.136
738.83	12.073
739.14	12.088
739.45	12.083
739.77	11.878
740.08	11.743
740.39	11.609
740.71	11.528
741.02	11.405
741.33	11.376
741.64	11.272
741.96	11.289
742.27	11.294
742.58	11.273
742.90	11.213
743.21	11.311
743.52	11.572
743.83	11.594
744.14	11.349
744.46	11.274
744.77	11.273
745.08	11.244
745.39	11.407
745.71	11.596
746.02	11.554
746.33	11.693
746.64	11.748
746.95	11.477
747.27	11.477
747.58	11.706
747.89	11.838
748.20	11.747
748.51	11.851
748.82	11.835
749.14	11.713
749.45	11.760
749.76	11.701
750.07	11.726
750.38	11.743
750.69	11.769
751.01	11.840
751.32	11.655
751.63	11.659
751.94	11.757
752.25	11.664
752.56	11.533
752.87	11.724
753.18	11.575
753.49	11.541
753.81	11.598
754.12	11.684
754.43	11.685
754.74	11.825
755.05	12.124
755.36	12.181
755.67	12.475
755.98	12.880
756.29	12.896
756.60	13.244
756.91	13.508
757.22	13.881
757.53	14.161
757.84	14.352
758.15	14.731
758.46	14.889
758.77	15.141
759.09	15.221
759.40	15.393
759.71	15.639
760.02	15.792
760.33	15.781
760.64	15.851
760.95	15.855
761.26	15.869
761.57	15.730
761.88	15.699
762.18	15.594
762.49	15.591
762.80	15.511
763.11	15.423
763.42	15.316
763.73	15.149
764.04	14.936
764.35	14.794
764.66	14.652
764.97	14.563
765.28	14.291
765.59	14.137
765.90	13.794
766.21	13.572
766.52	13.191
766.83	12.837
767.14	12.682
767.44	12.541
767.75	12.408
768.06	12.160
768.37	12.073
768.68	12.049
768.99	11.982
769.30	11.937
769.61	11.604
769.91	11.463
770.22	11.417
770.53	11.446
770.84	11.206
771.15	10.967
771.46	10.918
771.77	10.599
772.07	10.491
772.38	10.268
772.69	10.320
773.00	10.194
773.31	10.329
773.61	10.284
773.92	10.371
774.23	10.468
774.54	10.221
774.85	10.327
775.15	10.395
775.46	10.349
775.77	10.555
776.08	10.369
776.39	10.524
776.69	10.379
777.00	10.419
777.31	10.533
777.62	10.631
777.92	11.313
778.23	11.085
778.54	11.056
778.85	11.112
779.15	11.064
779.46	11.245
779.77	11.344
780.07	11.522
780.38	11.482
780.69	11.139
781.00	11.047
781.30	10.654
781.61	10.943
781.92	11.157
782.22	11.162
782.53	11.166
782.84	11.074
783.14	11.115
783.45	11.192
783.76	11.318
784.06	11.345
784.37	11.755
784.68	12.033
784.98	12.039
785.29	12.253
785.60	12.559
785.90	12.744
786.21	13.060
786.51	13.380
786.82	13.499
787.13	13.753
787.43	13.899
787.74	13.892
788.04	13.681
788.35	13.640
788.66	13.325
788.96	13.189
789.27	12.965
789.57	12.864
789.88	12.577
790.19	12.439
790.49	12.406
790.80	12.525
791.10	12.511
791.41	12.754
791.71	12.896
792.02	13.108
792.32	13.149
792.63	13.300
792.93	13.154
793.24	13.285
793.54	13.634
793.85	13.580
794.15	13.381
794.46	13.445
794.76	13.414
795.07	13.300
795.37	13.304
795.68	13.513
795.98	13.681
796.29	14.107
796.59	13.946
796.90	13.801
797.20	13.748
797.51	14.237
797.81	14.165
798.12	14.290
798.42	14.601
798.72	14.857
799.03	15.020
799.33	15.062
799.64	14.794
799.94	14.928
800.25	14.831
800.55	14.899
800.85	14.513
801.16	14.607
801.46	14.219
801.77	14.201
802.07	14.266
802.37	14.181
802.68	14.178
802.98	14.522
803.28	14.636
803.59	14.884
803.89	14.919
804.20	15.288
804.50	15.181
804.80	15.659
805.11	15.359
805.41	15.224
805.71	14.962
806.02	14.709
806.32	14.426
806.62	14.351
806.93	14.479
807.23	14.528
807.53	14.743
807.83	15.103
808.14	15.123
808.44	15.623
808.74	15.881
809.05	16.211
809.35	16.617
809.65	17.150
809.95	17.465
810.26	17.525
810.56	17.845
810.86	17.460
811.16	17.426
811.47	17.761
811.77	17.671
812.07	17.408
812.37	17.344
812.68	17.615
812.98	17.491
813.28	17.765
813.58	17.813
813.88	17.503
814.19	18.420
814.49	18.663
814.79	19.047
815.09	19.001
815.39	19.397
815.70	19.772
816.00	19.530
816.30	19.504
816.60	19.078
816.90	18.789
817.20	19.397
817.50	19.139
817.81	19.205
818.11	19.082
818.41	19.423
818.71	19.505
819.01	19.389
819.31	19.486
819.61	19.630
819.92	19.787
820.22	19.988
820.52	19.921
820.82	19.909
821.12	19.872
821.42	19.831
821.72	19.772
822.02	19.693
822.32	19.760
822.62	19.708
822.92	19.678
823.22	19.582
823.52	19.519
823.83	19.459
824.13	19.389
824.43	19.337
824.73	19.357
825.03	19.297
825.33	19.387
825.63	19.204
825.93	19.213
826.23	19.066
826.53	19.106
826.83	19.109
827.13	19.119
827.43	19.100
827.73	19.211
828.03	19.091
828.33	19.206
828.63	19.055
828.93	19.336
829.23	19.401
829.53	19.501
829.83	19.631
830.13	19.467
830.42	19.564
830.72	19.470
831.02	19.354
831.32	19.483
831.62	19.316
831.92	19.424
832.22	19.204
832.52	19.359
832.82	19.462
833.12	19.218
833.42	19.240
833.72	19.061
834.01	19.044
834.31	18.724
834.61	18.694
834.91	18.752
835.21	18.561
835.51	18.401
835.81	17.792
836.11	17.341
836.40	17.244
836.70	16.742
837.00	16.510
837.30	16.639
837.60	17.233
837.90	17.122
838.19	17.188
838.49	17.459
838.79	17.689
839.09	17.884
839.39	18.028
839.68	17.855
839.98	17.958
840.28	18.403
840.58	17.948
840.88	17.439
841.17	17.175
841.47	17.080
841.77	16.465
842.07	16.515
842.36	16.408
842.66	16.123
842.96	16.075
843.26	16.281
843.55	15.832
843.85	15.382
844.15	14.805
844.45	14.268
844.74	14.207
845.04	15.223
845.34	15.335
845.63	15.610
845.93	16.549
846.23	17.673
846.53	17.299
846.82	16.318
847.12	16.725
847.42	16.641
847.71	18.202
848.01	17.534
848.31	17.093
848.60	17.115
848.90	17.315
849.19	17.010
849.49	15.619
849.79	15.773
850.08	17.380
850.38	17.214
850.68	17.276
850.97	16.541
851.27	15.648
851.56	14.879
851.86	13.693
852.16	14.491
852.45	15.183
852.75	15.488
853.04	14.568
853.34	14.377
853.64	14.100
853.93	14.714
854.23	14.983
854.52	16.284
854.82	15.758
855.11	16.572
855.41	14.501
855.70	13.702
856.00	13.994
856.30	14.211
856.59	13.433
856.89	14.136
857.18	12.937
857.48	12.196
857.77	11.474
858.07	12.890
858.36	12.866
858.66	13.580
858.95	12.472
859.25	12.855
859.54	14.142
859.84	14.711
860.13	14.917
860.42	16.638
860.72	16.308
861.01	15.781
861.31	15.764
861.60	16.667
861.90	16.959
862.19	16.469
862.49	17.036
862.78	17.245
863.07	15.943
863.37	16.012
863.66	16.266
863.96	16.495
864.25	17.054
864.54	17.431
864.84	16.674
865.13	17.376
865.43	17.749
865.72	15.005
866.01	22.518
866.31	19.985
866.60	19.758
866.89	7.140
>>>>>End Spectral Data<<<<<
