OOIBase32 Version 2.0.0.6 Data File
++++++++++++++++++++++++++++++++++++
Date: 01-22-2012, 21:29:58
User: Valued Ocean Optics Customer
Spectrometer Serial Number: USB2E2917
Spectrometer Channel: Master
Integration Time (msec): 4
Spectra Averaged: 10
Boxcar Smoothing: 5
Correct for Electrical Dark: Enabled
Time Normalized: Disabled
Dual-beam Reference: Disabled
Reference Channel: Master
Temperature: Not acquired
Spectrometer Type: S2000
ADC Type: USB2000
Number of Pixels in File: 2048
Graph Title: 
>>>>>Begin Spectral Data<<<<<
180.30	0.000
180.67	0.000
181.03	-63.399
181.40	154.722
181.77	-3.941
182.14	-74.465
182.51	829.472
182.88	-132.984
183.25	221.051
183.62	-376.178
183.99	14.124
184.36	-52.815
184.73	3.038
185.10	-596.882
185.46	59.577
185.83	42.008
186.20	131.479
186.57	282.429
186.94	80.712
187.31	15.679
187.68	-2589.869
188.05	613.956
188.42	401.716
188.78	-17.134
189.15	12.607
189.52	20.731
189.89	-13.582
190.26	9.678
190.63	0.034
191.00	-1.047
191.37	19.149
191.73	51.871
192.10	58.269
192.47	43.259
192.84	-105.930
193.21	-160.892
193.58	-217.199
193.94	-146.459
194.31	-87.577
194.68	-49.646
195.05	-64.101
195.42	-81.146
195.79	-97.137
196.15	-59.231
196.52	-44.901
196.89	-40.686
197.26	-48.868
197.63	-66.390
198.00	-47.978
198.36	-95.990
198.73	-207.307
199.10	-102.726
199.47	-29.460
199.84	-3.763
200.20	-68.349
200.57	-64.302
200.94	-25.768
201.31	2.626
201.68	23.127
202.04	27.191
202.41	25.626
202.78	42.360
203.15	51.436
203.51	51.643
203.88	63.554
204.25	69.371
204.62	75.614
204.98	63.921
205.35	56.898
205.72	41.866
206.09	-3.476
206.46	12.554
206.82	-29.563
207.19	-61.326
207.56	-73.718
207.92	-114.913
208.29	-51.796
208.66	-57.667
209.03	-58.102
209.39	-7.395
209.76	-0.864
210.13	14.390
210.50	22.183
210.86	12.554
211.23	0.040
211.60	-28.417
211.96	-57.283
212.33	-169.238
212.70	5165.435
213.07	500.876
213.43	539.313
213.80	1517.639
214.17	310.165
214.53	1874.145
214.90	-184.285
215.27	-57.033
215.63	-34.187
216.00	33.311
216.37	65.109
216.74	71.612
217.10	75.491
217.47	67.886
217.84	64.396
218.20	58.185
218.57	64.551
218.94	53.251
219.30	32.636
219.67	23.820
220.04	19.938
220.40	10.197
220.77	-4.315
221.13	-9.507
221.50	10.021
221.87	9.060
222.23	19.114
222.60	15.411
222.97	12.213
223.33	6.077
223.70	0.009
224.07	0.084
224.43	-1.749
224.80	3.499
225.16	0.185
225.53	-2.069
225.90	0.874
226.26	-0.093
226.63	-2.583
226.99	-3.119
227.36	-0.789
227.73	2.065
228.09	2.308
228.46	3.712
228.82	2.518
229.19	4.888
229.56	2.734
229.92	2.458
230.29	3.461
230.65	5.309
231.02	4.961
231.38	5.281
231.75	3.320
232.12	2.577
232.48	0.632
232.85	1.912
233.21	1.058
233.58	4.403
233.94	3.975
234.31	2.753
234.68	2.199
235.04	5.615
235.41	6.403
235.77	7.245
236.14	7.867
236.50	9.799
236.87	9.996
237.23	9.270
237.60	7.125
237.96	5.714
238.33	3.659
238.69	4.148
239.06	2.441
239.42	1.521
239.79	1.602
240.15	1.956
240.52	1.540
240.88	1.077
241.25	0.591
241.61	0.506
241.98	1.068
242.34	2.028
242.71	1.788
243.07	2.281
243.44	2.958
243.80	3.151
244.17	2.430
244.53	1.870
244.90	1.811
245.26	2.404
245.63	2.812
245.99	2.742
246.36	2.598
246.72	2.505
247.09	2.463
247.45	2.324
247.81	2.314
248.18	2.903
248.54	3.184
248.91	3.041
249.27	2.553
249.64	2.584
250.00	3.029
250.36	3.091
250.73	2.583
251.09	2.216
251.46	1.504
251.82	1.092
252.19	0.498
252.55	0.847
252.91	1.708
253.28	1.895
253.64	1.342
254.01	0.688
254.37	0.897
254.73	1.794
255.10	2.013
255.46	3.044
255.83	3.372
256.19	3.371
256.55	3.443
256.92	3.037
257.28	2.845
257.65	2.882
258.01	2.844
258.37	2.782
258.74	2.561
259.10	2.815
259.46	2.546
259.83	2.693
260.19	2.867
260.55	2.843
260.92	3.033
261.28	3.022
261.64	3.119
262.01	3.189
262.37	3.190
262.73	3.085
263.10	2.381
263.46	2.471
263.82	1.596
264.19	1.197
264.55	1.190
264.91	1.386
265.28	1.997
265.64	1.723
266.00	1.587
266.37	1.864
266.73	2.442
267.09	2.738
267.46	2.659
267.82	3.261
268.18	3.427
268.54	3.233
268.91	3.278
269.27	2.782
269.63	2.681
270.00	2.780
270.36	2.652
270.72	2.365
271.08	2.400
271.45	2.445
271.81	2.384
272.17	2.574
272.53	2.695
272.90	2.545
273.26	2.572
273.62	2.806
273.98	2.984
274.35	3.043
274.71	3.078
275.07	3.216
275.43	3.243
275.80	3.195
276.16	3.062
276.52	3.070
276.88	3.027
277.25	2.929
277.61	3.022
277.97	2.748
278.33	2.619
278.69	2.739
279.06	2.501
279.42	2.510
279.78	2.418
280.14	2.151
280.50	2.053
280.87	2.112
281.23	2.185
281.59	2.292
281.95	2.487
282.31	2.542
282.68	2.622
283.04	2.609
283.40	2.322
283.76	2.294
284.12	2.436
284.48	2.402
284.85	2.211
285.21	2.419
285.57	2.351
285.93	2.383
286.29	2.167
286.65	2.020
287.02	2.152
287.38	2.370
287.74	2.431
288.10	2.373
288.46	2.406
288.82	2.478
289.18	2.145
289.54	2.081
289.91	1.891
290.27	2.137
290.63	2.223
290.99	2.138
291.35	2.158
291.71	1.979
292.07	2.200
292.43	2.316
292.79	2.485
293.16	2.788
293.52	2.773
293.88	2.991
294.24	2.853
294.60	2.930
294.96	2.928
295.32	2.996
295.68	2.904
296.04	2.838
296.40	2.637
296.76	2.470
297.12	2.475
297.49	2.485
297.85	2.466
298.21	2.465
298.57	2.348
298.93	2.382
299.29	2.317
299.65	2.563
300.01	2.427
300.37	2.629
300.73	2.727
301.09	2.645
301.45	2.624
301.81	2.666
302.17	2.795
302.53	2.881
302.89	2.818
303.25	2.767
303.61	2.873
303.97	2.932
304.33	3.037
304.69	3.209
305.05	3.281
305.41	3.471
305.77	3.388
306.13	3.511
306.49	3.561
306.85	3.822
307.21	3.771
307.57	3.537
307.93	3.631
308.29	3.657
308.65	3.453
309.01	3.337
309.37	3.262
309.73	3.247
310.09	3.108
310.45	3.064
310.81	2.916
311.17	2.939
311.53	3.015
311.89	2.920
312.25	2.846
312.61	2.928
312.96	3.169
313.32	3.197
313.68	3.084
314.04	3.075
314.40	3.004
314.76	3.034
315.12	3.096
315.48	3.179
315.84	2.996
316.20	2.830
316.56	2.827
316.92	2.488
317.27	2.577
317.63	2.664
317.99	2.676
318.35	2.717
318.71	2.859
319.07	2.920
319.43	2.808
319.79	3.080
320.15	3.283
320.50	3.421
320.86	3.580
321.22	3.499
321.58	3.471
321.94	3.526
322.30	3.723
322.66	3.676
323.01	3.690
323.37	3.847
323.73	3.742
324.09	3.822
324.45	3.749
324.81	3.818
325.17	3.783
325.52	3.906
325.88	3.964
326.24	3.776
326.60	3.737
326.96	3.836
327.31	3.640
327.67	3.778
328.03	3.706
328.39	3.658
328.75	3.755
329.11	3.893
329.46	3.958
329.82	4.088
330.18	4.290
330.54	4.411
330.90	4.356
331.25	4.517
331.61	4.430
331.97	4.404
332.33	4.491
332.68	4.427
333.04	4.446
333.40	4.504
333.76	4.485
334.11	4.429
334.47	4.430
334.83	4.401
335.19	4.445
335.54	4.504
335.90	4.549
336.26	4.557
336.62	4.535
336.97	4.509
337.33	4.520
337.69	4.463
338.05	4.528
338.40	4.473
338.76	4.575
339.12	4.585
339.48	4.544
339.83	4.505
340.19	4.583
340.55	4.600
340.90	4.676
341.26	4.671
341.62	4.686
341.97	4.644
342.33	4.664
342.69	4.620
343.04	4.560
343.40	4.614
343.76	4.601
344.12	4.588
344.47	4.591
344.83	4.566
345.19	4.588
345.54	4.622
345.90	4.628
346.26	4.637
346.61	4.528
346.97	4.572
347.32	4.572
347.68	4.700
348.04	4.689
348.39	4.705
348.75	4.656
349.11	4.548
349.46	4.508
349.82	4.483
350.18	4.510
350.53	4.609
350.89	4.579
351.24	4.649
351.60	4.576
351.96	4.595
352.31	4.620
352.67	4.601
353.02	4.707
353.38	4.782
353.74	4.786
354.09	4.758
354.45	4.732
354.80	4.745
355.16	4.760
355.52	4.784
355.87	4.762
356.23	4.785
356.58	4.839
356.94	4.847
357.29	4.854
357.65	4.831
358.00	4.840
358.36	4.906
358.72	4.900
359.07	4.852
359.43	4.840
359.78	4.886
360.14	4.900
360.49	4.915
360.85	4.836
361.20	4.803
361.56	4.912
361.91	4.995
362.27	5.027
362.62	5.122
362.98	5.171
363.33	5.244
363.69	5.312
364.04	5.337
364.40	5.365
364.75	5.442
365.11	5.498
365.46	5.461
365.82	5.384
366.17	5.378
366.53	5.356
366.88	5.419
367.24	5.424
367.59	5.356
367.95	5.397
368.30	5.455
368.66	5.501
369.01	5.514
369.37	5.558
369.72	5.618
370.08	5.598
370.43	5.637
370.78	5.667
371.14	5.696
371.49	5.779
371.85	5.838
372.20	5.898
372.56	5.947
372.91	6.030
373.26	6.099
373.62	6.083
373.97	6.194
374.33	6.233
374.68	6.246
375.03	6.290
375.39	6.256
375.74	6.263
376.10	6.332
376.45	6.413
376.80	6.458
377.16	6.457
377.51	6.578
377.87	6.638
378.22	6.709
378.57	6.778
378.93	6.837
379.28	6.962
379.63	7.044
379.99	7.049
380.34	7.068
380.70	7.115
381.05	7.202
381.40	7.250
381.76	7.352
382.11	7.391
382.46	7.420
382.82	7.512
383.17	7.576
383.52	7.638
383.88	7.691
384.23	7.757
384.58	7.865
384.94	7.961
385.29	8.099
385.64	8.138
385.99	8.283
386.35	8.433
386.70	8.539
387.05	8.613
387.41	8.719
387.76	8.814
388.11	8.881
388.47	8.920
388.82	8.983
389.17	9.066
389.52	9.158
389.88	9.229
390.23	9.308
390.58	9.337
390.93	9.476
391.29	9.591
391.64	9.723
391.99	9.842
392.34	9.953
392.70	10.073
393.05	10.130
393.40	10.213
393.75	10.303
394.11	10.388
394.46	10.554
394.81	10.632
395.16	10.691
395.52	10.764
395.87	10.886
396.22	10.980
396.57	11.093
396.92	11.173
397.28	11.260
397.63	11.325
397.98	11.436
398.33	11.539
398.68	11.657
399.04	11.749
399.39	11.823
399.74	11.936
400.09	12.057
400.44	12.172
400.80	12.317
401.15	12.417
401.50	12.553
401.85	12.628
402.20	12.706
402.55	12.800
402.90	12.907
403.26	13.058
403.61	13.132
403.96	13.249
404.31	13.352
404.66	13.438
405.01	13.592
405.36	13.732
405.72	13.885
406.07	13.986
406.42	14.125
406.77	14.272
407.12	14.409
407.47	14.545
407.82	14.692
408.17	14.766
408.53	14.887
408.88	14.972
409.23	15.058
409.58	15.180
409.93	15.348
410.28	15.449
410.63	15.576
410.98	15.670
411.33	15.775
411.68	15.872
412.03	15.977
412.38	16.098
412.73	16.224
413.09	16.300
413.44	16.350
413.79	16.386
414.14	16.454
414.49	16.465
414.84	16.501
415.19	16.540
415.54	16.538
415.89	16.562
416.24	16.573
416.59	16.581
416.94	16.642
417.29	16.669
417.64	16.697
417.99	16.720
418.34	16.778
418.69	16.791
419.04	16.850
419.39	16.926
419.74	17.008
420.09	17.077
420.44	17.141
420.79	17.192
421.14	17.262
421.49	17.360
421.84	17.426
422.19	17.511
422.54	17.630
422.89	17.717
423.24	17.799
423.59	17.909
423.94	18.031
424.29	18.144
424.64	18.270
424.99	18.442
425.34	18.571
425.68	18.751
426.03	18.918
426.38	19.080
426.73	19.232
427.08	19.380
427.43	19.505
427.78	19.568
428.13	19.672
428.48	19.748
428.83	19.771
429.18	19.829
429.53	19.885
429.87	19.898
430.22	19.902
430.57	19.934
430.92	19.966
431.27	19.973
431.62	20.009
431.97	20.042
432.32	20.101
432.67	20.180
433.01	20.223
433.36	20.286
433.71	20.352
434.06	20.436
434.41	20.477
434.76	20.562
435.11	20.613
435.45	20.676
435.80	20.731
436.15	20.742
436.50	20.714
436.85	20.724
437.20	20.682
437.54	20.683
437.89	20.711
438.24	20.729
438.59	20.705
438.94	20.719
439.29	20.747
439.63	20.730
439.98	20.758
440.33	20.805
440.68	20.821
441.03	20.860
441.37	20.895
441.72	20.899
442.07	20.922
442.42	20.928
442.76	20.953
443.11	20.939
443.46	20.959
443.81	20.962
444.16	20.962
444.50	20.983
444.85	21.024
445.20	21.065
445.55	21.078
445.89	21.121
446.24	21.189
446.59	21.255
446.94	21.347
447.28	21.457
447.63	21.560
447.98	21.664
448.32	21.750
448.67	21.845
449.02	21.909
449.37	22.004
449.71	22.071
450.06	22.121
450.41	22.168
450.75	22.195
451.10	22.199
451.45	22.226
451.79	22.296
452.14	22.387
452.49	22.419
452.84	22.469
453.18	22.539
453.53	22.557
453.88	22.596
454.22	22.619
454.57	22.620
454.92	22.648
455.26	22.639
455.61	22.595
455.95	22.540
456.30	22.515
456.65	22.512
456.99	22.483
457.34	22.490
457.69	22.512
458.03	22.523
458.38	22.577
458.73	22.633
459.07	22.693
459.42	22.781
459.76	22.888
460.11	23.001
460.46	23.085
460.80	23.197
461.15	23.347
461.49	23.442
461.84	23.568
462.19	23.676
462.53	23.744
462.88	23.836
463.22	23.903
463.57	23.974
463.91	24.044
464.26	24.106
464.61	24.160
464.95	24.222
465.30	24.295
465.64	24.344
465.99	24.401
466.33	24.491
466.68	24.537
467.02	24.577
467.37	24.630
467.71	24.636
468.06	24.704
468.41	24.743
468.75	24.770
469.10	24.815
469.44	24.852
469.79	24.877
470.13	24.915
470.48	24.977
470.82	25.055
471.17	25.063
471.51	25.110
471.86	25.129
472.20	25.166
472.55	25.156
472.89	25.148
473.23	25.126
473.58	25.116
473.92	25.077
474.27	25.045
474.61	24.989
474.96	24.983
475.30	24.985
475.65	24.955
475.99	24.952
476.34	24.957
476.68	24.941
477.02	24.969
477.37	24.972
477.71	24.949
478.06	24.929
478.40	24.906
478.75	24.939
479.09	24.992
479.43	25.075
479.78	25.171
480.12	25.303
480.47	25.492
480.81	25.668
481.15	25.865
481.50	26.087
481.84	26.383
482.19	26.694
482.53	26.913
482.87	26.974
483.22	26.813
483.56	26.495
483.90	26.157
484.25	25.896
484.59	25.756
484.94	25.572
485.28	25.360
485.62	25.058
485.97	24.726
486.31	24.465
486.65	24.372
487.00	24.540
487.34	24.894
487.68	25.251
488.03	25.460
488.37	25.498
488.71	25.568
489.06	25.619
489.40	25.673
489.74	25.737
490.09	25.788
490.43	25.824
490.77	25.851
491.11	25.878
491.46	25.943
491.80	26.010
492.14	26.072
492.49	26.126
492.83	26.193
493.17	26.257
493.51	26.285
493.86	26.364
494.20	26.445
494.54	26.513
494.88	26.588
495.23	26.611
495.57	26.655
495.91	26.725
496.25	26.776
496.60	26.851
496.94	26.936
497.28	27.043
497.62	27.085
497.97	27.153
498.31	27.227
498.65	27.292
498.99	27.412
499.33	27.528
499.68	27.610
500.02	27.687
500.36	27.736
500.70	27.781
501.04	27.813
501.39	27.912
501.73	27.941
502.07	27.976
502.41	28.059
502.75	28.078
503.09	28.104
503.44	28.140
503.78	28.185
504.12	28.236
504.46	28.283
504.80	28.333
505.14	28.345
505.49	28.407
505.83	28.467
506.17	28.476
506.51	28.506
506.85	28.527
507.19	28.553
507.53	28.590
507.87	28.638
508.22	28.662
508.56	28.716
508.90	28.775
509.24	28.820
509.58	28.882
509.92	28.934
510.26	28.992
510.60	29.090
510.94	29.181
511.28	29.264
511.63	29.342
511.97	29.402
512.31	29.446
512.65	29.489
512.99	29.539
513.33	29.580
513.67	29.609
514.01	29.650
514.35	29.655
514.69	29.676
515.03	29.675
515.37	29.660
515.71	29.665
516.05	29.680
516.39	29.697
516.73	29.694
517.07	29.721
517.41	29.783
517.75	29.841
518.09	29.874
518.43	29.930
518.77	29.990
519.11	30.057
519.45	30.169
519.79	30.242
520.13	30.295
520.47	30.384
520.81	30.421
521.15	30.426
521.49	30.433
521.83	30.428
522.17	30.406
522.51	30.364
522.85	30.345
523.19	30.333
523.53	30.352
523.87	30.403
524.21	30.491
524.55	30.578
524.89	30.647
525.23	30.729
525.57	30.816
525.91	30.886
526.25	30.982
526.58	31.079
526.92	31.155
527.26	31.229
527.60	31.272
527.94	31.266
528.28	31.248
528.62	31.240
528.96	31.223
529.30	31.209
529.64	31.197
529.97	31.180
530.31	31.135
530.65	31.089
530.99	31.022
531.33	31.021
531.67	31.030
532.01	31.077
532.35	31.141
532.68	31.173
533.02	31.207
533.36	31.226
533.70	31.260
534.04	31.309
534.38	31.355
534.71	31.452
535.05	31.484
535.39	31.526
535.73	31.537
536.07	31.512
536.41	31.561
536.74	31.597
537.08	31.655
537.42	31.681
537.76	31.694
538.10	31.732
538.43	31.750
538.77	31.773
539.11	31.804
539.45	31.839
539.79	31.897
540.12	31.902
540.46	31.907
540.80	31.911
541.14	31.923
541.47	31.958
541.81	31.968
542.15	31.968
542.49	32.015
542.82	32.054
543.16	32.095
543.50	32.163
543.84	32.198
544.17	32.243
544.51	32.322
544.85	32.405
545.18	32.451
545.52	32.539
545.86	32.627
546.20	32.704
546.53	32.796
546.87	32.905
547.21	32.971
547.54	33.109
547.88	33.259
548.22	33.369
548.55	33.404
548.89	33.468
549.23	33.517
549.56	33.576
549.90	33.625
550.24	33.632
550.57	33.636
550.91	33.633
551.25	33.683
551.58	33.699
551.92	33.730
552.26	33.826
552.59	33.902
552.93	34.006
553.27	34.069
553.60	34.092
553.94	34.174
554.27	34.239
554.61	34.346
554.95	34.414
555.28	34.454
555.62	34.475
555.95	34.492
556.29	34.559
556.63	34.549
556.96	34.591
557.30	34.681
557.63	34.734
557.97	34.753
558.31	34.739
558.64	34.710
558.98	34.753
559.31	34.783
559.65	34.797
559.98	34.803
560.32	34.818
560.65	34.822
560.99	34.787
561.33	34.726
561.66	34.726
562.00	34.717
562.33	34.688
562.67	34.658
563.00	34.618
563.34	34.590
563.67	34.562
564.01	34.525
564.34	34.505
564.68	34.502
565.01	34.520
565.35	34.537
565.68	34.550
566.02	34.573
566.35	34.615
566.69	34.658
567.02	34.672
567.36	34.747
567.69	34.771
568.03	34.778
568.36	34.765
568.69	34.805
569.03	34.824
569.36	34.789
569.70	34.791
570.03	34.775
570.37	34.758
570.70	34.800
571.04	34.759
571.37	34.768
571.70	34.787
572.04	34.819
572.37	34.856
572.71	34.851
573.04	34.902
573.37	34.957
573.71	35.013
574.04	35.085
574.38	35.153
574.71	35.230
575.04	35.341
575.38	35.473
575.71	35.593
576.05	35.651
576.38	35.755
576.71	35.852
577.05	35.971
577.38	36.040
577.71	36.098
578.05	36.132
578.38	36.161
578.71	36.184
579.05	36.178
579.38	36.178
579.71	36.200
580.05	36.257
580.38	36.305
580.71	36.315
581.05	36.370
581.38	36.418
581.71	36.452
582.05	36.504
582.38	36.528
582.71	36.545
583.04	36.588
583.38	36.618
583.71	36.573
584.04	36.574
584.38	36.552
584.71	36.485
585.04	36.429
585.37	36.372
585.71	36.368
586.04	36.310
586.37	36.302
586.70	36.230
587.04	36.218
587.37	36.223
587.70	36.178
588.03	36.169
588.37	36.181
588.70	36.246
589.03	36.249
589.36	36.253
589.69	36.264
590.03	36.189
590.36	36.224
590.69	36.137
591.02	36.135
591.35	36.114
591.69	36.078
592.02	36.029
592.35	35.935
592.68	35.908
593.01	35.716
593.35	35.625
593.68	35.617
594.01	35.543
594.34	35.500
594.67	35.382
595.00	35.307
595.34	35.256
595.67	35.205
596.00	35.183
596.33	35.195
596.66	35.297
596.99	35.352
597.32	35.386
597.65	35.395
597.99	35.411
598.32	35.508
598.65	35.569
598.98	35.538
599.31	35.556
599.64	35.517
599.97	35.430
600.30	35.303
600.63	35.224
600.96	35.135
601.30	35.052
601.63	34.997
601.96	34.884
602.29	34.809
602.62	34.787
602.95	34.735
603.28	34.746
603.61	34.703
603.94	34.708
604.27	34.722
604.60	34.723
604.93	34.781
605.26	34.799
605.59	34.813
605.92	34.862
606.25	34.875
606.58	34.891
606.91	34.806
607.24	34.808
607.57	34.845
607.90	34.837
608.23	34.792
608.56	34.725
608.89	34.757
609.22	34.773
609.55	34.780
609.88	34.821
610.21	34.870
610.54	34.935
610.87	34.981
611.20	35.005
611.53	35.019
611.86	35.138
612.19	35.200
612.52	35.191
612.85	35.214
613.18	35.172
613.51	35.105
613.84	35.099
614.17	35.117
614.49	35.056
614.82	35.030
615.15	35.060
615.48	34.952
615.81	34.964
616.14	34.915
616.47	34.889
616.80	34.860
617.13	34.891
617.46	34.870
617.78	34.803
618.11	34.849
618.44	34.803
618.77	34.730
619.10	34.690
619.43	34.616
619.76	34.584
620.09	34.593
620.41	34.548
620.74	34.457
621.07	34.348
621.40	34.368
621.73	34.295
622.06	34.204
622.38	34.137
622.71	34.040
623.04	33.956
623.37	33.893
623.70	33.769
624.02	33.664
624.35	33.557
624.68	33.540
625.01	33.421
625.34	33.344
625.66	33.325
625.99	33.272
626.32	33.321
626.65	33.333
626.98	33.334
627.30	33.366
627.63	33.428
627.96	33.466
628.29	33.444
628.61	33.455
628.94	33.497
629.27	33.496
629.60	33.487
629.92	33.463
630.25	33.396
630.58	33.320
630.91	33.207
631.23	33.133
631.56	33.106
631.89	33.024
632.21	32.997
632.54	32.929
632.87	32.879
633.19	32.822
633.52	32.725
633.85	32.677
634.18	32.699
634.50	32.668
634.83	32.650
635.16	32.614
635.48	32.599
635.81	32.552
636.14	32.489
636.46	32.458
636.79	32.450
637.11	32.459
637.44	32.513
637.77	32.513
638.09	32.508
638.42	32.473
638.75	32.426
639.07	32.399
639.40	32.387
639.73	32.409
640.05	32.319
640.38	32.280
640.70	32.219
641.03	32.129
641.36	32.025
641.68	31.990
642.01	31.968
642.33	31.935
642.66	31.877
642.98	31.793
643.31	31.695
643.64	31.751
643.96	31.708
644.29	31.649
644.61	31.571
644.94	31.575
645.26	31.602
645.59	31.559
645.91	31.584
646.24	31.553
646.56	31.523
646.89	31.496
647.22	31.352
647.54	31.335
647.87	31.332
648.19	31.342
648.52	31.267
648.84	31.097
649.17	31.011
649.49	30.820
649.82	30.775
650.14	30.714
650.47	30.622
650.79	30.636
651.11	30.530
651.44	30.455
651.76	30.394
652.09	30.338
652.41	30.341
652.74	30.272
653.06	30.250
653.39	30.139
653.71	30.128
654.04	30.062
654.36	29.965
654.68	29.902
655.01	29.866
655.33	29.800
655.66	29.598
655.98	29.514
656.30	29.454
656.63	29.374
656.95	29.332
657.28	29.176
657.60	29.156
657.92	29.100
658.25	29.059
658.57	28.924
658.90	28.830
659.22	28.896
659.54	28.816
659.87	28.817
660.19	28.791
660.51	28.770
660.84	28.732
661.16	28.705
661.48	28.663
661.81	28.585
662.13	28.596
662.45	28.608
662.78	28.527
663.10	28.550
663.42	28.423
663.75	28.415
664.07	28.349
664.39	28.408
664.72	28.317
665.04	28.258
665.36	28.212
665.69	28.177
666.01	28.085
666.33	27.994
666.65	27.880
666.98	27.882
667.30	27.811
667.62	27.735
667.94	27.625
668.27	27.583
668.59	27.605
668.91	27.579
669.23	27.587
669.56	27.538
669.88	27.537
670.20	27.519
670.52	27.501
670.85	27.479
671.17	27.472
671.49	27.401
671.81	27.346
672.13	27.296
672.46	27.274
672.78	27.168
673.10	27.099
673.42	26.984
673.74	26.934
674.07	26.855
674.39	26.777
674.71	26.698
675.03	26.670
675.35	26.547
675.67	26.394
676.00	26.287
676.32	26.168
676.64	26.084
676.96	26.109
677.28	26.042
677.60	25.921
677.92	25.862
678.25	25.770
678.57	25.772
678.89	25.766
679.21	25.751
679.53	25.704
679.85	25.724
680.17	25.738
680.49	25.633
680.81	25.604
681.13	25.650
681.46	25.643
681.78	25.633
682.10	25.594
682.42	25.620
682.74	25.640
683.06	25.675
683.38	25.617
683.70	25.601
684.02	25.679
684.34	25.711
684.66	25.742
684.98	25.737
685.30	25.766
685.62	25.733
685.94	25.700
686.26	25.657
686.58	25.637
686.90	25.610
687.22	25.558
687.54	25.491
687.86	25.419
688.18	25.320
688.50	25.256
688.82	25.240
689.14	25.141
689.46	25.087
689.78	24.975
690.10	24.894
690.42	24.810
690.74	24.693
691.06	24.611
691.38	24.578
691.70	24.428
692.02	24.345
692.34	24.260
692.66	24.214
692.98	24.092
693.30	24.061
693.62	23.961
693.94	23.942
694.26	23.836
694.57	23.768
694.89	23.593
695.21	23.560
695.53	23.475
695.85	23.381
696.17	23.351
696.49	23.285
696.81	23.298
697.13	23.279
697.44	23.232
697.76	23.268
698.08	23.239
698.40	23.215
698.72	23.132
699.04	23.073
699.36	23.019
699.67	22.818
699.99	22.712
700.31	22.589
700.63	22.417
700.95	22.290
701.27	22.130
701.58	21.979
701.90	21.987
702.22	22.017
702.54	22.004
702.86	21.940
703.17	22.003
703.49	22.065
703.81	22.045
704.13	22.052
704.45	22.045
704.76	21.999
705.08	22.020
705.40	21.872
705.72	21.828
706.03	21.832
706.35	21.875
706.67	21.745
706.99	21.700
707.30	21.669
707.62	21.708
707.94	21.704
708.26	21.715
708.57	21.673
708.89	21.776
709.21	21.814
709.53	21.801
709.84	21.685
710.16	21.768
710.48	21.791
710.79	21.620
711.11	21.506
711.43	21.502
711.74	21.472
712.06	21.473
712.38	21.381
712.69	21.326
713.01	21.295
713.33	21.288
713.64	21.277
713.96	21.227
714.28	21.395
714.59	21.487
714.91	21.568
715.23	21.657
715.54	21.599
715.86	21.687
716.17	21.684
716.49	21.546
716.81	21.490
717.12	21.404
717.44	21.402
717.76	21.302
718.07	21.219
718.39	21.013
718.70	20.920
719.02	20.877
719.33	20.751
719.65	20.690
719.97	20.788
720.28	20.855
720.60	20.954
720.91	20.868
721.23	20.853
721.54	20.823
721.86	20.904
722.17	20.946
722.49	21.068
722.81	21.170
723.12	21.173
723.44	21.245
723.75	21.243
724.07	21.276
724.38	21.316
724.70	21.217
725.01	21.259
725.33	21.152
725.64	21.016
725.96	20.927
726.27	20.876
726.59	20.819
726.90	20.699
727.22	20.719
727.53	20.668
727.84	20.558
728.16	20.594
728.47	20.566
728.79	20.551
729.10	20.509
729.42	20.472
729.73	20.415
730.05	20.299
730.36	20.173
730.67	20.144
730.99	20.002
731.30	20.006
731.62	19.967
731.93	19.813
732.24	19.532
732.56	19.456
732.87	19.260
733.19	19.150
733.50	19.226
733.81	19.248
734.13	19.010
734.44	19.015
734.76	18.887
735.07	18.621
735.38	18.545
735.70	18.557
736.01	18.591
736.32	18.659
736.64	18.604
736.95	18.423
737.26	18.390
737.58	18.453
737.89	18.408
738.20	18.293
738.52	18.247
738.83	18.287
739.14	18.449
739.45	18.361
739.77	18.195
740.08	17.915
740.39	17.768
740.71	17.611
741.02	17.426
741.33	17.214
741.64	17.074
741.96	17.213
742.27	17.072
742.58	16.953
742.90	16.803
743.21	16.744
743.52	16.872
743.83	16.812
744.14	16.582
744.46	16.392
744.77	16.544
745.08	16.678
745.39	16.514
745.71	16.513
746.02	16.485
746.33	16.490
746.64	16.614
746.95	16.503
747.27	16.460
747.58	16.697
747.89	16.936
748.20	16.731
748.51	16.652
748.82	16.599
749.14	16.437
749.45	16.388
749.76	16.478
750.07	16.429
750.38	16.396
750.69	16.535
751.01	16.527
751.32	16.391
751.63	16.320
751.94	16.537
752.25	16.630
752.56	16.607
752.87	16.738
753.18	16.652
753.49	16.509
753.81	16.455
754.12	16.474
754.43	16.315
754.74	16.394
755.05	16.666
755.36	16.473
755.67	16.702
755.98	17.149
756.29	17.158
756.60	17.289
756.91	17.753
757.22	18.203
757.53	18.353
757.84	18.644
758.15	18.897
758.46	18.984
758.77	19.427
759.09	19.464
759.40	19.528
759.71	19.677
760.02	19.926
760.33	19.879
760.64	19.846
760.95	20.011
761.26	20.066
761.57	19.974
761.88	19.986
762.18	19.880
762.49	19.898
762.80	19.815
763.11	19.669
763.42	19.501
763.73	19.369
764.04	19.229
764.35	18.887
764.66	18.680
764.97	18.609
765.28	18.315
765.59	17.951
765.90	17.669
766.21	17.387
766.52	17.071
766.83	16.781
767.14	16.404
767.44	16.016
767.75	15.875
768.06	15.734
768.37	15.396
768.68	15.386
768.99	15.320
769.30	15.055
769.61	14.927
769.91	14.812
770.22	14.757
770.53	14.689
770.84	14.754
771.15	14.627
771.46	14.514
771.77	14.399
772.07	14.204
772.38	14.315
772.69	14.295
773.00	14.053
773.31	14.328
773.61	14.045
773.92	14.318
774.23	14.313
774.54	14.172
774.85	14.068
775.15	14.080
775.46	13.917
775.77	13.628
776.08	13.550
776.39	13.671
776.69	13.373
777.00	13.434
777.31	13.306
777.62	13.388
777.92	13.673
778.23	13.604
778.54	13.792
778.85	14.057
779.15	14.209
779.46	14.121
779.77	14.091
780.07	14.059
780.38	14.030
780.69	13.834
781.00	13.888
781.30	13.680
781.61	13.854
781.92	13.700
782.22	13.565
782.53	13.478
782.84	13.615
783.14	13.595
783.45	13.696
783.76	13.853
784.06	14.071
784.37	14.198
784.68	14.557
784.98	14.514
785.29	14.764
785.60	14.898
785.90	15.331
786.21	15.475
786.51	15.801
786.82	15.899
787.13	15.974
787.43	15.997
787.74	15.965
788.04	15.937
788.35	16.015
788.66	15.897
788.96	15.659
789.27	15.298
789.57	15.315
789.88	15.233
790.19	15.300
790.49	15.296
790.80	15.329
791.10	15.504
791.41	15.588
791.71	15.501
792.02	15.562
792.32	15.795
792.63	15.807
792.93	15.808
793.24	15.806
793.54	15.832
793.85	15.875
794.15	15.803
794.46	15.713
794.76	15.688
795.07	15.958
795.37	15.879
795.68	16.101
795.98	16.350
796.29	16.534
796.59	16.331
796.90	16.421
797.20	16.320
797.51	16.304
797.81	16.283
798.12	16.338
798.42	16.125
798.72	16.325
799.03	16.333
799.33	16.522
799.64	16.329
799.94	16.763
800.25	16.323
800.55	16.581
800.85	16.402
801.16	16.363
801.46	16.134
801.77	16.360
802.07	16.256
802.37	16.293
802.68	16.277
802.98	16.688
803.28	16.359
803.59	16.902
803.89	17.001
804.20	17.336
804.50	17.188
804.80	17.227
805.11	16.904
805.41	16.881
805.71	16.562
806.02	15.991
806.32	15.401
806.62	15.613
806.93	15.504
807.23	15.193
807.53	15.208
807.83	15.642
808.14	15.808
808.44	16.093
808.74	16.299
809.05	16.737
809.35	17.024
809.65	17.202
809.95	17.077
810.26	17.006
810.56	17.161
810.86	17.053
811.16	16.993
811.47	17.316
811.77	17.461
812.07	17.445
812.37	17.149
812.68	17.826
812.98	18.099
813.28	18.379
813.58	19.059
813.88	19.078
814.19	20.042
814.49	20.294
814.79	20.102
815.09	20.118
815.39	20.222
815.70	20.565
816.00	20.174
816.30	20.055
816.60	19.813
816.90	19.519
817.20	19.731
817.50	19.242
817.81	19.193
818.11	19.312
818.41	19.246
818.71	19.424
819.01	19.506
819.31	19.553
819.61	19.754
819.92	19.948
820.22	20.133
820.52	20.132
820.82	20.187
821.12	20.229
821.42	20.198
821.72	20.261
822.02	20.231
822.32	20.184
822.62	20.205
822.92	20.125
823.22	20.054
823.52	19.919
823.83	19.899
824.13	19.864
824.43	19.721
824.73	19.848
825.03	19.842
825.33	19.856
825.63	19.798
825.93	19.778
826.23	19.662
826.53	19.700
826.83	19.629
827.13	19.578
827.43	19.500
827.73	19.594
828.03	19.284
828.33	19.304
828.63	19.031
828.93	19.249
829.23	19.208
829.53	19.308
829.83	19.136
830.13	19.200
830.42	19.169
830.72	19.107
831.02	18.946
831.32	18.992
831.62	18.875
831.92	19.002
832.22	19.020
832.52	19.027
832.82	19.196
833.12	19.175
833.42	19.246
833.72	19.260
834.01	19.234
834.31	19.074
834.61	19.113
834.91	19.063
835.21	19.073
835.51	18.590
835.81	18.170
836.11	18.029
836.40	17.866
836.70	17.405
837.00	17.321
837.30	17.545
837.60	18.181
837.90	18.399
838.19	18.032
838.49	18.328
838.79	18.453
839.09	18.598
839.39	18.393
839.68	18.323
839.98	18.405
840.28	18.222
840.58	17.800
840.88	17.393
841.17	17.042
841.47	17.882
841.77	17.692
842.07	18.046
842.36	18.532
842.66	18.369
842.96	18.487
843.26	17.572
843.55	17.034
843.85	16.448
844.15	15.949
844.45	14.938
844.74	13.829
845.04	13.591
845.34	13.913
845.63	14.329
845.93	15.196
846.23	16.739
846.53	17.641
846.82	18.062
847.12	18.731
847.42	17.832
847.71	18.863
848.01	17.644
848.31	17.814
848.60	17.380
848.90	16.670
849.19	15.591
849.49	12.878
849.79	13.045
850.08	14.296
850.38	14.150
850.68	14.890
850.97	14.873
851.27	15.580
851.56	14.940
851.86	15.009
852.16	15.650
852.45	15.614
852.75	16.877
853.04	15.965
853.34	15.974
853.64	16.010
853.93	16.411
854.23	16.387
854.52	17.638
854.82	17.061
855.11	16.808
855.41	15.588
855.70	15.524
856.00	14.272
856.30	15.347
856.59	14.028
856.89	13.894
857.18	14.103
857.48	13.712
857.77	13.548
858.07	14.755
858.36	13.715
858.66	14.138
858.95	13.551
859.25	13.643
859.54	13.889
859.84	13.355
860.13	13.784
860.42	14.404
860.72	14.908
861.01	13.744
861.31	13.810
861.60	15.208
861.90	15.180
862.19	15.347
862.49	15.790
862.78	16.501
863.07	16.968
863.37	17.557
863.66	17.506
863.96	16.904
864.25	16.869
864.54	16.363
864.84	16.374
865.13	15.658
865.43	16.296
865.72	10.174
866.01	14.591
866.31	21.803
866.60	4.653
866.89	14.088
>>>>>End Spectral Data<<<<<
