OOIBase32 Version 2.0.0.6 Data File
++++++++++++++++++++++++++++++++++++
Date: 01-22-2012, 21:30:18
User: Valued Ocean Optics Customer
Spectrometer Serial Number: USB2E2917
Spectrometer Channel: Master
Integration Time (msec): 4
Spectra Averaged: 10
Boxcar Smoothing: 5
Correct for Electrical Dark: Enabled
Time Normalized: Disabled
Dual-beam Reference: Disabled
Reference Channel: Master
Temperature: Not acquired
Spectrometer Type: S2000
ADC Type: USB2000
Number of Pixels in File: 2048
Graph Title: 
>>>>>Begin Spectral Data<<<<<
180.30	0.000
180.67	0.000
181.03	2.563
181.40	199.681
181.77	-49.978
182.14	-42.987
182.51	-230.556
182.88	104.182
183.25	120.305
183.62	284.402
183.99	72.075
184.36	33.248
184.73	-356.606
185.10	3122.898
185.46	68.026
185.83	37.694
186.20	-74.325
186.57	176.823
186.94	88.239
187.31	-33.858
187.68	3195.407
188.05	-603.392
188.42	-156.731
188.78	195.029
189.15	89.929
189.52	63.834
189.89	84.141
190.26	69.847
190.63	84.414
191.00	76.900
191.37	41.378
191.73	51.178
192.10	29.062
192.47	59.659
192.84	85.784
193.21	23.043
193.58	43.374
193.94	-166.077
194.31	-58.486
194.68	-61.462
195.05	-55.944
195.42	-50.171
195.79	-56.448
196.15	-24.128
196.52	-17.297
196.89	-18.137
197.26	-12.242
197.63	-34.825
198.00	34.903
198.36	6.814
198.73	53.115
199.10	-0.104
199.47	7.354
199.84	1.990
200.20	-33.456
200.57	-35.538
200.94	-0.014
201.31	32.005
201.68	40.606
202.04	32.763
202.41	30.259
202.78	38.028
203.15	47.585
203.51	57.247
203.88	64.907
204.25	57.744
204.62	49.062
204.98	27.389
205.35	-0.012
205.72	-0.039
206.09	-66.927
206.46	-30.572
206.82	-82.260
207.19	-108.607
207.56	-149.619
207.92	-141.747
208.29	-71.930
208.66	-43.601
209.03	-24.729
209.39	19.772
209.76	30.129
210.13	47.991
210.50	61.643
210.86	75.683
211.23	81.768
211.60	62.187
211.96	58.894
212.33	38.931
212.70	84.535
213.07	-22.618
213.43	39.568
213.80	703.593
214.17	171.731
214.53	850.030
214.90	-53.113
215.27	-13.194
215.63	-18.297
216.00	-8.266
216.37	12.382
216.74	32.793
217.10	19.583
217.47	11.498
217.84	17.157
218.20	19.740
218.57	22.308
218.94	3.337
219.30	7.866
219.67	22.220
220.04	25.943
220.40	26.633
220.77	12.438
221.13	11.922
221.50	14.097
221.87	10.630
222.23	9.546
222.60	9.011
222.97	8.363
223.33	1.855
223.70	-16.514
224.07	-18.390
224.43	-16.302
224.80	-6.283
225.16	-5.220
225.53	-5.372
225.90	-4.351
226.26	-5.050
226.63	-7.171
226.99	-4.673
227.36	-1.090
227.73	2.222
228.09	2.659
228.46	4.457
228.82	2.254
229.19	2.728
229.56	2.114
229.92	2.790
230.29	4.276
230.65	4.075
231.02	1.810
231.38	0.094
231.75	-2.112
232.12	-2.450
232.48	-4.934
232.85	-3.665
233.21	-4.116
233.58	-2.140
233.94	-2.344
234.31	-1.315
234.68	-0.700
235.04	1.635
235.41	1.432
235.77	1.802
236.14	1.757
236.50	3.052
236.87	4.109
237.23	3.682
237.60	1.566
237.96	0.257
238.33	-0.900
238.69	-0.057
239.06	-0.001
239.42	-0.096
239.79	1.211
240.15	1.498
240.52	1.538
240.88	0.808
241.25	0.660
241.61	1.025
241.98	1.695
242.34	1.841
242.71	1.926
243.07	2.168
243.44	2.739
243.80	2.760
244.17	2.195
244.53	1.703
244.90	2.244
245.26	2.885
245.63	3.141
245.99	3.060
246.36	3.238
246.72	3.044
247.09	2.930
247.45	3.229
247.81	3.109
248.18	3.876
248.54	4.725
248.91	4.584
249.27	3.962
249.64	4.006
250.00	4.566
250.36	4.499
250.73	4.434
251.09	3.878
251.46	2.783
251.82	2.737
252.19	2.399
252.55	2.306
252.91	2.439
253.28	2.999
253.64	2.837
254.01	2.253
254.37	2.570
254.73	2.929
255.10	3.404
255.46	4.018
255.83	3.774
256.19	3.863
256.55	3.355
256.92	3.127
257.28	3.048
257.65	3.107
258.01	3.046
258.37	2.876
258.74	2.798
259.10	2.859
259.46	2.665
259.83	2.799
260.19	2.690
260.55	2.760
260.92	2.683
261.28	2.705
261.64	2.768
262.01	2.710
262.37	2.559
262.73	2.305
263.10	1.912
263.46	2.169
263.82	1.812
264.19	1.464
264.55	1.477
264.91	1.772
265.28	2.051
265.64	1.895
266.00	1.776
266.37	2.227
266.73	2.736
267.09	2.781
267.46	2.168
267.82	2.602
268.18	2.796
268.54	2.866
268.91	2.892
269.27	2.515
269.63	2.208
270.00	2.367
270.36	1.999
270.72	1.770
271.08	1.857
271.45	2.090
271.81	2.033
272.17	2.236
272.53	2.250
272.90	2.106
273.26	2.159
273.62	2.648
273.98	2.857
274.35	3.024
274.71	3.005
275.07	3.196
275.43	3.346
275.80	3.459
276.16	3.525
276.52	3.363
276.88	3.367
277.25	3.027
277.61	2.731
277.97	2.571
278.33	2.520
278.69	2.665
279.06	2.542
279.42	2.519
279.78	2.285
280.14	2.070
280.50	2.229
280.87	2.341
281.23	2.553
281.59	2.760
281.95	2.789
282.31	2.822
282.68	2.727
283.04	2.606
283.40	2.351
283.76	2.369
284.12	2.513
284.48	2.438
284.85	2.372
285.21	2.406
285.57	2.417
285.93	2.362
286.29	2.167
286.65	2.254
287.02	2.551
287.38	2.856
287.74	2.896
288.10	2.674
288.46	2.682
288.82	2.605
289.18	2.357
289.54	2.231
289.91	2.088
290.27	2.470
290.63	2.542
290.99	2.328
291.35	2.243
291.71	2.105
292.07	2.178
292.43	2.164
292.79	2.328
293.16	2.775
293.52	2.783
293.88	2.921
294.24	2.788
294.60	2.818
294.96	2.919
295.32	2.994
295.68	2.878
296.04	3.035
296.40	2.949
296.76	2.844
297.12	2.829
297.49	2.901
297.85	3.124
298.21	3.136
298.57	2.971
298.93	2.924
299.29	2.887
299.65	3.181
300.01	2.907
300.37	3.171
300.73	3.344
301.09	3.333
301.45	3.254
301.81	3.211
302.17	3.143
302.53	3.109
302.89	3.038
303.25	2.896
303.61	2.776
303.97	2.929
304.33	3.010
304.69	3.171
305.05	3.281
305.41	3.392
305.77	3.371
306.13	3.582
306.49	3.736
306.85	3.920
307.21	4.101
307.57	4.113
307.93	4.071
308.29	4.016
308.65	3.764
309.01	3.574
309.37	3.406
309.73	3.361
310.09	3.223
310.45	3.235
310.81	3.135
311.17	3.042
311.53	3.009
311.89	3.012
312.25	2.995
312.61	3.029
312.96	3.085
313.32	3.294
313.68	3.249
314.04	3.240
314.40	3.135
314.76	3.194
315.12	3.163
315.48	3.206
315.84	2.952
316.20	2.828
316.56	3.010
316.92	2.924
317.27	2.889
317.63	2.930
317.99	2.885
318.35	3.080
318.71	3.199
319.07	3.468
319.43	3.417
319.79	3.565
320.15	3.668
320.50	3.711
320.86	3.882
321.22	3.842
321.58	3.812
321.94	3.885
322.30	3.901
322.66	3.756
323.01	3.652
323.37	3.852
323.73	3.875
324.09	4.078
324.45	3.958
324.81	3.988
325.17	4.137
325.52	4.274
325.88	4.328
326.24	4.223
326.60	4.339
326.96	4.338
327.31	4.057
327.67	4.219
328.03	4.059
328.39	3.986
328.75	3.989
329.11	3.843
329.46	3.856
329.82	3.901
330.18	3.965
330.54	3.991
330.90	4.012
331.25	4.261
331.61	4.218
331.97	4.231
332.33	4.287
332.68	4.363
333.04	4.523
333.40	4.492
333.76	4.468
334.11	4.503
334.47	4.553
334.83	4.554
335.19	4.545
335.54	4.466
335.90	4.418
336.26	4.410
336.62	4.473
336.97	4.440
337.33	4.447
337.69	4.508
338.05	4.609
338.40	4.583
338.76	4.680
339.12	4.668
339.48	4.727
339.83	4.724
340.19	4.845
340.55	4.695
340.90	4.633
341.26	4.717
341.62	4.634
341.97	4.587
342.33	4.549
342.69	4.628
343.04	4.672
343.40	4.810
343.76	4.867
344.12	4.900
344.47	4.945
344.83	4.996
345.19	4.969
345.54	5.005
345.90	4.985
346.26	5.044
346.61	4.862
346.97	4.904
347.32	4.785
347.68	4.839
348.04	4.761
348.39	4.792
348.75	4.815
349.11	4.773
349.46	4.775
349.82	4.793
350.18	4.787
350.53	4.904
350.89	4.882
351.24	4.936
351.60	4.923
351.96	4.970
352.31	4.902
352.67	4.915
353.02	4.933
353.38	5.004
353.74	5.022
354.09	4.870
354.45	4.780
354.80	4.755
355.16	4.829
355.52	4.826
355.87	4.797
356.23	4.851
356.58	4.787
356.94	4.822
357.29	4.831
357.65	4.810
358.00	4.928
358.36	4.991
358.72	4.953
359.07	4.882
359.43	4.864
359.78	4.957
360.14	4.944
360.49	4.944
360.85	4.950
361.20	4.936
361.56	4.921
361.91	4.951
362.27	4.947
362.62	5.028
362.98	5.109
363.33	5.181
363.69	5.185
364.04	5.221
364.40	5.284
364.75	5.256
365.11	5.250
365.46	5.279
365.82	5.209
366.17	5.194
366.53	5.138
366.88	5.155
367.24	5.175
367.59	5.075
367.95	5.092
368.30	5.085
368.66	5.114
369.01	5.170
369.37	5.185
369.72	5.257
370.08	5.320
370.43	5.339
370.78	5.352
371.14	5.283
371.49	5.313
371.85	5.353
372.20	5.392
372.56	5.431
372.91	5.412
373.26	5.409
373.62	5.387
373.97	5.407
374.33	5.407
374.68	5.392
375.03	5.419
375.39	5.399
375.74	5.371
376.10	5.402
376.45	5.414
376.80	5.397
377.16	5.371
377.51	5.359
377.87	5.366
378.22	5.377
378.57	5.337
378.93	5.342
379.28	5.401
379.63	5.396
379.99	5.357
380.34	5.359
380.70	5.409
381.05	5.462
381.40	5.511
381.76	5.528
382.11	5.542
382.46	5.560
382.82	5.576
383.17	5.552
383.52	5.551
383.88	5.568
384.23	5.576
384.58	5.553
384.94	5.573
385.29	5.591
385.64	5.566
385.99	5.600
386.35	5.663
386.70	5.661
387.05	5.705
387.41	5.713
387.76	5.676
388.11	5.611
388.47	5.599
388.82	5.625
389.17	5.615
389.52	5.610
389.88	5.612
390.23	5.615
390.58	5.608
390.93	5.641
391.29	5.703
391.64	5.771
391.99	5.850
392.34	5.878
392.70	5.852
393.05	5.860
393.40	5.858
393.75	5.866
394.11	5.801
394.46	5.766
394.81	5.754
395.16	5.714
395.52	5.725
395.87	5.671
396.22	5.673
396.57	5.676
396.92	5.670
397.28	5.676
397.63	5.633
397.98	5.675
398.33	5.722
398.68	5.679
399.04	5.661
399.39	5.622
399.74	5.624
400.09	5.606
400.44	5.588
400.80	5.582
401.15	5.595
401.50	5.648
401.85	5.653
402.20	5.636
402.55	5.671
402.90	5.667
403.26	5.652
403.61	5.644
403.96	5.675
404.31	5.706
404.66	5.737
405.01	5.728
405.36	5.749
405.72	5.743
406.07	5.770
406.42	5.783
406.77	5.816
407.12	5.859
407.47	5.913
407.82	5.902
408.17	5.869
408.53	5.872
408.88	5.877
409.23	5.832
409.58	5.853
409.93	5.871
410.28	5.856
410.63	5.835
410.98	5.820
411.33	5.782
411.68	5.786
412.03	5.797
412.38	5.751
412.73	5.753
413.09	5.727
413.44	5.676
413.79	5.638
414.14	5.635
414.49	5.611
414.84	5.578
415.19	5.543
415.54	5.491
415.89	5.441
416.24	5.430
416.59	5.397
416.94	5.397
417.29	5.366
417.64	5.346
417.99	5.313
418.34	5.291
418.69	5.266
419.04	5.251
419.39	5.252
419.74	5.243
420.09	5.222
420.44	5.204
420.79	5.178
421.14	5.170
421.49	5.159
421.84	5.143
422.19	5.131
422.54	5.132
422.89	5.129
423.24	5.116
423.59	5.123
423.94	5.131
424.29	5.137
424.64	5.159
424.99	5.194
425.34	5.204
425.68	5.218
426.03	5.251
426.38	5.268
426.73	5.275
427.08	5.292
427.43	5.303
427.78	5.302
428.13	5.300
428.48	5.299
428.83	5.265
429.18	5.247
429.53	5.264
429.87	5.251
430.22	5.234
430.57	5.262
430.92	5.242
431.27	5.233
431.62	5.229
431.97	5.212
432.32	5.196
432.67	5.209
433.01	5.238
433.36	5.211
433.71	5.210
434.06	5.235
434.41	5.215
434.76	5.240
435.11	5.258
435.45	5.269
435.80	5.267
436.15	5.275
436.50	5.253
436.85	5.245
437.20	5.223
437.54	5.212
437.89	5.203
438.24	5.179
438.59	5.171
438.94	5.137
439.29	5.119
439.63	5.115
439.98	5.085
440.33	5.077
440.68	5.045
441.03	5.051
441.37	5.025
441.72	4.981
442.07	4.983
442.42	4.957
442.76	4.964
443.11	4.940
443.46	4.921
443.81	4.913
444.16	4.906
444.50	4.899
444.85	4.886
445.20	4.892
445.55	4.886
445.89	4.857
446.24	4.845
446.59	4.827
446.94	4.841
447.28	4.857
447.63	4.867
447.98	4.858
448.32	4.855
448.67	4.853
449.02	4.846
449.37	4.863
449.71	4.889
450.06	4.906
450.41	4.921
450.75	4.900
451.10	4.893
451.45	4.882
451.79	4.902
452.14	4.896
452.49	4.907
452.84	4.901
453.18	4.885
453.53	4.887
453.88	4.889
454.22	4.863
454.57	4.877
454.92	4.868
455.26	4.857
455.61	4.843
455.95	4.851
456.30	4.855
456.65	4.852
456.99	4.872
457.34	4.870
457.69	4.866
458.03	4.862
458.38	4.869
458.73	4.896
459.07	4.923
459.42	4.935
459.76	4.956
460.11	4.977
460.46	5.010
460.80	5.018
461.15	5.048
461.49	5.076
461.84	5.130
462.19	5.158
462.53	5.175
462.88	5.185
463.22	5.202
463.57	5.222
463.91	5.239
464.26	5.275
464.61	5.313
464.95	5.357
465.30	5.391
465.64	5.417
465.99	5.456
466.33	5.488
466.68	5.513
467.02	5.556
467.37	5.579
467.71	5.587
468.06	5.610
468.41	5.607
468.75	5.602
469.10	5.638
469.44	5.657
469.79	5.657
470.13	5.643
470.48	5.669
470.82	5.680
471.17	5.689
471.51	5.701
471.86	5.694
472.20	5.703
472.55	5.686
472.89	5.669
473.23	5.658
473.58	5.636
473.92	5.639
474.27	5.618
474.61	5.604
474.96	5.583
475.30	5.570
475.65	5.567
475.99	5.576
476.34	5.571
476.68	5.542
477.02	5.518
477.37	5.506
477.71	5.489
478.06	5.476
478.40	5.468
478.75	5.486
479.09	5.505
479.43	5.517
479.78	5.547
480.12	5.590
480.47	5.639
480.81	5.686
481.15	5.744
481.50	5.806
481.84	5.875
482.19	5.955
482.53	6.013
482.87	6.028
483.22	5.997
483.56	5.936
483.90	5.866
484.25	5.813
484.59	5.795
484.94	5.748
485.28	5.699
485.62	5.645
485.97	5.572
486.31	5.517
486.65	5.504
487.00	5.557
487.34	5.633
487.68	5.722
488.03	5.793
488.37	5.816
488.71	5.865
489.06	5.905
489.40	5.937
489.74	5.974
490.09	6.025
490.43	6.069
490.77	6.106
491.11	6.163
491.46	6.223
491.80	6.265
492.14	6.323
492.49	6.383
492.83	6.439
493.17	6.517
493.51	6.601
493.86	6.672
494.20	6.766
494.54	6.858
494.88	6.947
495.23	7.033
495.57	7.134
495.91	7.246
496.25	7.357
496.60	7.468
496.94	7.584
497.28	7.716
497.62	7.853
497.97	8.013
498.31	8.168
498.65	8.324
498.99	8.503
499.33	8.698
499.68	8.869
500.02	9.044
500.36	9.260
500.70	9.446
501.04	9.637
501.39	9.837
501.73	10.022
502.07	10.215
502.41	10.435
502.75	10.649
503.09	10.889
503.44	11.134
503.78	11.414
504.12	11.660
504.46	11.928
504.80	12.197
505.14	12.449
505.49	12.714
505.83	12.989
506.17	13.248
506.51	13.526
506.85	13.776
507.19	14.053
507.53	14.314
507.87	14.600
508.22	14.895
508.56	15.209
508.90	15.526
509.24	15.850
509.58	16.169
509.92	16.475
510.26	16.787
510.60	17.127
510.94	17.456
511.28	17.810
511.63	18.182
511.97	18.547
512.31	18.877
512.65	19.257
512.99	19.648
513.33	20.037
513.67	20.424
514.01	20.821
514.35	21.216
514.69	21.596
515.03	21.919
515.37	22.223
515.71	22.504
516.05	22.794
516.39	23.067
516.73	23.306
517.07	23.604
517.41	23.895
517.75	24.173
518.09	24.432
518.43	24.709
518.77	25.016
519.11	25.316
519.45	25.642
519.79	25.988
520.13	26.342
520.47	26.711
520.81	27.052
521.15	27.390
521.49	27.701
521.83	27.974
522.17	28.202
522.51	28.425
522.85	28.652
523.19	28.905
523.53	29.205
523.87	29.481
524.21	29.794
524.55	30.089
524.89	30.353
525.23	30.604
525.57	30.864
525.91	31.098
526.25	31.349
526.58	31.565
526.92	31.795
527.26	31.965
527.60	32.128
527.94	32.254
528.28	32.351
528.62	32.466
528.96	32.586
529.30	32.699
529.64	32.836
529.97	32.919
530.31	33.049
530.65	33.128
530.99	33.230
531.33	33.349
531.67	33.497
532.01	33.646
532.35	33.792
532.68	33.938
533.02	34.064
533.36	34.163
533.70	34.299
534.04	34.403
534.38	34.537
534.71	34.675
535.05	34.800
535.39	34.879
535.73	34.997
536.07	35.050
536.41	35.149
536.74	35.222
537.08	35.304
537.42	35.401
537.76	35.507
538.10	35.605
538.43	35.704
538.77	35.779
539.11	35.877
539.45	35.948
539.79	36.030
540.12	36.080
540.46	36.141
540.80	36.185
541.14	36.212
541.47	36.266
541.81	36.293
542.15	36.345
542.49	36.402
542.82	36.428
543.16	36.482
543.50	36.573
543.84	36.628
544.17	36.704
544.51	36.818
544.85	36.923
545.18	36.989
545.52	37.109
545.86	37.190
546.20	37.305
546.53	37.458
546.87	37.575
547.21	37.694
547.54	37.837
547.88	37.972
548.22	38.138
548.55	38.236
548.89	38.322
549.23	38.383
549.56	38.438
549.90	38.482
550.24	38.454
550.57	38.439
550.91	38.454
551.25	38.474
551.58	38.494
551.92	38.473
552.26	38.542
552.59	38.574
552.93	38.679
553.27	38.751
553.60	38.841
553.94	38.932
554.27	39.023
554.61	39.083
554.95	39.153
555.28	39.181
555.62	39.214
555.95	39.237
556.29	39.290
556.63	39.272
556.96	39.276
557.30	39.277
557.63	39.309
557.97	39.333
558.31	39.352
558.64	39.346
558.98	39.375
559.31	39.381
559.65	39.335
559.98	39.310
560.32	39.279
560.65	39.250
560.99	39.236
561.33	39.210
561.66	39.170
562.00	39.129
562.33	39.057
562.67	39.015
563.00	38.950
563.34	38.955
563.67	38.948
564.01	38.928
564.34	38.908
564.68	38.894
565.01	38.883
565.35	38.866
565.68	38.867
566.02	38.866
566.35	38.857
566.69	38.876
567.02	38.811
567.36	38.787
567.69	38.718
568.03	38.671
568.36	38.618
568.69	38.599
569.03	38.586
569.36	38.524
569.70	38.504
570.03	38.496
570.37	38.449
570.70	38.487
571.04	38.468
571.37	38.490
571.70	38.507
572.04	38.493
572.37	38.484
572.71	38.476
573.04	38.503
573.37	38.540
573.71	38.556
574.04	38.634
574.38	38.690
574.71	38.752
575.04	38.843
575.38	38.934
575.71	38.995
576.05	39.067
576.38	39.154
576.71	39.203
577.05	39.282
577.38	39.346
577.71	39.370
578.05	39.375
578.38	39.365
578.71	39.342
579.05	39.312
579.38	39.306
579.71	39.284
580.05	39.292
580.38	39.308
580.71	39.300
581.05	39.277
581.38	39.269
581.71	39.260
582.05	39.281
582.38	39.240
582.71	39.210
583.04	39.205
583.38	39.181
583.71	39.125
584.04	39.049
584.38	38.957
584.71	38.892
585.04	38.800
585.37	38.739
585.71	38.668
586.04	38.644
586.37	38.591
586.70	38.510
587.04	38.467
587.37	38.399
587.70	38.340
588.03	38.286
588.37	38.209
588.70	38.219
589.03	38.151
589.36	38.110
589.69	38.040
590.03	37.979
590.36	37.987
590.69	37.887
591.02	37.809
591.35	37.725
591.69	37.599
592.02	37.509
592.35	37.375
592.68	37.310
593.01	37.167
593.35	37.053
593.68	36.936
594.01	36.787
594.34	36.692
594.67	36.608
595.00	36.543
595.34	36.503
595.67	36.446
596.00	36.430
596.33	36.369
596.66	36.363
596.99	36.348
597.32	36.406
597.65	36.405
597.99	36.404
598.32	36.361
598.65	36.315
598.98	36.270
599.31	36.211
599.64	36.107
599.97	36.013
600.30	35.905
600.63	35.773
600.96	35.625
601.30	35.498
601.63	35.404
601.96	35.330
602.29	35.274
602.62	35.252
602.95	35.200
603.28	35.151
603.61	35.093
603.94	35.049
604.27	35.047
604.60	35.013
604.93	35.027
605.26	35.000
605.59	34.935
605.92	34.896
606.25	34.811
606.58	34.780
606.91	34.701
607.24	34.669
607.57	34.604
607.90	34.607
608.23	34.565
608.56	34.486
608.89	34.440
609.22	34.473
609.55	34.520
609.88	34.525
610.21	34.522
610.54	34.547
610.87	34.568
611.20	34.622
611.53	34.548
611.86	34.549
612.19	34.589
612.52	34.594
612.85	34.582
613.18	34.493
613.51	34.414
613.84	34.343
614.17	34.306
614.49	34.230
614.82	34.187
615.15	34.184
615.48	34.117
615.81	34.052
616.14	34.002
616.47	33.952
616.80	33.878
617.13	33.853
617.46	33.815
617.78	33.699
618.11	33.678
618.44	33.615
618.77	33.542
619.10	33.461
619.43	33.431
619.76	33.333
620.09	33.214
620.41	33.170
620.74	33.118
621.07	33.043
621.40	33.064
621.73	32.974
622.06	32.915
622.38	32.830
622.71	32.782
623.04	32.645
623.37	32.596
623.70	32.560
624.02	32.441
624.35	32.338
624.68	32.255
625.01	32.119
625.34	32.003
625.66	31.901
625.99	31.852
626.32	31.812
626.65	31.823
626.98	31.803
627.30	31.775
627.63	31.790
627.96	31.794
628.29	31.825
628.61	31.794
628.94	31.777
629.27	31.765
629.60	31.752
629.92	31.730
630.25	31.627
630.58	31.520
630.91	31.438
631.23	31.324
631.56	31.224
631.89	31.110
632.21	31.087
632.54	31.069
632.87	31.042
633.19	31.004
633.52	30.923
633.85	30.872
634.18	30.908
634.50	30.884
634.83	30.886
635.16	30.882
635.48	30.879
635.81	30.868
636.14	30.817
636.46	30.777
636.79	30.691
637.11	30.667
637.44	30.631
637.77	30.568
638.09	30.516
638.42	30.462
638.75	30.396
639.07	30.340
639.40	30.288
639.73	30.253
640.05	30.199
640.38	30.122
640.70	30.041
641.03	30.043
641.36	29.976
641.68	29.915
642.01	29.925
642.33	29.886
642.66	29.849
642.98	29.812
643.31	29.788
643.64	29.752
643.96	29.759
644.29	29.774
644.61	29.725
644.94	29.680
645.26	29.678
645.59	29.624
645.91	29.632
646.24	29.616
646.56	29.570
646.89	29.528
647.22	29.440
647.54	29.380
647.87	29.275
648.19	29.223
648.52	29.136
648.84	29.075
649.17	28.981
649.49	28.884
649.82	28.784
650.14	28.765
650.47	28.679
650.79	28.683
651.11	28.594
651.44	28.606
651.76	28.566
652.09	28.569
652.41	28.506
652.74	28.500
653.06	28.417
653.39	28.375
653.71	28.288
654.04	28.282
654.36	28.140
654.68	28.152
655.01	28.012
655.33	27.946
655.66	27.890
655.98	27.856
656.30	27.797
656.63	27.751
656.95	27.678
657.28	27.564
657.60	27.522
657.92	27.494
658.25	27.400
658.57	27.401
658.90	27.336
659.22	27.261
659.54	27.205
659.87	27.128
660.19	27.120
660.51	27.133
660.84	27.127
661.16	27.069
661.48	27.091
661.81	27.073
662.13	27.037
662.45	27.078
662.78	27.090
663.10	27.046
663.42	27.026
663.75	27.073
664.07	27.039
664.39	27.055
664.72	27.047
665.04	27.024
665.36	26.954
665.69	26.961
666.01	26.832
666.33	26.812
666.65	26.815
666.98	26.807
667.30	26.765
667.62	26.740
667.94	26.652
668.27	26.574
668.59	26.576
668.91	26.633
669.23	26.622
669.56	26.629
669.88	26.577
670.20	26.539
670.52	26.498
670.85	26.424
671.17	26.358
671.49	26.351
671.81	26.295
672.13	26.189
672.46	26.146
672.78	26.106
673.10	26.035
673.42	25.987
673.74	25.952
674.07	25.941
674.39	25.900
674.71	25.839
675.03	25.821
675.35	25.773
675.67	25.613
676.00	25.562
676.32	25.485
676.64	25.505
676.96	25.518
677.28	25.475
677.60	25.374
677.92	25.345
678.25	25.318
678.57	25.304
678.89	25.357
679.21	25.477
679.53	25.440
679.85	25.420
680.17	25.400
680.49	25.348
680.81	25.339
681.13	25.375
681.46	25.336
681.78	25.353
682.10	25.358
682.42	25.328
682.74	25.253
683.06	25.240
683.38	25.252
683.70	25.267
684.02	25.283
684.34	25.280
684.66	25.335
684.98	25.401
685.30	25.385
685.62	25.409
685.94	25.407
686.26	25.492
686.58	25.513
686.90	25.499
687.22	25.531
687.54	25.476
687.86	25.485
688.18	25.457
688.50	25.381
688.82	25.328
689.14	25.254
689.46	25.200
689.78	25.124
690.10	25.089
690.42	25.016
690.74	24.941
691.06	24.986
691.38	24.940
691.70	24.878
692.02	24.803
692.34	24.794
692.66	24.717
692.98	24.720
693.30	24.643
693.62	24.633
693.94	24.604
694.26	24.522
694.57	24.402
694.89	24.230
695.21	24.172
695.53	24.166
695.85	24.130
696.17	24.089
696.49	24.000
696.81	24.050
697.13	24.025
697.44	23.995
697.76	24.004
698.08	24.007
698.40	24.034
698.72	23.976
699.04	23.945
699.36	23.860
699.67	23.818
699.99	23.749
700.31	23.591
700.63	23.485
700.95	23.401
701.27	23.225
701.58	23.219
701.90	23.277
702.22	23.203
702.54	23.267
702.86	23.339
703.17	23.283
703.49	23.301
703.81	23.364
704.13	23.319
704.45	23.401
704.76	23.450
705.08	23.326
705.40	23.231
705.72	23.350
706.03	23.273
706.35	23.203
706.67	23.224
706.99	23.296
707.30	23.257
707.62	23.315
707.94	23.274
708.26	23.314
708.57	23.274
708.89	23.333
709.21	23.285
709.53	23.208
709.84	23.291
710.16	23.242
710.48	23.190
710.79	23.060
711.11	22.936
711.43	22.976
711.74	22.894
712.06	22.917
712.38	22.864
712.69	22.850
713.01	22.950
713.33	22.896
713.64	23.000
713.96	23.015
714.28	23.225
714.59	23.357
714.91	23.381
715.23	23.482
715.54	23.503
715.86	23.510
716.17	23.566
716.49	23.460
716.81	23.439
717.12	23.439
717.44	23.344
717.76	23.172
718.07	23.114
718.39	23.010
718.70	22.900
719.02	22.822
719.33	22.795
719.65	22.653
719.97	22.762
720.28	22.775
720.60	22.710
720.91	22.775
721.23	22.788
721.54	22.792
721.86	22.833
722.17	22.929
722.49	23.039
722.81	23.148
723.12	23.312
723.44	23.234
723.75	23.305
724.07	23.259
724.38	23.280
724.70	23.267
725.01	23.181
725.33	23.074
725.64	23.027
725.96	22.938
726.27	22.821
726.59	22.749
726.90	22.689
727.22	22.727
727.53	22.734
727.84	22.594
728.16	22.547
728.47	22.664
728.79	22.665
729.10	22.609
729.42	22.612
729.73	22.511
730.05	22.339
730.36	22.204
730.67	22.095
730.99	22.025
731.30	22.046
731.62	22.093
731.93	21.943
732.24	21.804
732.56	21.749
732.87	21.680
733.19	21.743
733.50	21.736
733.81	21.843
734.13	21.687
734.44	21.749
734.76	21.711
735.07	21.526
735.38	21.457
735.70	21.536
736.01	21.455
736.32	21.457
736.64	21.316
736.95	21.249
737.26	21.242
737.58	21.319
737.89	21.149
738.20	21.065
738.52	21.009
738.83	21.011
739.14	20.917
739.45	20.838
739.77	20.650
740.08	20.598
740.39	20.614
740.71	20.441
741.02	20.233
741.33	20.241
741.64	20.160
741.96	20.125
742.27	20.109
742.58	20.028
742.90	20.094
743.21	20.046
743.52	20.003
743.83	19.953
744.14	19.704
744.46	19.527
744.77	19.564
745.08	19.609
745.39	19.659
745.71	19.635
746.02	19.564
746.33	19.540
746.64	19.699
746.95	19.691
747.27	19.619
747.58	19.825
747.89	20.058
748.20	19.816
748.51	19.717
748.82	19.491
749.14	19.397
749.45	19.498
749.76	19.356
750.07	19.319
750.38	19.332
750.69	19.428
751.01	19.440
751.32	19.271
751.63	19.356
751.94	19.269
752.25	19.296
752.56	19.202
752.87	19.117
753.18	19.143
753.49	19.112
753.81	19.088
754.12	19.093
754.43	19.239
754.74	19.400
755.05	19.502
755.36	19.676
755.67	19.976
755.98	20.357
756.29	20.576
756.60	20.834
756.91	21.045
757.22	21.284
757.53	21.376
757.84	21.447
758.15	21.709
758.46	21.926
758.77	22.254
759.09	22.305
759.40	22.450
759.71	22.760
760.02	22.797
760.33	22.825
760.64	22.928
760.95	23.024
761.26	22.997
761.57	22.900
761.88	22.882
762.18	22.876
762.49	22.944
762.80	22.873
763.11	22.707
763.42	22.576
763.73	22.386
764.04	22.214
764.35	22.026
764.66	21.854
764.97	21.740
765.28	21.413
765.59	20.863
765.90	20.502
766.21	20.072
766.52	19.556
766.83	19.322
767.14	19.280
767.44	18.927
767.75	18.773
768.06	18.646
768.37	18.472
768.68	18.471
768.99	18.718
769.30	18.546
769.61	18.364
769.91	18.220
770.22	18.054
770.53	17.709
770.84	17.649
771.15	17.545
771.46	17.376
771.77	17.214
772.07	17.069
772.38	16.886
772.69	16.765
773.00	16.655
773.31	16.951
773.61	17.047
773.92	17.193
774.23	17.412
774.54	17.360
774.85	17.537
775.15	17.427
775.46	17.325
775.77	17.366
776.08	17.640
776.39	17.694
776.69	17.481
777.00	17.427
777.31	17.409
777.62	17.243
777.92	17.314
778.23	17.057
778.54	17.140
778.85	17.454
779.15	17.167
779.46	16.955
779.77	17.084
780.07	17.158
780.38	17.259
780.69	17.211
781.00	17.252
781.30	17.128
781.61	17.205
781.92	17.249
782.22	17.065
782.53	17.277
782.84	17.146
783.14	17.044
783.45	16.879
783.76	16.873
784.06	17.003
784.37	17.063
784.68	17.145
784.98	17.233
785.29	17.394
785.60	17.473
785.90	17.473
786.21	17.707
786.51	18.174
786.82	18.407
787.13	18.444
787.43	18.454
787.74	18.486
788.04	18.689
788.35	18.703
788.66	18.792
788.96	18.731
789.27	18.741
789.57	18.794
789.88	18.635
790.19	18.838
790.49	18.697
790.80	18.656
791.10	18.928
791.41	18.778
791.71	18.715
792.02	18.499
792.32	18.271
792.63	18.345
792.93	18.330
793.24	18.199
793.54	17.960
793.85	18.274
794.15	18.348
794.46	18.287
794.76	18.441
795.07	18.790
795.37	18.787
795.68	19.298
795.98	19.317
796.29	19.595
796.59	19.323
796.90	19.215
797.20	19.184
797.51	19.227
797.81	19.189
798.12	19.149
798.42	19.242
798.72	19.216
799.03	19.195
799.33	19.254
799.64	19.078
799.94	19.053
800.25	19.192
800.55	19.064
800.85	19.001
801.16	18.783
801.46	18.383
801.77	18.249
802.07	18.613
802.37	18.527
802.68	18.748
802.98	19.060
803.28	19.453
803.59	19.414
803.89	19.402
804.20	19.522
804.50	19.546
804.80	19.904
805.11	19.591
805.41	19.264
805.71	19.224
806.02	18.904
806.32	18.561
806.62	18.554
806.93	18.788
807.23	19.306
807.53	19.704
807.83	19.744
808.14	19.619
808.44	19.800
808.74	20.280
809.05	20.465
809.35	20.724
809.65	20.991
809.95	21.003
810.26	21.293
810.56	21.055
810.86	20.631
811.16	20.761
811.47	21.214
811.77	21.602
812.07	21.626
812.37	21.792
812.68	22.189
812.98	22.085
813.28	22.343
813.58	22.290
813.88	22.013
814.19	22.763
814.49	22.935
814.79	23.194
815.09	23.008
815.39	22.806
815.70	22.774
816.00	22.623
816.30	22.809
816.60	22.597
816.90	22.291
817.20	22.592
817.50	22.325
817.81	22.532
818.11	22.688
818.41	22.938
818.71	23.187
819.01	23.302
819.31	23.330
819.61	23.452
819.92	23.578
820.22	23.819
820.52	23.837
820.82	23.823
821.12	23.811
821.42	23.716
821.72	23.694
822.02	23.650
822.32	23.633
822.62	23.647
822.92	23.544
823.22	23.490
823.52	23.413
823.83	23.395
824.13	23.409
824.43	23.340
824.73	23.428
825.03	23.489
825.33	23.510
825.63	23.455
825.93	23.436
826.23	23.426
826.53	23.394
826.83	23.299
827.13	23.171
827.43	23.038
827.73	23.183
828.03	23.035
828.33	22.821
828.63	22.637
828.93	22.751
829.23	22.702
829.53	22.742
829.83	22.730
830.13	22.562
830.42	22.554
830.72	22.640
831.02	22.237
831.32	22.004
831.62	22.005
831.92	22.014
832.22	22.120
832.52	22.135
832.82	22.291
833.12	22.230
833.42	22.295
833.72	22.405
834.01	22.259
834.31	22.190
834.61	22.298
834.91	22.360
835.21	22.153
835.51	21.756
835.81	21.255
836.11	20.946
836.40	21.081
836.70	20.609
837.00	20.146
837.30	20.361
837.60	20.786
837.90	21.004
838.19	21.037
838.49	21.048
838.79	20.783
839.09	21.090
839.39	20.877
839.68	20.376
839.98	20.869
840.28	21.243
840.58	20.900
840.88	20.598
841.17	20.429
841.47	20.485
841.77	20.718
842.07	21.093
842.36	21.218
842.66	21.259
842.96	21.362
843.26	20.977
843.55	20.509
843.85	20.391
844.15	19.411
844.45	18.866
844.74	18.329
845.04	19.054
845.34	18.532
845.63	18.276
845.93	19.415
846.23	20.682
846.53	20.478
846.82	19.274
847.12	19.608
847.42	19.619
847.71	20.312
848.01	19.396
848.31	18.859
848.60	19.121
848.90	19.569
849.19	18.901
849.49	17.295
849.79	17.265
850.08	18.847
850.38	18.528
850.68	18.664
850.97	19.340
851.27	19.337
851.56	18.409
851.86	17.554
852.16	17.992
852.45	17.557
852.75	18.297
853.04	18.388
853.34	19.250
853.64	19.572
853.93	20.845
854.23	20.523
854.52	21.156
854.82	22.040
855.11	22.387
855.41	20.859
855.70	19.660
856.00	19.183
856.30	19.548
856.59	17.989
856.89	17.624
857.18	16.150
857.48	16.080
857.77	16.837
858.07	17.584
858.36	19.582
858.66	21.516
858.95	21.691
859.25	21.788
859.54	22.469
859.84	23.118
860.13	23.029
860.42	24.528
860.72	24.959
861.01	23.598
861.31	23.504
861.60	23.050
861.90	22.590
862.19	23.292
862.49	23.887
862.78	23.077
863.07	21.583
863.37	21.697
863.66	20.925
863.96	20.505
864.25	20.685
864.54	20.135
864.84	19.120
865.13	17.596
865.43	17.445
865.72	13.231
866.01	19.343
866.31	18.805
866.60	7.669
866.89	16.011
>>>>>End Spectral Data<<<<<
