OOIBase32 Version 2.0.0.6 Data File
++++++++++++++++++++++++++++++++++++
Date: 01-22-2012, 21:15:29
User: Valued Ocean Optics Customer
Spectrometer Serial Number: USB2E2917
Spectrometer Channel: Master
Integration Time (msec): 4
Spectra Averaged: 10
Boxcar Smoothing: 5
Correct for Electrical Dark: Enabled
Time Normalized: Disabled
Dual-beam Reference: Disabled
Reference Channel: Master
Temperature: Not acquired
Spectrometer Type: S2000
ADC Type: USB2000
Number of Pixels in File: 2048
Graph Title: 
>>>>>Begin Spectral Data<<<<<
180.30	0.000
180.67	0.000
181.03	-60.372
181.40	96.229
181.77	-177.027
182.14	-38.585
182.51	781.406
182.88	-41.011
183.25	122.925
183.62	24.065
183.99	-15.368
184.36	104.247
184.73	0.291
185.10	1521.588
185.46	235.535
185.83	39.811
186.20	-40.348
186.57	342.672
186.94	28.219
187.31	128.886
187.68	-1173.976
188.05	-72.766
188.42	58.184
188.78	158.587
189.15	85.910
189.52	81.566
189.89	50.823
190.26	27.307
190.63	21.194
191.00	24.945
191.37	44.690
191.73	67.251
192.10	10.755
192.47	-25.211
192.84	-196.637
193.21	-371.297
193.58	-303.867
193.94	-218.130
194.31	-67.968
194.68	-41.723
195.05	-21.273
195.42	-68.334
195.79	-57.890
196.15	-9.911
196.52	20.813
196.89	46.070
197.26	19.640
197.63	-5.312
198.00	26.344
198.36	7.555
198.73	112.049
199.10	13.543
199.47	19.271
199.84	20.411
200.20	-21.177
200.57	-2.305
200.94	14.946
201.31	33.778
201.68	42.062
202.04	35.762
202.41	37.291
202.78	39.182
203.15	50.911
203.51	54.478
203.88	64.962
204.25	61.246
204.62	41.157
204.98	22.426
205.35	5.998
205.72	-10.770
206.09	-59.745
206.46	-41.303
206.82	-85.419
207.19	-103.240
207.56	-143.308
207.92	-165.258
208.29	-76.813
208.66	-44.742
209.03	-49.323
209.39	-9.703
209.76	1.831
210.13	11.619
210.50	15.478
210.86	-5.884
211.23	-18.417
211.60	-31.600
211.96	-69.959
212.33	-200.168
212.70	7745.919
213.07	692.149
213.43	611.422
213.80	1929.608
214.17	316.071
214.53	1549.008
214.90	-125.515
215.27	-60.478
215.63	-125.421
216.00	-65.406
216.37	-20.593
216.74	-3.953
217.10	-2.129
217.47	-1.309
217.84	-2.814
218.20	-0.522
218.57	0.643
218.94	-18.685
219.30	-8.400
219.67	7.822
220.04	19.956
220.40	24.729
220.77	17.892
221.13	27.395
221.50	25.962
221.87	23.919
222.23	22.868
222.60	22.827
222.97	16.759
223.33	4.921
223.70	0.022
224.07	-8.382
224.43	-9.011
224.80	-1.178
225.16	-5.566
225.53	-5.012
225.90	-3.905
226.26	-2.694
226.63	-6.104
226.99	-3.781
227.36	-1.280
227.73	0.851
228.09	0.715
228.46	1.645
228.82	-0.688
229.19	2.149
229.56	0.006
229.92	1.368
230.29	2.281
230.65	4.837
231.02	3.725
231.38	4.688
231.75	4.932
232.12	5.728
232.48	4.310
232.85	6.296
233.21	4.333
233.58	7.344
233.94	6.322
234.31	5.367
234.68	3.301
235.04	5.702
235.41	4.878
235.77	4.101
236.14	3.337
236.50	5.950
236.87	6.211
237.23	6.029
237.60	3.994
237.96	2.018
238.33	0.604
238.69	1.167
239.06	0.003
239.42	0.103
239.79	0.003
240.15	1.020
240.52	0.656
240.88	0.448
241.25	0.245
241.61	0.238
241.98	1.258
242.34	1.490
242.71	1.705
243.07	1.886
243.44	2.207
243.80	2.470
244.17	2.133
244.53	1.587
244.90	1.793
245.26	2.240
245.63	2.309
245.99	2.179
246.36	2.447
246.72	2.248
247.09	2.099
247.45	2.002
247.81	1.723
248.18	1.692
248.54	2.124
248.91	1.787
249.27	0.763
249.64	1.059
250.00	1.418
250.36	1.572
250.73	1.332
251.09	0.840
251.46	0.030
251.82	-0.251
252.19	-0.291
252.55	-0.384
252.91	0.398
253.28	0.964
253.64	0.626
254.01	0.407
254.37	0.480
254.73	0.926
255.10	1.214
255.46	1.944
255.83	2.207
256.19	2.126
256.55	1.844
256.92	1.456
257.28	1.525
257.65	1.643
258.01	1.575
258.37	1.543
258.74	1.542
259.10	1.932
259.46	1.833
259.83	1.889
260.19	1.933
260.55	2.102
260.92	1.958
261.28	1.950
261.64	1.990
262.01	1.815
262.37	1.209
262.73	1.024
263.10	0.313
263.46	0.773
263.82	0.474
264.19	0.414
264.55	0.653
264.91	0.993
265.28	1.108
265.64	0.889
266.00	1.019
266.37	1.711
266.73	1.787
267.09	1.868
267.46	1.267
267.82	1.654
268.18	1.645
268.54	1.270
268.91	1.380
269.27	1.158
269.63	1.277
270.00	1.525
270.36	1.209
270.72	1.361
271.08	1.343
271.45	1.405
271.81	1.415
272.17	1.797
272.53	2.144
272.90	2.014
273.26	2.133
273.62	2.094
273.98	1.981
274.35	2.076
274.71	1.824
275.07	2.036
275.43	2.113
275.80	2.254
276.16	2.197
276.52	2.176
276.88	2.241
277.25	2.090
277.61	2.122
277.97	2.057
278.33	2.025
278.69	2.277
279.06	2.145
279.42	2.198
279.78	1.850
280.14	1.542
280.50	1.474
280.87	1.449
281.23	1.711
281.59	1.831
281.95	1.871
282.31	1.953
282.68	1.798
283.04	1.773
283.40	1.629
283.76	1.703
284.12	1.731
284.48	1.589
284.85	1.652
285.21	1.634
285.57	1.672
285.93	1.846
286.29	1.715
286.65	1.754
287.02	1.914
287.38	2.091
287.74	2.064
288.10	2.078
288.46	2.030
288.82	1.978
289.18	1.640
289.54	1.312
289.91	1.008
290.27	1.211
290.63	1.341
290.99	1.171
291.35	1.101
291.71	1.082
292.07	1.063
292.43	1.105
292.79	1.212
293.16	1.527
293.52	1.767
293.88	1.812
294.24	1.614
294.60	1.691
294.96	1.636
295.32	1.769
295.68	1.600
296.04	1.701
296.40	1.676
296.76	1.567
297.12	1.584
297.49	1.715
297.85	1.943
298.21	2.123
298.57	1.984
298.93	2.153
299.29	2.041
299.65	2.356
300.01	2.210
300.37	2.392
300.73	2.409
301.09	2.381
301.45	2.119
301.81	1.984
302.17	1.858
302.53	1.844
302.89	1.788
303.25	1.853
303.61	1.796
303.97	1.891
304.33	1.802
304.69	2.007
305.05	2.051
305.41	2.314
305.77	2.131
306.13	2.253
306.49	2.446
306.85	2.535
307.21	2.379
307.57	2.270
307.93	2.359
308.29	2.471
308.65	2.228
309.01	2.211
309.37	2.031
309.73	2.083
310.09	1.997
310.45	1.796
310.81	1.707
311.17	1.727
311.53	1.765
311.89	1.688
312.25	1.556
312.61	1.692
312.96	1.724
313.32	1.716
313.68	1.610
314.04	1.716
314.40	1.700
314.76	1.764
315.12	1.877
315.48	1.811
315.84	1.613
316.20	1.713
316.56	1.700
316.92	1.551
317.27	1.623
317.63	1.644
317.99	1.493
318.35	1.688
318.71	1.696
319.07	1.707
319.43	1.681
319.79	1.808
320.15	1.869
320.50	1.898
320.86	1.854
321.22	1.853
321.58	1.884
321.94	2.080
322.30	2.136
322.66	2.172
323.01	2.050
323.37	2.328
323.73	2.320
324.09	2.424
324.45	2.400
324.81	2.609
325.17	2.662
325.52	2.819
325.88	2.617
326.24	2.470
326.60	2.397
326.96	2.573
327.31	2.246
327.67	2.397
328.03	2.279
328.39	2.219
328.75	2.136
329.11	2.136
329.46	2.054
329.82	2.205
330.18	2.263
330.54	2.297
330.90	2.173
331.25	2.305
331.61	2.124
331.97	2.063
332.33	2.099
332.68	2.166
333.04	2.173
333.40	2.250
333.76	2.292
334.11	2.263
334.47	2.314
334.83	2.393
335.19	2.506
335.54	2.524
335.90	2.455
336.26	2.349
336.62	2.294
336.97	2.213
337.33	2.198
337.69	2.111
338.05	2.226
338.40	2.206
338.76	2.217
339.12	2.133
339.48	2.067
339.83	2.149
340.19	2.348
340.55	2.404
340.90	2.429
341.26	2.400
341.62	2.430
341.97	2.385
342.33	2.399
342.69	2.422
343.04	2.370
343.40	2.571
343.76	2.562
344.12	2.508
344.47	2.401
344.83	2.425
345.19	2.489
345.54	2.506
345.90	2.456
346.26	2.480
346.61	2.361
346.97	2.397
347.32	2.316
347.68	2.378
348.04	2.349
348.39	2.483
348.75	2.492
349.11	2.442
349.46	2.429
349.82	2.437
350.18	2.373
350.53	2.506
350.89	2.609
351.24	2.639
351.60	2.635
351.96	2.636
352.31	2.560
352.67	2.508
353.02	2.502
353.38	2.534
353.74	2.549
354.09	2.541
354.45	2.433
354.80	2.365
355.16	2.393
355.52	2.367
355.87	2.404
356.23	2.409
356.58	2.489
356.94	2.551
357.29	2.504
357.65	2.495
358.00	2.529
358.36	2.584
358.72	2.582
359.07	2.545
359.43	2.572
359.78	2.590
360.14	2.585
360.49	2.537
360.85	2.517
361.20	2.547
361.56	2.570
361.91	2.566
362.27	2.582
362.62	2.625
362.98	2.655
363.33	2.639
363.69	2.632
364.04	2.708
364.40	2.752
364.75	2.749
365.11	2.738
365.46	2.718
365.82	2.685
366.17	2.664
366.53	2.566
366.88	2.549
367.24	2.553
367.59	2.577
367.95	2.549
368.30	2.524
368.66	2.487
369.01	2.472
369.37	2.471
369.72	2.488
370.08	2.502
370.43	2.554
370.78	2.567
371.14	2.550
371.49	2.503
371.85	2.484
372.20	2.525
372.56	2.568
372.91	2.607
373.26	2.656
373.62	2.656
373.97	2.681
374.33	2.687
374.68	2.691
375.03	2.671
375.39	2.648
375.74	2.660
376.10	2.658
376.45	2.641
376.80	2.675
377.16	2.612
377.51	2.648
377.87	2.669
378.22	2.676
378.57	2.695
378.93	2.739
379.28	2.789
379.63	2.810
379.99	2.851
380.34	2.858
380.70	2.855
381.05	2.886
381.40	2.875
381.76	2.864
382.11	2.834
382.46	2.781
382.82	2.748
383.17	2.739
383.52	2.745
383.88	2.743
384.23	2.778
384.58	2.770
384.94	2.832
385.29	2.864
385.64	2.830
385.99	2.843
386.35	2.880
386.70	2.918
387.05	2.918
387.41	2.911
387.76	2.829
388.11	2.787
388.47	2.754
388.82	2.730
389.17	2.765
389.52	2.776
389.88	2.834
390.23	2.860
390.58	2.790
390.93	2.829
391.29	2.870
391.64	2.928
391.99	2.966
392.34	3.003
392.70	2.978
393.05	2.929
393.40	2.964
393.75	2.947
394.11	2.926
394.46	2.962
394.81	2.945
395.16	2.922
395.52	2.932
395.87	2.927
396.22	2.912
396.57	2.905
396.92	2.903
397.28	2.859
397.63	2.824
397.98	2.848
398.33	2.881
398.68	2.908
399.04	2.878
399.39	2.839
399.74	2.823
400.09	2.845
400.44	2.848
400.80	2.861
401.15	2.879
401.50	2.925
401.85	2.909
402.20	2.902
402.55	2.893
402.90	2.908
403.26	2.898
403.61	2.897
403.96	2.872
404.31	2.925
404.66	2.929
405.01	2.937
405.36	2.923
405.72	2.918
406.07	2.904
406.42	2.919
406.77	2.881
407.12	2.934
407.47	2.950
407.82	2.966
408.17	2.902
408.53	2.920
408.88	2.918
409.23	2.901
409.58	2.919
409.93	2.946
410.28	2.923
410.63	2.978
410.98	2.961
411.33	2.973
411.68	2.981
412.03	3.004
412.38	2.991
412.73	2.978
413.09	2.974
413.44	2.947
413.79	2.935
414.14	2.927
414.49	2.880
414.84	2.859
415.19	2.830
415.54	2.807
415.89	2.774
416.24	2.761
416.59	2.757
416.94	2.764
417.29	2.740
417.64	2.725
417.99	2.696
418.34	2.697
418.69	2.670
419.04	2.664
419.39	2.664
419.74	2.679
420.09	2.662
420.44	2.651
420.79	2.631
421.14	2.625
421.49	2.620
421.84	2.625
422.19	2.630
422.54	2.643
422.89	2.638
423.24	2.611
423.59	2.596
423.94	2.607
424.29	2.607
424.64	2.614
424.99	2.651
425.34	2.669
425.68	2.680
426.03	2.686
426.38	2.701
426.73	2.712
427.08	2.724
427.43	2.750
427.78	2.745
428.13	2.759
428.48	2.778
428.83	2.750
429.18	2.715
429.53	2.718
429.87	2.713
430.22	2.704
430.57	2.714
430.92	2.715
431.27	2.688
431.62	2.673
431.97	2.662
432.32	2.648
432.67	2.640
433.01	2.662
433.36	2.644
433.71	2.640
434.06	2.659
434.41	2.658
434.76	2.694
435.11	2.719
435.45	2.728
435.80	2.709
436.15	2.715
436.50	2.705
436.85	2.693
437.20	2.694
437.54	2.678
437.89	2.662
438.24	2.644
438.59	2.630
438.94	2.607
439.29	2.594
439.63	2.584
439.98	2.566
440.33	2.571
440.68	2.566
441.03	2.559
441.37	2.551
441.72	2.530
442.07	2.523
442.42	2.510
442.76	2.522
443.11	2.521
443.46	2.527
443.81	2.532
444.16	2.533
444.50	2.522
444.85	2.519
445.20	2.529
445.55	2.535
445.89	2.526
446.24	2.522
446.59	2.511
446.94	2.518
447.28	2.508
447.63	2.485
447.98	2.460
448.32	2.448
448.67	2.435
449.02	2.416
449.37	2.415
449.71	2.416
450.06	2.423
450.41	2.419
450.75	2.408
451.10	2.426
451.45	2.408
451.79	2.426
452.14	2.445
452.49	2.456
452.84	2.452
453.18	2.450
453.53	2.452
453.88	2.447
454.22	2.424
454.57	2.416
454.92	2.405
455.26	2.418
455.61	2.424
455.95	2.421
456.30	2.428
456.65	2.432
456.99	2.428
457.34	2.424
457.69	2.427
458.03	2.435
458.38	2.438
458.73	2.456
459.07	2.462
459.42	2.458
459.76	2.462
460.11	2.462
460.46	2.478
460.80	2.482
461.15	2.496
461.49	2.494
461.84	2.505
462.19	2.519
462.53	2.507
462.88	2.512
463.22	2.524
463.57	2.546
463.91	2.560
464.26	2.571
464.61	2.580
464.95	2.598
465.30	2.624
465.64	2.641
465.99	2.653
466.33	2.674
466.68	2.696
467.02	2.710
467.37	2.709
467.71	2.703
468.06	2.703
468.41	2.711
468.75	2.696
469.10	2.696
469.44	2.712
469.79	2.724
470.13	2.708
470.48	2.722
470.82	2.733
471.17	2.731
471.51	2.733
471.86	2.745
472.20	2.735
472.55	2.745
472.89	2.738
473.23	2.726
473.58	2.692
473.92	2.683
474.27	2.654
474.61	2.643
474.96	2.637
475.30	2.632
475.65	2.624
475.99	2.636
476.34	2.622
476.68	2.604
477.02	2.607
477.37	2.616
477.71	2.631
478.06	2.637
478.40	2.644
478.75	2.672
479.09	2.685
479.43	2.703
479.78	2.731
480.12	2.777
480.47	2.819
480.81	2.850
481.15	2.891
481.50	2.926
481.84	2.971
482.19	3.020
482.53	3.046
482.87	3.060
483.22	3.050
483.56	3.019
483.90	2.972
484.25	2.944
484.59	2.930
484.94	2.908
485.28	2.882
485.62	2.842
485.97	2.793
486.31	2.760
486.65	2.754
487.00	2.771
487.34	2.805
487.68	2.853
488.03	2.876
488.37	2.885
488.71	2.897
489.06	2.906
489.40	2.924
489.74	2.947
490.09	2.974
490.43	2.992
490.77	3.004
491.11	3.029
491.46	3.046
491.80	3.071
492.14	3.082
492.49	3.105
492.83	3.125
493.17	3.154
493.51	3.180
493.86	3.215
494.20	3.242
494.54	3.268
494.88	3.311
495.23	3.351
495.57	3.384
495.91	3.430
496.25	3.477
496.60	3.546
496.94	3.594
497.28	3.652
497.62	3.700
497.97	3.775
498.31	3.863
498.65	3.938
498.99	4.042
499.33	4.152
499.68	4.245
500.02	4.347
500.36	4.444
500.70	4.556
501.04	4.666
501.39	4.793
501.73	4.910
502.07	5.024
502.41	5.145
502.75	5.266
503.09	5.391
503.44	5.549
503.78	5.697
504.12	5.854
504.46	6.008
504.80	6.179
505.14	6.342
505.49	6.532
505.83	6.708
506.17	6.878
506.51	7.067
506.85	7.254
507.19	7.449
507.53	7.645
507.87	7.843
508.22	8.065
508.56	8.281
508.90	8.485
509.24	8.682
509.58	8.918
509.92	9.149
510.26	9.381
510.60	9.612
510.94	9.843
511.28	10.091
511.63	10.354
511.97	10.594
512.31	10.852
512.65	11.147
512.99	11.448
513.33	11.765
513.67	12.076
514.01	12.376
514.35	12.691
514.69	12.991
515.03	13.268
515.37	13.532
515.71	13.801
516.05	14.029
516.39	14.250
516.73	14.456
517.07	14.673
517.41	14.914
517.75	15.145
518.09	15.389
518.43	15.633
518.77	15.903
519.11	16.153
519.45	16.418
519.79	16.735
520.13	17.054
520.47	17.417
520.81	17.747
521.15	18.043
521.49	18.354
521.83	18.624
522.17	18.884
522.51	19.141
522.85	19.413
523.19	19.721
523.53	20.059
523.87	20.416
524.21	20.728
524.55	21.053
524.89	21.340
525.23	21.629
525.57	21.908
525.91	22.160
526.25	22.395
526.58	22.634
526.92	22.849
527.26	23.025
527.60	23.172
527.94	23.321
528.28	23.450
528.62	23.605
528.96	23.741
529.30	23.875
529.64	24.024
529.97	24.169
530.31	24.303
530.65	24.453
530.99	24.604
531.33	24.759
531.67	24.919
532.01	25.092
532.35	25.234
532.68	25.388
533.02	25.522
533.36	25.642
533.70	25.770
534.04	25.916
534.38	26.038
534.71	26.177
535.05	26.331
535.39	26.470
535.73	26.609
536.07	26.760
536.41	26.901
536.74	27.042
537.08	27.207
537.42	27.374
537.76	27.510
538.10	27.649
538.43	27.777
538.77	27.900
539.11	28.018
539.45	28.113
539.79	28.197
540.12	28.281
540.46	28.346
540.80	28.383
541.14	28.430
541.47	28.484
541.81	28.540
542.15	28.586
542.49	28.651
542.82	28.701
543.16	28.751
543.50	28.831
543.84	28.880
544.17	28.968
544.51	29.074
544.85	29.168
545.18	29.240
545.52	29.318
545.86	29.427
546.20	29.503
546.53	29.596
546.87	29.690
547.21	29.777
547.54	29.877
547.88	29.955
548.22	30.029
548.55	30.066
548.89	30.136
549.23	30.226
549.56	30.276
549.90	30.320
550.24	30.363
550.57	30.394
550.91	30.417
551.25	30.446
551.58	30.490
551.92	30.533
552.26	30.632
552.59	30.654
552.93	30.703
553.27	30.744
553.60	30.780
553.94	30.818
554.27	30.879
554.61	30.923
554.95	31.012
555.28	31.038
555.62	31.024
555.95	31.005
556.29	31.097
556.63	31.105
556.96	31.131
557.30	31.190
557.63	31.202
557.97	31.172
558.31	31.188
558.64	31.155
558.98	31.177
559.31	31.231
559.65	31.217
559.98	31.146
560.32	31.141
560.65	31.113
560.99	31.065
561.33	31.019
561.66	31.004
562.00	30.994
562.33	30.966
562.67	30.939
563.00	30.892
563.34	30.889
563.67	30.876
564.01	30.831
564.34	30.794
564.68	30.779
565.01	30.787
565.35	30.826
565.68	30.815
566.02	30.817
566.35	30.822
566.69	30.818
567.02	30.792
567.36	30.838
567.69	30.834
568.03	30.806
568.36	30.807
568.69	30.808
569.03	30.751
569.36	30.723
569.70	30.670
570.03	30.635
570.37	30.608
570.70	30.613
571.04	30.545
571.37	30.527
571.70	30.562
572.04	30.513
572.37	30.481
572.71	30.487
573.04	30.453
573.37	30.480
573.71	30.463
574.04	30.505
574.38	30.516
574.71	30.571
575.04	30.585
575.38	30.640
575.71	30.709
576.05	30.769
576.38	30.812
576.71	30.858
577.05	30.888
577.38	30.952
577.71	30.975
578.05	31.013
578.38	31.004
578.71	31.032
579.05	30.986
579.38	30.957
579.71	30.960
580.05	30.944
580.38	30.964
580.71	30.962
581.05	30.966
581.38	30.920
581.71	30.871
582.05	30.858
582.38	30.812
582.71	30.739
583.04	30.744
583.38	30.710
583.71	30.642
584.04	30.584
584.38	30.568
584.71	30.488
585.04	30.453
585.37	30.364
585.71	30.336
586.04	30.294
586.37	30.331
586.70	30.252
587.04	30.197
587.37	30.187
587.70	30.123
588.03	30.009
588.37	29.946
588.70	29.908
589.03	29.922
589.36	29.854
589.69	29.844
590.03	29.742
590.36	29.739
590.69	29.651
591.02	29.597
591.35	29.551
591.69	29.502
592.02	29.450
592.35	29.364
592.68	29.295
593.01	29.192
593.35	29.089
593.68	29.013
594.01	28.910
594.34	28.881
594.67	28.854
595.00	28.770
595.34	28.750
595.67	28.718
596.00	28.713
596.33	28.668
596.66	28.730
596.99	28.739
597.32	28.773
597.65	28.740
597.99	28.729
598.32	28.690
598.65	28.671
598.98	28.614
599.31	28.587
599.64	28.530
599.97	28.480
600.30	28.351
600.63	28.254
600.96	28.161
601.30	28.109
601.63	28.038
601.96	27.956
602.29	27.950
602.62	27.931
602.95	27.887
603.28	27.847
603.61	27.777
603.94	27.705
604.27	27.685
604.60	27.673
604.93	27.687
605.26	27.613
605.59	27.606
605.92	27.596
606.25	27.538
606.58	27.496
606.91	27.470
607.24	27.467
607.57	27.492
607.90	27.504
608.23	27.446
608.56	27.391
608.89	27.451
609.22	27.394
609.55	27.391
609.88	27.412
610.21	27.440
610.54	27.428
610.87	27.441
611.20	27.437
611.53	27.417
611.86	27.450
612.19	27.440
612.52	27.356
612.85	27.380
613.18	27.284
613.51	27.213
613.84	27.168
614.17	27.134
614.49	27.098
614.82	27.113
615.15	27.057
615.48	27.021
615.81	27.020
616.14	27.013
616.47	27.016
616.80	27.002
617.13	27.025
617.46	26.975
617.78	26.898
618.11	26.848
618.44	26.746
618.77	26.735
619.10	26.717
619.43	26.698
619.76	26.621
620.09	26.519
620.41	26.456
620.74	26.369
621.07	26.312
621.40	26.271
621.73	26.207
622.06	26.215
622.38	26.156
622.71	26.047
623.04	25.942
623.37	25.954
623.70	25.908
624.02	25.891
624.35	25.862
624.68	25.841
625.01	25.836
625.34	25.841
625.66	25.801
625.99	25.750
626.32	25.761
626.65	25.767
626.98	25.742
627.30	25.769
627.63	25.737
627.96	25.698
628.29	25.646
628.61	25.641
628.94	25.589
629.27	25.521
629.60	25.490
629.92	25.458
630.25	25.415
630.58	25.358
630.91	25.295
631.23	25.251
631.56	25.164
631.89	25.130
632.21	25.086
632.54	25.058
632.87	25.031
633.19	24.998
633.52	24.958
633.85	24.917
634.18	24.876
634.50	24.835
634.83	24.833
635.16	24.851
635.48	24.858
635.81	24.826
636.14	24.815
636.46	24.785
636.79	24.792
637.11	24.793
637.44	24.791
637.77	24.797
638.09	24.773
638.42	24.716
638.75	24.680
639.07	24.646
639.40	24.618
639.73	24.578
640.05	24.546
640.38	24.508
640.70	24.457
641.03	24.454
641.36	24.465
641.68	24.462
642.01	24.486
642.33	24.570
642.66	24.506
642.98	24.483
643.31	24.456
643.64	24.455
643.96	24.434
644.29	24.420
644.61	24.349
644.94	24.330
645.26	24.337
645.59	24.333
645.91	24.251
646.24	24.274
646.56	24.204
646.89	24.221
647.22	24.177
647.54	24.148
647.87	24.120
648.19	24.128
648.52	24.045
648.84	23.940
649.17	23.895
649.49	23.832
649.82	23.796
650.14	23.877
650.47	23.747
650.79	23.728
651.11	23.655
651.44	23.615
651.76	23.571
652.09	23.559
652.41	23.540
652.74	23.489
653.06	23.448
653.39	23.409
653.71	23.283
654.04	23.341
654.36	23.251
654.68	23.252
655.01	23.191
655.33	23.152
655.66	23.106
655.98	23.043
656.30	22.978
656.63	22.962
656.95	22.887
657.28	22.847
657.60	22.797
657.92	22.783
658.25	22.737
658.57	22.732
658.90	22.684
659.22	22.666
659.54	22.639
659.87	22.638
660.19	22.584
660.51	22.569
660.84	22.500
661.16	22.410
661.48	22.432
661.81	22.398
662.13	22.391
662.45	22.420
662.78	22.327
663.10	22.345
663.42	22.301
663.75	22.319
664.07	22.372
664.39	22.424
664.72	22.472
665.04	22.490
665.36	22.457
665.69	22.429
666.01	22.342
666.33	22.367
666.65	22.336
666.98	22.333
667.30	22.338
667.62	22.288
667.94	22.289
668.27	22.227
668.59	22.094
668.91	22.122
669.23	22.067
669.56	22.066
669.88	21.982
670.20	21.906
670.52	21.854
670.85	21.811
671.17	21.742
671.49	21.704
671.81	21.697
672.13	21.771
672.46	21.751
672.78	21.781
673.10	21.711
673.42	21.707
673.74	21.736
674.07	21.790
674.39	21.738
674.71	21.693
675.03	21.665
675.35	21.635
675.67	21.547
676.00	21.478
676.32	21.422
676.64	21.440
676.96	21.492
677.28	21.513
677.60	21.414
677.92	21.404
678.25	21.419
678.57	21.425
678.89	21.421
679.21	21.462
679.53	21.429
679.85	21.462
680.17	21.522
680.49	21.513
680.81	21.485
681.13	21.524
681.46	21.534
681.78	21.576
682.10	21.540
682.42	21.574
682.74	21.565
683.06	21.629
683.38	21.584
683.70	21.559
684.02	21.580
684.34	21.628
684.66	21.665
684.98	21.690
685.30	21.684
685.62	21.726
685.94	21.734
686.26	21.752
686.58	21.772
686.90	21.772
687.22	21.700
687.54	21.621
687.86	21.536
688.18	21.547
688.50	21.548
688.82	21.551
689.14	21.514
689.46	21.487
689.78	21.420
690.10	21.360
690.42	21.306
690.74	21.231
691.06	21.215
691.38	21.155
691.70	21.006
692.02	20.856
692.34	20.739
692.66	20.638
692.98	20.518
693.30	20.539
693.62	20.477
693.94	20.488
694.26	20.456
694.57	20.532
694.89	20.524
695.21	20.566
695.53	20.605
695.85	20.648
696.17	20.677
696.49	20.695
696.81	20.669
697.13	20.749
697.44	20.758
697.76	20.866
698.08	20.713
698.40	20.704
698.72	20.591
699.04	20.536
699.36	20.483
699.67	20.360
699.99	20.306
700.31	20.235
700.63	20.031
700.95	19.946
701.27	19.720
701.58	19.667
701.90	19.615
702.22	19.611
702.54	19.633
702.86	19.547
703.17	19.552
703.49	19.487
703.81	19.411
704.13	19.479
704.45	19.411
704.76	19.513
705.08	19.594
705.40	19.583
705.72	19.715
706.03	19.761
706.35	19.881
706.67	19.940
706.99	19.944
707.30	19.960
707.62	19.963
707.94	20.074
708.26	19.976
708.57	19.950
708.89	20.020
709.21	19.995
709.53	19.951
709.84	19.922
710.16	19.889
710.48	19.938
710.79	19.945
711.11	19.913
711.43	19.818
711.74	19.880
712.06	20.019
712.38	20.041
712.69	19.986
713.01	19.972
713.33	19.968
713.64	20.045
713.96	20.043
714.28	20.165
714.59	20.239
714.91	20.323
715.23	20.436
715.54	20.313
715.86	20.209
716.17	20.229
716.49	20.227
716.81	20.194
717.12	20.108
717.44	20.008
717.76	19.890
718.07	19.784
718.39	19.694
718.70	19.580
719.02	19.582
719.33	19.494
719.65	19.462
719.97	19.422
720.28	19.368
720.60	19.418
720.91	19.558
721.23	19.561
721.54	19.628
721.86	19.788
722.17	19.802
722.49	19.791
722.81	20.000
723.12	20.041
723.44	20.084
723.75	20.202
724.07	20.129
724.38	20.116
724.70	20.107
725.01	20.069
725.33	20.023
725.64	19.965
725.96	20.018
726.27	19.982
726.59	20.043
726.90	20.019
727.22	20.083
727.53	20.094
727.84	20.043
728.16	20.002
728.47	20.027
728.79	19.876
729.10	19.795
729.42	19.708
729.73	19.603
730.05	19.448
730.36	19.367
730.67	19.169
730.99	19.129
731.30	19.035
731.62	18.992
731.93	18.858
732.24	18.592
732.56	18.657
732.87	18.517
733.19	18.540
733.50	18.549
733.81	18.481
734.13	18.380
734.44	18.375
734.76	18.387
735.07	18.209
735.38	18.223
735.70	18.347
736.01	18.179
736.32	18.286
736.64	18.112
736.95	18.030
737.26	18.082
737.58	18.055
737.89	17.987
738.20	17.972
738.52	18.046
738.83	17.971
739.14	17.930
739.45	17.951
739.77	17.716
740.08	17.702
740.39	17.552
740.71	17.441
741.02	17.340
741.33	17.119
741.64	16.929
741.96	16.749
742.27	16.661
742.58	16.576
742.90	16.583
743.21	16.676
743.52	16.517
743.83	16.495
744.14	16.443
744.46	16.301
744.77	16.391
745.08	16.559
745.39	16.669
745.71	16.791
746.02	16.882
746.33	16.802
746.64	16.753
746.95	16.876
747.27	16.847
747.58	16.842
747.89	16.950
748.20	16.717
748.51	16.468
748.82	16.428
749.14	16.288
749.45	16.558
749.76	16.471
750.07	16.619
750.38	16.580
750.69	16.758
751.01	16.900
751.32	16.912
751.63	17.066
751.94	17.165
752.25	17.158
752.56	16.917
752.87	16.718
753.18	16.739
753.49	16.502
753.81	16.367
754.12	16.292
754.43	16.247
754.74	16.381
755.05	16.565
755.36	16.714
755.67	17.040
755.98	17.572
756.29	17.715
756.60	17.967
756.91	18.482
757.22	18.966
757.53	19.177
757.84	19.357
758.15	19.674
758.46	19.788
758.77	20.127
759.09	20.289
759.40	20.343
759.71	20.408
760.02	20.517
760.33	20.496
760.64	20.476
760.95	20.522
761.26	20.470
761.57	20.319
761.88	20.345
762.18	20.176
762.49	20.114
762.80	20.143
763.11	20.084
763.42	19.990
763.73	19.788
764.04	19.560
764.35	19.285
764.66	19.096
764.97	18.949
765.28	18.510
765.59	18.127
765.90	17.711
766.21	17.299
766.52	16.815
766.83	16.471
767.14	16.019
767.44	15.772
767.75	15.555
768.06	15.372
768.37	15.171
768.68	15.360
768.99	15.564
769.30	15.294
769.61	14.988
769.91	15.042
770.22	14.875
770.53	14.998
770.84	14.874
771.15	14.925
771.46	14.881
771.77	14.683
772.07	14.513
772.38	14.070
772.69	14.197
773.00	14.062
773.31	14.158
773.61	14.134
773.92	14.177
774.23	14.343
774.54	14.183
774.85	14.210
775.15	14.338
775.46	14.267
775.77	14.374
776.08	14.463
776.39	14.504
776.69	14.345
777.00	14.430
777.31	14.292
777.62	14.294
777.92	14.610
778.23	14.685
778.54	14.525
778.85	14.763
779.15	14.798
779.46	14.478
779.77	14.570
780.07	14.651
780.38	14.538
780.69	14.615
781.00	14.572
781.30	14.361
781.61	14.092
781.92	14.150
782.22	13.993
782.53	14.040
782.84	14.106
783.14	14.172
783.45	14.273
783.76	14.418
784.06	14.469
784.37	14.746
784.68	14.949
784.98	15.203
785.29	15.497
785.60	15.813
785.90	16.232
786.21	16.281
786.51	16.477
786.82	16.347
787.13	16.501
787.43	16.543
787.74	16.553
788.04	16.589
788.35	16.702
788.66	16.401
788.96	16.124
789.27	15.803
789.57	15.891
789.88	15.785
790.19	15.970
790.49	15.771
790.80	15.739
791.10	15.742
791.41	15.803
791.71	15.635
792.02	15.829
792.32	15.771
792.63	15.830
792.93	15.698
793.24	15.658
793.54	15.736
793.85	15.971
794.15	16.117
794.46	16.083
794.76	16.046
795.07	16.289
795.37	16.353
795.68	16.714
795.98	16.481
796.29	16.770
796.59	16.735
796.90	16.707
797.20	16.706
797.51	16.619
797.81	16.688
798.12	16.708
798.42	16.776
798.72	16.716
799.03	16.602
799.33	17.050
799.64	16.981
799.94	17.131
800.25	16.950
800.55	16.876
800.85	16.702
801.16	16.827
801.46	16.728
801.77	16.428
802.07	16.537
802.37	16.334
802.68	16.448
802.98	16.999
803.28	17.044
803.59	17.816
803.89	17.807
804.20	18.026
804.50	17.681
804.80	17.472
805.11	17.211
805.41	16.982
805.71	17.063
806.02	16.719
806.32	15.988
806.62	15.733
806.93	15.504
807.23	15.855
807.53	16.098
807.83	16.178
808.14	16.513
808.44	17.076
808.74	17.649
809.05	17.767
809.35	18.077
809.65	18.443
809.95	18.682
810.26	18.687
810.56	18.607
810.86	18.741
811.16	19.084
811.47	19.068
811.77	19.146
812.07	19.138
812.37	18.924
812.68	19.234
812.98	19.446
813.28	19.619
813.58	19.651
813.88	19.544
814.19	19.940
814.49	20.241
814.79	20.405
815.09	20.216
815.39	19.963
815.70	20.785
816.00	20.683
816.30	20.736
816.60	20.680
816.90	20.421
817.20	20.544
817.50	20.469
817.81	20.504
818.11	20.632
818.41	20.994
818.71	21.324
819.01	21.299
819.31	21.350
819.61	21.436
819.92	21.649
820.22	21.747
820.52	21.747
820.82	21.701
821.12	21.711
821.42	21.719
821.72	21.707
822.02	21.664
822.32	21.646
822.62	21.656
822.92	21.621
823.22	21.476
823.52	21.550
823.83	21.552
824.13	21.540
824.43	21.499
824.73	21.562
825.03	21.555
825.33	21.518
825.63	21.374
825.93	21.321
826.23	21.193
826.53	21.201
826.83	20.878
827.13	20.691
827.43	20.601
827.73	20.479
828.03	20.349
828.33	20.154
828.63	19.983
828.93	20.186
829.23	20.004
829.53	19.909
829.83	19.964
830.13	20.159
830.42	20.453
830.72	20.446
831.02	20.385
831.32	20.121
831.62	20.068
831.92	20.420
832.22	20.222
832.52	20.294
832.82	20.613
833.12	20.390
833.42	20.272
833.72	20.149
834.01	20.197
834.31	20.147
834.61	20.240
834.91	20.175
835.21	19.666
835.51	19.493
835.81	18.983
836.11	18.535
836.40	18.656
836.70	18.291
837.00	18.015
837.30	18.189
837.60	18.415
837.90	18.438
838.19	18.800
838.49	18.834
838.79	19.074
839.09	19.436
839.39	20.007
839.68	19.606
839.98	19.604
840.28	19.918
840.58	19.292
840.88	19.181
841.17	18.826
841.47	18.359
841.77	18.001
842.07	18.132
842.36	18.132
842.66	16.915
842.96	16.559
843.26	16.356
843.55	14.613
843.85	13.956
844.15	12.873
844.45	12.188
844.74	11.947
845.04	12.837
845.34	11.483
845.63	11.897
845.93	12.467
846.23	14.409
846.53	14.653
846.82	15.194
847.12	15.421
847.42	15.613
847.71	17.104
848.01	16.495
848.31	16.663
848.60	18.253
848.90	17.621
849.19	17.065
849.49	15.008
849.79	15.399
850.08	16.840
850.38	16.739
850.68	16.942
850.97	16.056
851.27	16.999
851.56	16.623
851.86	15.011
852.16	16.083
852.45	16.283
852.75	18.143
853.04	16.926
853.34	17.502
853.64	17.822
853.93	18.716
854.23	18.940
854.52	19.147
854.82	18.609
855.11	19.201
855.41	17.966
855.70	18.619
856.00	16.672
856.30	17.540
856.59	16.165
856.89	15.888
857.18	15.410
857.48	16.156
857.77	15.892
858.07	15.802
858.36	16.312
858.66	16.699
858.95	15.437
859.25	16.399
859.54	17.348
859.84	17.736
860.13	18.204
860.42	18.408
860.72	18.492
861.01	18.003
861.31	18.455
861.60	18.898
861.90	18.888
862.19	19.026
862.49	18.609
862.78	18.173
863.07	17.259
863.37	17.836
863.66	17.851
863.96	17.128
864.25	18.125
864.54	18.394
864.84	17.636
865.13	17.608
865.43	18.486
865.72	25.470
866.01	17.536
866.31	17.887
866.60	15.775
866.89	20.105
>>>>>End Spectral Data<<<<<
