OOIBase32 Version 2.0.0.6 Data File
++++++++++++++++++++++++++++++++++++
Date: 01-23-2012, 22:17:30
User: Valued Ocean Optics Customer
Spectrometer Serial Number: USB2E2917
Spectrometer Channel: Master
Integration Time (msec): 5
Spectra Averaged: 10
Boxcar Smoothing: 5
Correct for Electrical Dark: Enabled
Time Normalized: Disabled
Dual-beam Reference: Disabled
Reference Channel: Master
Temperature: Not acquired
Spectrometer Type: S2000
ADC Type: USB2000
Number of Pixels in File: 2048
Graph Title: 
>>>>>Begin Spectral Data<<<<<
180.30	0.000
180.67	0.000
181.03	121.518
181.40	-130.798
181.77	10164.867
182.14	-76.959
182.51	122.798
182.88	-6753.761
183.25	-125.890
183.62	27.894
183.99	-11.212
184.36	117.964
184.73	-61.722
185.10	132.435
185.46	73.452
185.83	15.615
186.20	-42.558
186.57	199.228
186.94	-63.390
187.31	160.407
187.68	-33.419
188.05	-28.573
188.42	-33.214
188.78	-38.593
189.15	-33.830
189.52	-23.564
189.89	-22.969
190.26	-35.840
190.63	-17.551
191.00	-34.226
191.37	-16.469
191.73	-5.128
192.10	5.588
192.47	4.075
192.84	6.144
193.21	4.637
193.58	5.553
193.94	14.362
194.31	10.268
194.68	9.642
195.05	7.023
195.42	-7.615
195.79	-14.522
196.15	-10.213
196.52	0.298
196.89	-3.613
197.26	-2.762
197.63	-14.945
198.00	-21.896
198.36	-17.123
198.73	-21.323
199.10	-14.610
199.47	-11.969
199.84	-12.254
200.20	-5.578
200.57	-34.613
200.94	-23.534
201.31	-11.883
201.68	9.394
202.04	6.170
202.41	18.492
202.78	21.142
203.15	26.585
203.51	9.949
203.88	14.861
204.25	-3.020
204.62	11.752
204.98	8.131
205.35	3.721
205.72	-5.730
206.09	-7.334
206.46	-16.719
206.82	-27.556
207.19	-32.201
207.56	-18.804
207.92	-36.916
208.29	-34.692
208.66	-35.456
209.03	-19.949
209.39	-31.612
209.76	-33.030
210.13	-31.536
210.50	-48.578
210.86	-38.268
211.23	-27.381
211.60	-24.051
211.96	-15.333
212.33	-17.324
212.70	-15.223
213.07	-34.832
213.43	-29.423
213.80	-26.070
214.17	-34.683
214.53	-19.474
214.90	-20.053
215.27	-23.656
215.63	-30.933
216.00	-28.717
216.37	-16.070
216.74	-23.835
217.10	-18.762
217.47	-19.747
217.84	-19.720
218.20	2.761
218.57	-9.017
218.94	-3.315
219.30	-11.316
219.67	-11.533
220.04	-13.806
220.40	-22.405
220.77	-30.859
221.13	-35.967
221.50	-44.682
221.87	-38.846
222.23	-49.814
222.60	-36.670
222.97	-43.762
223.33	-38.932
223.70	-32.813
224.07	-22.493
224.43	-16.426
224.80	-6.304
225.16	-1.295
225.53	3.607
225.90	-2.117
226.26	-3.231
226.63	-3.779
226.99	0.154
227.36	1.801
227.73	2.112
228.09	-0.953
228.46	-2.268
228.82	-3.458
229.19	-4.483
229.56	-8.125
229.92	-5.160
230.29	-4.199
230.65	-3.817
231.02	-4.867
231.38	-6.143
231.75	-5.871
232.12	-3.689
232.48	-1.639
232.85	-3.098
233.21	-1.239
233.58	1.290
233.94	2.692
234.31	2.316
234.68	2.128
235.04	2.199
235.41	2.911
235.77	3.237
236.14	1.663
236.50	-2.204
236.87	-1.394
237.23	-3.429
237.60	-3.701
237.96	-4.345
238.33	-2.855
238.69	-2.253
239.06	-2.538
239.42	-2.958
239.79	-2.947
240.15	-2.125
240.52	-0.795
240.88	-0.389
241.25	0.718
241.61	1.073
241.98	1.467
242.34	1.287
242.71	1.786
243.07	2.370
243.44	2.788
243.80	2.632
244.17	2.512
244.53	2.460
244.90	2.349
245.26	2.336
245.63	2.018
245.99	1.787
246.36	1.933
246.72	1.670
247.09	1.466
247.45	1.144
247.81	0.910
248.18	0.602
248.54	0.616
248.91	0.544
249.27	0.184
249.64	0.395
250.00	0.625
250.36	0.475
250.73	0.616
251.09	1.010
251.46	1.054
251.82	1.614
252.19	2.338
252.55	2.055
252.91	1.732
253.28	1.476
253.64	1.719
254.01	1.894
254.37	1.976
254.73	2.182
255.10	2.030
255.46	2.273
255.83	1.961
256.19	1.943
256.55	2.093
256.92	2.207
257.28	2.318
257.65	2.507
258.01	2.544
258.37	2.366
258.74	2.294
259.10	2.289
259.46	2.264
259.83	2.479
260.19	2.216
260.55	2.121
260.92	1.963
261.28	1.885
261.64	1.495
262.01	1.331
262.37	1.347
262.73	0.998
263.10	0.878
263.46	1.070
263.82	1.100
264.19	1.098
264.55	0.837
264.91	1.053
265.28	1.449
265.64	1.366
266.00	1.049
266.37	0.948
266.73	1.239
267.09	1.125
267.46	1.193
267.82	1.194
268.18	1.397
268.54	1.679
268.91	2.023
269.27	1.886
269.63	1.833
270.00	2.026
270.36	2.086
270.72	1.987
271.08	1.862
271.45	1.665
271.81	1.898
272.17	2.017
272.53	1.922
272.90	1.635
273.26	1.545
273.62	1.829
273.98	1.755
274.35	1.800
274.71	1.960
275.07	2.176
275.43	2.413
275.80	2.132
276.16	2.095
276.52	1.948
276.88	1.808
277.25	1.681
277.61	1.670
277.97	1.426
278.33	1.071
278.69	0.948
279.06	1.201
279.42	1.092
279.78	1.109
280.14	1.279
280.50	1.500
280.87	1.834
281.23	2.160
281.59	2.061
281.95	2.473
282.31	2.814
282.68	2.969
283.04	2.820
283.40	2.824
283.76	2.623
284.12	2.502
284.48	2.563
284.85	2.406
285.21	2.177
285.57	2.284
285.93	2.260
286.29	2.267
286.65	2.245
287.02	2.176
287.38	2.106
287.74	2.270
288.10	2.262
288.46	2.140
288.82	2.111
289.18	2.002
289.54	1.840
289.91	1.752
290.27	1.679
290.63	1.663
290.99	1.566
291.35	1.553
291.71	1.798
292.07	1.708
292.43	1.674
292.79	1.737
293.16	1.928
293.52	1.975
293.88	2.134
294.24	2.157
294.60	1.975
294.96	2.080
295.32	2.285
295.68	1.949
296.04	2.151
296.40	2.159
296.76	2.172
297.12	2.222
297.49	2.328
297.85	2.262
298.21	2.244
298.57	2.271
298.93	2.290
299.29	2.151
299.65	2.332
300.01	2.327
300.37	2.196
300.73	2.378
301.09	2.444
301.45	2.436
301.81	2.364
302.17	2.475
302.53	2.685
302.89	2.523
303.25	2.427
303.61	2.476
303.97	2.336
304.33	2.364
304.69	2.123
305.05	2.036
305.41	1.839
305.77	1.858
306.13	1.686
306.49	1.620
306.85	1.810
307.21	1.966
307.57	1.947
307.93	1.994
308.29	2.259
308.65	2.276
309.01	2.233
309.37	2.429
309.73	2.345
310.09	2.363
310.45	2.298
310.81	2.240
311.17	2.097
311.53	2.072
311.89	2.087
312.25	1.870
312.61	1.898
312.96	1.932
313.32	1.911
313.68	1.962
314.04	1.983
314.40	1.948
314.76	1.987
315.12	2.162
315.48	2.245
315.84	2.017
316.20	2.196
316.56	2.217
316.92	2.216
317.27	2.139
317.63	2.111
317.99	2.033
318.35	2.013
318.71	2.042
319.07	1.946
319.43	1.866
319.79	2.032
320.15	1.895
320.50	1.788
320.86	1.866
321.22	1.859
321.58	1.882
321.94	1.950
322.30	1.987
322.66	1.910
323.01	1.894
323.37	1.898
323.73	1.852
324.09	1.943
324.45	2.015
324.81	1.852
325.17	1.776
325.52	1.859
325.88	1.820
326.24	1.836
326.60	1.957
326.96	2.048
327.31	2.003
327.67	2.098
328.03	2.076
328.39	2.066
328.75	2.135
329.11	2.279
329.46	2.149
329.82	2.147
330.18	2.157
330.54	2.173
330.90	2.087
331.25	2.040
331.61	1.879
331.97	1.812
332.33	1.882
332.68	1.830
333.04	1.784
333.40	1.886
333.76	1.985
334.11	1.871
334.47	1.779
334.83	1.845
335.19	1.965
335.54	2.093
335.90	2.154
336.26	2.075
336.62	2.122
336.97	2.026
337.33	1.979
337.69	1.907
338.05	1.974
338.40	1.990
338.76	1.871
339.12	1.810
339.48	1.862
339.83	1.885
340.19	1.942
340.55	1.844
340.90	1.941
341.26	1.856
341.62	1.864
341.97	1.944
342.33	1.999
342.69	2.058
343.04	2.107
343.40	2.009
343.76	1.996
344.12	1.985
344.47	2.065
344.83	1.913
345.19	1.930
345.54	1.986
345.90	1.956
346.26	1.883
346.61	1.943
346.97	1.934
347.32	1.973
347.68	1.921
348.04	1.911
348.39	2.001
348.75	2.232
349.11	2.241
349.46	2.156
349.82	2.159
350.18	2.162
350.53	2.045
350.89	2.062
351.24	2.057
351.60	2.083
351.96	2.051
352.31	2.047
352.67	1.974
353.02	2.033
353.38	2.090
353.74	2.067
354.09	2.090
354.45	2.172
354.80	2.113
355.16	2.069
355.52	2.118
355.87	2.138
356.23	2.049
356.58	2.089
356.94	2.100
357.29	2.099
357.65	2.090
358.00	2.118
358.36	2.100
358.72	2.175
359.07	2.233
359.43	2.253
359.78	2.273
360.14	2.270
360.49	2.205
360.85	2.187
361.20	2.230
361.56	2.279
361.91	2.259
362.27	2.262
362.62	2.242
362.98	2.236
363.33	2.167
363.69	2.133
364.04	2.189
364.40	2.230
364.75	2.227
365.11	2.236
365.46	2.253
365.82	2.255
366.17	2.247
366.53	2.285
366.88	2.277
367.24	2.330
367.59	2.386
367.95	2.418
368.30	2.389
368.66	2.400
369.01	2.385
369.37	2.388
369.72	2.404
370.08	2.461
370.43	2.430
370.78	2.425
371.14	2.414
371.49	2.411
371.85	2.357
372.20	2.416
372.56	2.428
372.91	2.353
373.26	2.313
373.62	2.272
373.97	2.304
374.33	2.254
374.68	2.270
375.03	2.289
375.39	2.227
375.74	2.248
376.10	2.216
376.45	2.215
376.80	2.291
377.16	2.335
377.51	2.389
377.87	2.282
378.22	2.331
378.57	2.390
378.93	2.365
379.28	2.437
379.63	2.448
379.99	2.478
380.34	2.529
380.70	2.553
381.05	2.587
381.40	2.552
381.76	2.619
382.11	2.632
382.46	2.566
382.82	2.582
383.17	2.583
383.52	2.587
383.88	2.560
384.23	2.536
384.58	2.487
384.94	2.443
385.29	2.529
385.64	2.550
385.99	2.562
386.35	2.624
386.70	2.632
387.05	2.630
387.41	2.652
387.76	2.649
388.11	2.616
388.47	2.646
388.82	2.631
389.17	2.567
389.52	2.564
389.88	2.569
390.23	2.546
390.58	2.550
390.93	2.532
391.29	2.508
391.64	2.583
391.99	2.599
392.34	2.595
392.70	2.629
393.05	2.646
393.40	2.619
393.75	2.628
394.11	2.616
394.46	2.615
394.81	2.609
395.16	2.591
395.52	2.563
395.87	2.540
396.22	2.502
396.57	2.480
396.92	2.475
397.28	2.511
397.63	2.465
397.98	2.484
398.33	2.471
398.68	2.497
399.04	2.513
399.39	2.489
399.74	2.512
400.09	2.554
400.44	2.555
400.80	2.540
401.15	2.501
401.50	2.493
401.85	2.536
402.20	2.538
402.55	2.545
402.90	2.548
403.26	2.562
403.61	2.598
403.96	2.598
404.31	2.608
404.66	2.620
405.01	2.658
405.36	2.685
405.72	2.623
406.07	2.653
406.42	2.658
406.77	2.636
407.12	2.637
407.47	2.615
407.82	2.607
408.17	2.585
408.53	2.604
408.88	2.597
409.23	2.618
409.58	2.626
409.93	2.621
410.28	2.608
410.63	2.652
410.98	2.667
411.33	2.637
411.68	2.631
412.03	2.674
412.38	2.686
412.73	2.690
413.09	2.681
413.44	2.687
413.79	2.697
414.14	2.700
414.49	2.706
414.84	2.718
415.19	2.756
415.54	2.798
415.89	2.787
416.24	2.809
416.59	2.817
416.94	2.845
417.29	2.872
417.64	2.886
417.99	2.903
418.34	2.916
418.69	2.906
419.04	2.924
419.39	2.923
419.74	2.941
420.09	2.936
420.44	2.946
420.79	2.935
421.14	2.926
421.49	2.918
421.84	2.928
422.19	2.920
422.54	2.948
422.89	2.932
423.24	2.927
423.59	2.921
423.94	2.929
424.29	2.927
424.64	2.930
424.99	2.947
425.34	2.962
425.68	2.963
426.03	2.983
426.38	2.959
426.73	2.983
427.08	3.008
427.43	3.020
427.78	3.025
428.13	3.040
428.48	3.060
428.83	3.070
429.18	3.072
429.53	3.067
429.87	3.070
430.22	3.068
430.57	3.060
430.92	3.049
431.27	3.050
431.62	3.017
431.97	2.988
432.32	2.982
432.67	2.965
433.01	2.953
433.36	2.954
433.71	2.939
434.06	2.964
434.41	2.977
434.76	3.001
435.11	2.990
435.45	3.024
435.80	3.038
436.15	3.051
436.50	3.059
436.85	3.054
437.20	3.061
437.54	3.064
437.89	3.050
438.24	3.041
438.59	3.018
438.94	3.028
439.29	3.032
439.63	3.044
439.98	3.042
440.33	3.056
440.68	3.073
441.03	3.077
441.37	3.083
441.72	3.090
442.07	3.105
442.42	3.118
442.76	3.132
443.11	3.120
443.46	3.123
443.81	3.126
444.16	3.127
444.50	3.124
444.85	3.141
445.20	3.150
445.55	3.146
445.89	3.140
446.24	3.147
446.59	3.141
446.94	3.166
447.28	3.165
447.63	3.154
447.98	3.160
448.32	3.169
448.67	3.139
449.02	3.141
449.37	3.152
449.71	3.155
450.06	3.123
450.41	3.125
450.75	3.120
451.10	3.121
451.45	3.139
451.79	3.118
452.14	3.121
452.49	3.137
452.84	3.138
453.18	3.124
453.53	3.134
453.88	3.158
454.22	3.150
454.57	3.144
454.92	3.155
455.26	3.167
455.61	3.183
455.95	3.186
456.30	3.203
456.65	3.215
456.99	3.237
457.34	3.254
457.69	3.276
458.03	3.287
458.38	3.290
458.73	3.294
459.07	3.298
459.42	3.304
459.76	3.312
460.11	3.306
460.46	3.298
460.80	3.303
461.15	3.294
461.49	3.288
461.84	3.301
462.19	3.310
462.53	3.317
462.88	3.312
463.22	3.297
463.57	3.314
463.91	3.331
464.26	3.358
464.61	3.354
464.95	3.376
465.30	3.363
465.64	3.351
465.99	3.355
466.33	3.358
466.68	3.374
467.02	3.411
467.37	3.414
467.71	3.399
468.06	3.387
468.41	3.382
468.75	3.371
469.10	3.377
469.44	3.388
469.79	3.389
470.13	3.396
470.48	3.353
470.82	3.332
471.17	3.317
471.51	3.305
471.86	3.315
472.20	3.324
472.55	3.337
472.89	3.338
473.23	3.342
473.58	3.357
473.92	3.367
474.27	3.398
474.61	3.408
474.96	3.427
475.30	3.435
475.65	3.431
475.99	3.431
476.34	3.420
476.68	3.431
477.02	3.436
477.37	3.432
477.71	3.429
478.06	3.451
478.40	3.483
478.75	3.519
479.09	3.568
479.43	3.626
479.78	3.692
480.12	3.760
480.47	3.839
480.81	3.919
481.15	3.990
481.50	4.066
481.84	4.152
482.19	4.232
482.53	4.306
482.87	4.349
483.22	4.347
483.56	4.308
483.90	4.249
484.25	4.162
484.59	4.078
484.94	4.021
485.28	3.960
485.62	3.886
485.97	3.802
486.31	3.720
486.65	3.682
487.00	3.679
487.34	3.703
487.68	3.733
488.03	3.773
488.37	3.810
488.71	3.822
489.06	3.832
489.40	3.819
489.74	3.815
490.09	3.819
490.43	3.798
490.77	3.774
491.11	3.759
491.46	3.756
491.80	3.754
492.14	3.745
492.49	3.725
492.83	3.697
493.17	3.683
493.51	3.675
493.86	3.655
494.20	3.647
494.54	3.636
494.88	3.638
495.23	3.637
495.57	3.644
495.91	3.654
496.25	3.654
496.60	3.651
496.94	3.663
497.28	3.663
497.62	3.676
497.97	3.688
498.31	3.709
498.65	3.699
498.99	3.711
499.33	3.706
499.68	3.698
500.02	3.699
500.36	3.704
500.70	3.685
501.04	3.687
501.39	3.652
501.73	3.665
502.07	3.663
502.41	3.673
502.75	3.658
503.09	3.658
503.44	3.663
503.78	3.675
504.12	3.684
504.46	3.707
504.80	3.720
505.14	3.749
505.49	3.746
505.83	3.764
506.17	3.779
506.51	3.788
506.85	3.802
507.19	3.811
507.53	3.812
507.87	3.811
508.22	3.818
508.56	3.817
508.90	3.823
509.24	3.834
509.58	3.848
509.92	3.847
510.26	3.846
510.60	3.849
510.94	3.844
511.28	3.857
511.63	3.879
511.97	3.897
512.31	3.899
512.65	3.910
512.99	3.904
513.33	3.901
513.67	3.923
514.01	3.959
514.35	3.991
514.69	4.016
515.03	4.039
515.37	4.059
515.71	4.065
516.05	4.080
516.39	4.092
516.73	4.111
517.07	4.124
517.41	4.138
517.75	4.128
518.09	4.118
518.43	4.123
518.77	4.120
519.11	4.116
519.45	4.129
519.79	4.128
520.13	4.136
520.47	4.133
520.81	4.141
521.15	4.146
521.49	4.163
521.83	4.168
522.17	4.197
522.51	4.215
522.85	4.245
523.19	4.273
523.53	4.333
523.87	4.390
524.21	4.454
524.55	4.508
524.89	4.555
525.23	4.605
525.57	4.653
525.91	4.685
526.25	4.722
526.58	4.747
526.92	4.764
527.26	4.774
527.60	4.773
527.94	4.772
528.28	4.766
528.62	4.753
528.96	4.731
529.30	4.719
529.64	4.705
529.97	4.692
530.31	4.675
530.65	4.668
530.99	4.657
531.33	4.653
531.67	4.654
532.01	4.655
532.35	4.664
532.68	4.685
533.02	4.681
533.36	4.675
533.70	4.663
534.04	4.661
534.38	4.656
534.71	4.652
535.05	4.660
535.39	4.654
535.73	4.643
536.07	4.634
536.41	4.640
536.74	4.667
537.08	4.686
537.42	4.718
537.76	4.750
538.10	4.780
538.43	4.808
538.77	4.827
539.11	4.849
539.45	4.881
539.79	4.909
540.12	4.918
540.46	4.920
540.80	4.922
541.14	4.915
541.47	4.915
541.81	4.907
542.15	4.902
542.49	4.882
542.82	4.868
543.16	4.860
543.50	4.844
543.84	4.832
544.17	4.822
544.51	4.818
544.85	4.823
545.18	4.807
545.52	4.812
545.86	4.805
546.20	4.808
546.53	4.802
546.87	4.778
547.21	4.763
547.54	4.755
547.88	4.751
548.22	4.765
548.55	4.763
548.89	4.779
549.23	4.777
549.56	4.786
549.90	4.806
550.24	4.816
550.57	4.852
550.91	4.855
551.25	4.877
551.58	4.900
551.92	4.901
552.26	4.896
552.59	4.899
552.93	4.903
553.27	4.929
553.60	4.933
553.94	4.948
554.27	4.938
554.61	4.969
554.95	4.997
555.28	4.999
555.62	5.013
555.95	5.042
556.29	5.061
556.63	5.093
556.96	5.106
557.30	5.141
557.63	5.155
557.97	5.172
558.31	5.200
558.64	5.195
558.98	5.227
559.31	5.232
559.65	5.246
559.98	5.246
560.32	5.256
560.65	5.269
560.99	5.265
561.33	5.289
561.66	5.319
562.00	5.326
562.33	5.361
562.67	5.350
563.00	5.393
563.34	5.417
563.67	5.444
564.01	5.461
564.34	5.466
564.68	5.490
565.01	5.501
565.35	5.492
565.68	5.503
566.02	5.490
566.35	5.516
566.69	5.520
567.02	5.528
567.36	5.532
567.69	5.545
568.03	5.574
568.36	5.587
568.69	5.593
569.03	5.629
569.36	5.639
569.70	5.639
570.03	5.666
570.37	5.665
570.70	5.675
571.04	5.693
571.37	5.691
571.70	5.697
572.04	5.716
572.37	5.738
572.71	5.748
573.04	5.769
573.37	5.812
573.71	5.808
574.04	5.845
574.38	5.861
574.71	5.878
575.04	5.909
575.38	5.908
575.71	5.906
576.05	5.907
576.38	5.930
576.71	5.923
577.05	5.921
577.38	5.959
577.71	5.963
578.05	5.973
578.38	5.974
578.71	5.954
579.05	5.961
579.38	5.993
579.71	5.988
580.05	5.947
580.38	5.973
580.71	5.983
581.05	5.978
581.38	5.982
581.71	5.978
582.05	5.981
582.38	6.003
582.71	6.020
583.04	5.992
583.38	6.025
583.71	6.054
584.04	6.072
584.38	6.077
584.71	6.080
585.04	6.083
585.37	6.116
585.71	6.149
586.04	6.179
586.37	6.198
586.70	6.239
587.04	6.239
587.37	6.252
587.70	6.269
588.03	6.311
588.37	6.327
588.70	6.335
589.03	6.337
589.36	6.325
589.69	6.303
590.03	6.296
590.36	6.288
590.69	6.298
591.02	6.300
591.35	6.269
591.69	6.248
592.02	6.260
592.35	6.279
592.68	6.282
593.01	6.306
593.35	6.338
593.68	6.358
594.01	6.344
594.34	6.360
594.67	6.388
595.00	6.414
595.34	6.435
595.67	6.428
596.00	6.436
596.33	6.439
596.66	6.431
596.99	6.431
597.32	6.444
597.65	6.497
597.99	6.488
598.32	6.458
598.65	6.467
598.98	6.468
599.31	6.476
599.64	6.489
599.97	6.504
600.30	6.498
600.63	6.515
600.96	6.533
601.30	6.522
601.63	6.534
601.96	6.575
602.29	6.583
602.62	6.612
602.95	6.635
603.28	6.625
603.61	6.632
603.94	6.679
604.27	6.688
604.60	6.670
604.93	6.685
605.26	6.736
605.59	6.758
605.92	6.756
606.25	6.725
606.58	6.737
606.91	6.765
607.24	6.792
607.57	6.784
607.90	6.815
608.23	6.836
608.56	6.854
608.89	6.847
609.22	6.835
609.55	6.866
609.88	6.885
610.21	6.873
610.54	6.869
610.87	6.871
611.20	6.867
611.53	6.833
611.86	6.846
612.19	6.868
612.52	6.857
612.85	6.867
613.18	6.838
613.51	6.850
613.84	6.866
614.17	6.859
614.49	6.859
614.82	6.903
615.15	6.952
615.48	6.987
615.81	6.978
616.14	7.014
616.47	7.041
616.80	7.083
617.13	7.094
617.46	7.114
617.78	7.135
618.11	7.135
618.44	7.119
618.77	7.114
619.10	7.116
619.43	7.098
619.76	7.087
620.09	7.092
620.41	7.119
620.74	7.157
621.07	7.162
621.40	7.184
621.73	7.251
622.06	7.308
622.38	7.344
622.71	7.352
623.04	7.386
623.37	7.427
623.70	7.434
624.02	7.456
624.35	7.498
624.68	7.537
625.01	7.570
625.34	7.590
625.66	7.610
625.99	7.626
626.32	7.664
626.65	7.690
626.98	7.702
627.30	7.742
627.63	7.742
627.96	7.764
628.29	7.784
628.61	7.824
628.94	7.837
629.27	7.841
629.60	7.899
629.92	7.896
630.25	7.944
630.58	7.956
630.91	7.960
631.23	8.014
631.56	7.977
631.89	8.012
632.21	8.004
632.54	8.013
632.87	8.050
633.19	8.009
633.52	8.023
633.85	8.011
634.18	8.006
634.50	8.050
634.83	8.012
635.16	8.086
635.48	8.055
635.81	8.097
636.14	8.110
636.46	8.097
636.79	8.134
637.11	8.175
637.44	8.202
637.77	8.239
638.09	8.235
638.42	8.282
638.75	8.265
639.07	8.295
639.40	8.279
639.73	8.315
640.05	8.354
640.38	8.365
640.70	8.347
641.03	8.390
641.36	8.425
641.68	8.444
642.01	8.449
642.33	8.482
642.66	8.559
642.98	8.573
643.31	8.562
643.64	8.561
643.96	8.579
644.29	8.600
644.61	8.627
644.94	8.668
645.26	8.729
645.59	8.785
645.91	8.822
646.24	8.805
646.56	8.831
646.89	8.881
647.22	8.907
647.54	8.965
647.87	9.003
648.19	8.988
648.52	9.017
648.84	9.043
649.17	9.050
649.49	9.027
649.82	9.048
650.14	9.067
650.47	9.056
650.79	9.074
651.11	9.056
651.44	9.053
651.76	9.077
652.09	9.044
652.41	9.009
652.74	9.014
653.06	9.062
653.39	9.130
653.71	9.198
654.04	9.255
654.36	9.350
654.68	9.366
655.01	9.427
655.33	9.467
655.66	9.500
655.98	9.504
656.30	9.519
656.63	9.538
656.95	9.507
657.28	9.509
657.60	9.480
657.92	9.413
658.25	9.429
658.57	9.428
658.90	9.411
659.22	9.420
659.54	9.472
659.87	9.476
660.19	9.444
660.51	9.459
660.84	9.506
661.16	9.534
661.48	9.553
661.81	9.551
662.13	9.571
662.45	9.585
662.78	9.587
663.10	9.566
663.42	9.634
663.75	9.685
664.07	9.686
664.39	9.623
664.72	9.598
665.04	9.614
665.36	9.610
665.69	9.615
666.01	9.652
666.33	9.724
666.65	9.744
666.98	9.739
667.30	9.724
667.62	9.730
667.94	9.780
668.27	9.846
668.59	9.857
668.91	9.892
669.23	9.964
669.56	10.008
669.88	9.971
670.20	9.969
670.52	9.970
670.85	10.072
671.17	10.144
671.49	10.181
671.81	10.185
672.13	10.227
672.46	10.287
672.78	10.220
673.10	10.141
673.42	10.201
673.74	10.272
674.07	10.340
674.39	10.298
674.71	10.339
675.03	10.364
675.35	10.435
675.67	10.504
676.00	10.578
676.32	10.688
676.64	10.783
676.96	10.820
677.28	10.884
677.60	10.941
677.92	11.026
678.25	11.053
678.57	11.055
678.89	11.071
679.21	11.110
679.53	11.163
679.85	11.180
680.17	11.236
680.49	11.298
680.81	11.304
681.13	11.344
681.46	11.405
681.78	11.479
682.10	11.573
682.42	11.655
682.74	11.691
683.06	11.720
683.38	11.779
683.70	11.862
684.02	11.855
684.34	11.878
684.66	11.940
684.98	11.980
685.30	12.072
685.62	12.138
685.94	12.193
686.26	12.261
686.58	12.314
686.90	12.458
687.22	12.455
687.54	12.575
687.86	12.652
688.18	12.644
688.50	12.643
688.82	12.642
689.14	12.600
689.46	12.627
689.78	12.609
690.10	12.644
690.42	12.513
690.74	12.568
691.06	12.579
691.38	12.617
691.70	12.631
692.02	12.670
692.34	12.646
692.66	12.723
692.98	12.756
693.30	12.885
693.62	12.882
693.94	12.937
694.26	12.947
694.57	12.970
694.89	12.984
695.21	13.120
695.53	13.153
695.85	13.167
696.17	13.217
696.49	13.294
696.81	13.332
697.13	13.368
697.44	13.448
697.76	13.486
698.08	13.545
698.40	13.581
698.72	13.518
699.04	13.533
699.36	13.561
699.67	13.551
699.99	13.444
700.31	13.417
700.63	13.444
700.95	13.430
701.27	13.418
701.58	13.343
701.90	13.278
702.22	13.308
702.54	13.313
702.86	13.381
703.17	13.399
703.49	13.552
703.81	13.531
704.13	13.534
704.45	13.596
704.76	13.575
705.08	13.650
705.40	13.757
705.72	13.756
706.03	13.823
706.35	13.832
706.67	13.901
706.99	13.890
707.30	13.926
707.62	14.021
707.94	14.031
708.26	14.196
708.57	14.304
708.89	14.384
709.21	14.460
709.53	14.478
709.84	14.586
710.16	14.677
710.48	14.799
710.79	14.815
711.11	14.844
711.43	14.836
711.74	14.785
712.06	14.805
712.38	14.820
712.69	14.868
713.01	15.021
713.33	15.046
713.64	15.033
713.96	15.112
714.28	15.332
714.59	15.386
714.91	15.605
715.23	15.846
715.54	15.975
715.86	16.061
716.17	16.266
716.49	16.327
716.81	16.432
717.12	16.499
717.44	16.524
717.76	16.547
718.07	16.648
718.39	16.561
718.70	16.504
719.02	16.393
719.33	16.464
719.65	16.437
719.97	16.457
720.28	16.482
720.60	16.692
720.91	16.728
721.23	16.764
721.54	16.798
721.86	16.979
722.17	17.083
722.49	17.140
722.81	17.217
723.12	17.245
723.44	17.256
723.75	17.302
724.07	17.279
724.38	17.338
724.70	17.418
725.01	17.499
725.33	17.538
725.64	17.640
725.96	17.730
726.27	17.642
726.59	17.625
726.90	17.705
727.22	17.787
727.53	17.823
727.84	17.847
728.16	17.748
728.47	17.714
728.79	17.706
729.10	17.691
729.42	17.792
729.73	17.817
730.05	17.938
730.36	17.958
730.67	17.910
730.99	17.881
731.30	17.799
731.62	17.684
731.93	17.737
732.24	17.663
732.56	17.663
732.87	17.487
733.19	17.611
733.50	17.545
733.81	17.480
734.13	17.450
734.44	17.411
734.76	17.469
735.07	17.643
735.38	17.577
735.70	17.644
736.01	17.525
736.32	17.731
736.64	17.793
736.95	17.738
737.26	17.754
737.58	17.802
737.89	17.930
738.20	17.994
738.52	18.122
738.83	18.074
739.14	18.093
739.45	18.312
739.77	18.288
740.08	18.275
740.39	18.299
740.71	18.383
741.02	18.518
741.33	18.609
741.64	18.516
741.96	18.394
742.27	18.417
742.58	18.430
742.90	18.350
743.21	18.196
743.52	18.304
743.83	18.586
744.14	18.515
744.46	18.411
744.77	18.212
745.08	18.369
745.39	18.320
745.71	18.499
746.02	18.505
746.33	18.436
746.64	18.542
746.95	18.454
747.27	18.458
747.58	18.537
747.89	18.703
748.20	18.821
748.51	18.743
748.82	18.871
749.14	18.757
749.45	18.820
749.76	18.804
750.07	18.854
750.38	19.035
750.69	19.155
751.01	19.223
751.32	19.233
751.63	19.168
751.94	19.333
752.25	19.446
752.56	19.610
752.87	19.631
753.18	19.671
753.49	19.766
753.81	19.580
754.12	19.430
754.43	19.738
754.74	19.948
755.05	20.222
755.36	20.306
755.67	20.511
755.98	20.745
756.29	20.977
756.60	21.296
756.91	21.664
757.22	22.108
757.53	22.387
757.84	22.478
758.15	22.675
758.46	22.965
758.77	23.234
759.09	23.498
759.40	23.716
759.71	24.031
760.02	24.174
760.33	24.200
760.64	24.326
760.95	24.404
761.26	24.394
761.57	24.449
761.88	24.335
762.18	24.399
762.49	24.376
762.80	24.307
763.11	24.134
763.42	24.029
763.73	23.960
764.04	23.706
764.35	23.567
764.66	23.370
764.97	23.140
765.28	23.155
765.59	22.783
765.90	22.560
766.21	22.505
766.52	22.310
766.83	22.210
767.14	22.109
767.44	22.033
767.75	21.848
768.06	21.940
768.37	21.811
768.68	21.808
768.99	21.922
769.30	21.884
769.61	21.564
769.91	21.608
770.22	21.596
770.53	21.505
770.84	21.605
771.15	21.886
771.46	21.752
771.77	21.579
772.07	21.365
772.38	21.190
772.69	20.967
773.00	21.020
773.31	21.179
773.61	21.046
773.92	21.058
774.23	21.035
774.54	20.733
774.85	20.797
775.15	20.999
775.46	20.935
775.77	21.010
776.08	21.155
776.39	21.176
776.69	21.098
777.00	21.177
777.31	21.345
777.62	21.470
777.92	21.783
778.23	21.947
778.54	21.860
778.85	22.140
779.15	22.141
779.46	22.256
779.77	22.407
780.07	22.205
780.38	22.301
780.69	22.116
781.00	21.962
781.30	21.821
781.61	21.865
781.92	22.150
782.22	21.979
782.53	22.195
782.84	22.260
783.14	22.283
783.45	22.642
783.76	22.826
784.06	22.982
784.37	23.160
784.68	23.269
784.98	23.407
785.29	23.677
785.60	24.207
785.90	24.561
786.21	24.459
786.51	24.628
786.82	24.531
787.13	24.799
787.43	25.243
787.74	25.340
788.04	25.574
788.35	25.431
788.66	25.233
788.96	24.999
789.27	24.995
789.57	25.235
789.88	25.396
790.19	25.729
790.49	25.555
790.80	25.261
791.10	25.040
791.41	24.911
791.71	25.081
792.02	25.393
792.32	25.467
792.63	25.584
792.93	25.812
793.24	25.643
793.54	25.741
793.85	26.167
794.15	26.267
794.46	26.463
794.76	26.580
795.07	26.705
795.37	26.527
795.68	26.391
795.98	26.165
796.29	26.292
796.59	26.565
796.90	26.440
797.20	26.293
797.51	26.099
797.81	26.244
798.12	26.116
798.42	25.900
798.72	26.192
799.03	26.321
799.33	26.459
799.64	26.198
799.94	25.941
800.25	26.127
800.55	26.044
800.85	25.966
801.16	26.012
801.46	26.092
801.77	26.070
802.07	25.615
802.37	25.748
802.68	25.899
802.98	25.780
803.28	26.039
803.59	25.621
803.89	25.809
804.20	26.222
804.50	26.239
804.80	26.052
805.11	26.403
805.41	26.755
805.71	26.704
806.02	26.401
806.32	26.681
806.62	26.529
806.93	26.917
807.23	27.107
807.53	27.004
807.83	27.088
808.14	27.236
808.44	27.394
808.74	27.695
809.05	27.940
809.35	28.480
809.65	28.365
809.95	28.666
810.26	28.739
810.56	28.859
810.86	29.334
811.16	29.642
811.47	30.174
811.77	30.438
812.07	30.341
812.37	29.916
812.68	29.805
812.98	30.769
813.28	30.873
813.58	30.680
813.88	30.040
814.19	29.861
814.49	30.095
814.79	30.126
815.09	29.786
815.39	30.002
815.70	30.733
816.00	30.891
816.30	30.316
816.60	30.335
816.90	31.162
817.20	31.830
817.50	32.488
817.81	32.697
818.11	32.958
818.41	33.333
818.71	33.274
819.01	33.256
819.31	33.373
819.61	33.327
819.92	33.358
820.22	33.330
820.52	33.316
820.82	33.177
821.12	33.181
821.42	33.083
821.72	32.997
822.02	32.942
822.32	32.920
822.62	32.799
822.92	32.790
823.22	32.749
823.52	32.729
823.83	32.703
824.13	32.720
824.43	32.519
824.73	32.440
825.03	32.418
825.33	32.433
825.63	32.465
825.93	32.394
826.23	32.452
826.53	32.403
826.83	32.264
827.13	32.142
827.43	31.995
827.73	32.105
828.03	32.186
828.33	32.124
828.63	32.273
828.93	32.070
829.23	32.197
829.53	32.215
829.83	32.228
830.13	32.018
830.42	32.033
830.72	32.448
831.02	32.625
831.32	32.862
831.62	32.674
831.92	32.537
832.22	32.812
832.52	32.888
832.82	32.921
833.12	32.910
833.42	33.075
833.72	33.236
834.01	32.916
834.31	32.697
834.61	32.552
834.91	32.888
835.21	32.924
835.51	32.608
835.81	32.865
836.11	32.920
836.40	32.737
836.70	32.731
837.00	32.437
837.30	32.403
837.60	32.412
837.90	32.675
838.19	32.109
838.49	32.220
838.79	32.200
839.09	31.610
839.39	31.115
839.68	31.439
839.98	31.374
840.28	31.342
840.58	31.650
840.88	31.979
841.17	31.437
841.47	31.978
841.77	31.914
842.07	31.313
842.36	31.468
842.66	30.919
842.96	31.242
843.26	30.170
843.55	29.724
843.85	29.074
844.15	28.023
844.45	28.572
844.74	28.355
845.04	28.008
845.34	28.780
845.63	28.020
845.93	28.361
846.23	26.876
846.53	28.026
846.82	27.501
847.12	26.201
847.42	24.691
847.71	22.938
848.01	23.811
848.31	23.573
848.60	22.088
848.90	21.267
849.19	21.710
849.49	22.914
849.79	21.716
850.08	21.377
850.38	23.387
850.68	25.831
850.97	27.938
851.27	26.736
851.56	26.539
851.86	26.874
852.16	27.875
852.45	28.544
852.75	28.531
853.04	29.943
853.34	32.069
853.64	31.551
853.93	30.977
854.23	29.048
854.52	29.140
854.82	30.017
855.11	31.135
855.41	31.227
855.70	29.553
856.00	29.124
856.30	28.813
856.59	28.310
856.89	29.172
857.18	29.028
857.48	30.407
857.77	28.257
858.07	27.437
858.36	27.243
858.66	28.029
858.95	28.710
859.25	27.774
859.54	26.826
859.84	26.211
860.13	25.008
860.42	25.859
860.72	25.414
861.01	27.244
861.31	27.356
861.60	27.486
861.90	26.977
862.19	26.424
862.49	26.673
862.78	28.584
863.07	28.774
863.37	28.053
863.66	25.607
863.96	25.327
864.25	25.876
864.54	27.089
864.84	26.135
865.13	25.749
865.43	26.524
865.72	35.885
866.01	41.004
866.31	17.979
866.60	24.869
866.89	29.587
>>>>>End Spectral Data<<<<<
