OOIBase32 Version 2.0.0.6 Data File
++++++++++++++++++++++++++++++++++++
Date: 01-18-2012, 23:01:23
User: Valued Ocean Optics Customer
Spectrometer Serial Number: USB2E2917
Spectrometer Channel: Master
Integration Time (msec): 5
Spectra Averaged: 10
Boxcar Smoothing: 5
Correct for Electrical Dark: Enabled
Time Normalized: Disabled
Dual-beam Reference: Disabled
Reference Channel: Master
Temperature: Not acquired
Spectrometer Type: S2000
ADC Type: USB2000
Number of Pixels in File: 2048
Graph Title: 
>>>>>Begin Spectral Data<<<<<
180.30	0.000
180.67	0.000
181.03	-142.439
181.40	10.223
181.77	61.953
182.14	-38.431
182.51	-17.065
182.88	1141.375
183.25	-5.877
183.62	147.784
183.99	278.906
184.36	-14.000
184.73	121.455
185.10	116.413
185.46	25.589
185.83	347.239
186.20	25.440
186.57	-90.616
186.94	27.963
187.31	358.042
187.68	83.633
188.05	66.086
188.42	83.897
188.78	41.741
189.15	57.636
189.52	45.448
189.89	-39.841
190.26	-20.084
190.63	-58.731
191.00	-34.170
191.37	-11.487
191.73	-23.004
192.10	6.637
192.47	-0.541
192.84	3.276
193.21	11.615
193.58	23.291
193.94	15.939
194.31	20.727
194.68	25.860
195.05	26.532
195.42	22.591
195.79	22.508
196.15	9.675
196.52	22.619
196.89	24.644
197.26	15.733
197.63	15.087
198.00	30.272
198.36	30.013
198.73	16.633
199.10	8.781
199.47	-9.887
199.84	-12.430
200.20	-21.915
200.57	-36.491
200.94	-37.644
201.31	-23.604
201.68	-28.228
202.04	-9.502
202.41	-20.513
202.78	1.507
203.15	-8.445
203.51	-8.776
203.88	-20.213
204.25	-3.581
204.62	-0.013
204.98	-0.369
205.35	-24.996
205.72	-36.119
206.09	-55.526
206.46	-52.902
206.82	-61.760
207.19	-30.613
207.56	4.256
207.92	25.713
208.29	33.559
208.66	21.851
209.03	-4.397
209.39	16.351
209.76	15.289
210.13	-0.472
210.50	-1.058
210.86	10.478
211.23	24.560
211.60	15.258
211.96	11.974
212.33	-20.526
212.70	7.667
213.07	34.019
213.43	24.260
213.80	37.827
214.17	41.820
214.53	39.298
214.90	32.967
215.27	30.602
215.63	23.930
216.00	22.219
216.37	26.878
216.74	17.457
217.10	18.044
217.47	12.725
217.84	3.483
218.20	0.387
218.57	-0.010
218.94	9.582
219.30	5.330
219.67	10.720
220.04	9.041
220.40	10.763
220.77	26.626
221.13	25.855
221.50	32.975
221.87	36.782
222.23	28.052
222.60	28.140
222.97	22.280
223.33	20.758
223.70	23.127
224.07	22.859
224.43	21.538
224.80	11.638
225.16	8.896
225.53	5.137
225.90	4.711
226.26	7.333
226.63	8.130
226.99	9.235
227.36	9.488
227.73	7.848
228.09	6.233
228.46	5.796
228.82	7.391
229.19	8.634
229.56	10.192
229.92	9.313
230.29	10.324
230.65	10.386
231.02	9.268
231.38	7.416
231.75	6.569
232.12	7.060
232.48	7.626
232.85	5.220
233.21	3.099
233.58	1.647
233.94	3.701
234.31	4.499
234.68	5.284
235.04	5.335
235.41	5.658
235.77	6.400
236.14	8.129
236.50	6.437
236.87	7.272
237.23	6.086
237.60	5.136
237.96	3.973
238.33	2.135
238.69	1.383
239.06	1.077
239.42	1.293
239.79	0.952
240.15	0.425
240.52	1.134
240.88	0.985
241.25	1.797
241.61	2.116
241.98	2.423
242.34	2.816
242.71	2.756
243.07	2.940
243.44	2.941
243.80	3.281
244.17	3.664
244.53	3.610
244.90	3.895
245.26	4.035
245.63	4.264
245.99	3.989
246.36	4.280
246.72	4.571
247.09	4.800
247.45	4.944
247.81	5.046
248.18	5.198
248.54	5.500
248.91	5.505
249.27	5.210
249.64	5.416
250.00	5.718
250.36	6.024
250.73	5.720
251.09	5.086
251.46	5.099
251.82	5.017
252.19	4.686
252.55	4.101
252.91	3.893
253.28	4.494
253.64	4.886
254.01	5.020
254.37	4.524
254.73	4.755
255.10	5.252
255.46	5.042
255.83	4.784
256.19	5.121
256.55	5.068
256.92	4.965
257.28	4.876
257.65	4.298
258.01	4.262
258.37	4.247
258.74	4.163
259.10	4.105
259.46	4.118
259.83	4.001
260.19	3.812
260.55	3.954
260.92	3.906
261.28	3.862
261.64	4.277
262.01	3.865
262.37	3.559
262.73	3.556
263.10	3.437
263.46	3.291
263.82	3.496
264.19	3.134
264.55	3.004
264.91	3.094
265.28	3.230
265.64	3.153
266.00	3.321
266.37	3.339
266.73	3.314
267.09	3.393
267.46	3.613
267.82	3.954
268.18	3.995
268.54	4.122
268.91	3.979
269.27	3.752
269.63	3.553
270.00	3.532
270.36	3.764
270.72	3.824
271.08	3.870
271.45	3.832
271.81	3.849
272.17	3.978
272.53	3.685
272.90	3.901
273.26	3.726
273.62	3.389
273.98	3.598
274.35	3.590
274.71	3.470
275.07	2.948
275.43	2.783
275.80	2.514
276.16	2.296
276.52	2.606
276.88	2.405
277.25	2.708
277.61	2.918
277.97	2.986
278.33	2.929
278.69	3.011
279.06	3.389
279.42	3.732
279.78	3.446
280.14	3.673
280.50	3.754
280.87	3.942
281.23	3.867
281.59	3.889
281.95	3.589
282.31	3.825
282.68	3.593
283.04	3.694
283.40	3.446
283.76	3.529
284.12	3.443
284.48	3.532
284.85	3.603
285.21	3.759
285.57	3.667
285.93	3.814
286.29	3.748
286.65	4.120
287.02	3.972
287.38	4.029
287.74	4.307
288.10	4.450
288.46	4.310
288.82	3.995
289.18	3.828
289.54	4.147
289.91	4.293
290.27	4.027
290.63	3.901
290.99	3.888
291.35	4.021
291.71	3.702
292.07	3.490
292.43	3.452
292.79	3.403
293.16	3.312
293.52	3.238
293.88	3.182
294.24	3.307
294.60	3.395
294.96	3.529
295.32	3.451
295.68	3.726
296.04	3.818
296.40	3.861
296.76	4.037
297.12	4.084
297.49	4.052
297.85	4.124
298.21	3.971
298.57	3.960
298.93	4.241
299.29	4.322
299.65	4.021
300.01	4.114
300.37	4.077
300.73	3.927
301.09	3.870
301.45	4.009
301.81	3.847
302.17	3.876
302.53	3.918
302.89	3.691
303.25	3.715
303.61	3.627
303.97	3.508
304.33	3.468
304.69	3.575
305.05	3.718
305.41	3.422
305.77	3.417
306.13	3.505
306.49	3.394
306.85	3.384
307.21	3.295
307.57	3.379
307.93	3.455
308.29	3.484
308.65	3.656
309.01	3.671
309.37	3.764
309.73	3.994
310.09	4.145
310.45	4.175
310.81	4.213
311.17	4.268
311.53	4.418
311.89	4.449
312.25	4.626
312.61	4.690
312.96	4.711
313.32	4.821
313.68	4.713
314.04	4.635
314.40	4.677
314.76	4.695
315.12	4.560
315.48	4.458
315.84	4.425
316.20	4.264
316.56	4.248
316.92	4.241
317.27	4.159
317.63	4.205
317.99	4.120
318.35	4.035
318.71	3.963
319.07	4.314
319.43	4.308
319.79	4.197
320.15	4.257
320.50	4.121
320.86	4.114
321.22	4.223
321.58	4.143
321.94	4.243
322.30	4.334
322.66	4.332
323.01	4.266
323.37	4.247
323.73	4.380
324.09	4.481
324.45	4.455
324.81	4.506
325.17	4.454
325.52	4.595
325.88	4.570
326.24	4.598
326.60	4.606
326.96	4.543
327.31	4.661
327.67	4.564
328.03	4.442
328.39	4.413
328.75	4.475
329.11	4.412
329.46	4.115
329.82	4.093
330.18	3.933
330.54	3.862
330.90	3.838
331.25	3.750
331.61	3.954
331.97	3.991
332.33	4.033
332.68	3.944
333.04	4.017
333.40	4.210
333.76	4.225
334.11	4.234
334.47	4.272
334.83	4.247
335.19	4.343
335.54	4.205
335.90	4.240
336.26	4.127
336.62	4.180
336.97	4.286
337.33	4.286
337.69	4.152
338.05	4.315
338.40	4.364
338.76	4.317
339.12	4.249
339.48	4.213
339.83	4.191
340.19	4.468
340.55	4.349
340.90	4.246
341.26	4.232
341.62	4.448
341.97	4.424
342.33	4.362
342.69	4.420
343.04	4.344
343.40	4.412
343.76	4.332
344.12	4.258
344.47	4.407
344.83	4.375
345.19	4.419
345.54	4.368
345.90	4.298
346.26	4.298
346.61	4.312
346.97	4.378
347.32	4.315
347.68	4.440
348.04	4.469
348.39	4.424
348.75	4.502
349.11	4.492
349.46	4.477
349.82	4.462
350.18	4.493
350.53	4.569
350.89	4.636
351.24	4.731
351.60	4.665
351.96	4.531
352.31	4.548
352.67	4.594
353.02	4.548
353.38	4.586
353.74	4.559
354.09	4.552
354.45	4.444
354.80	4.356
355.16	4.272
355.52	4.261
355.87	4.336
356.23	4.306
356.58	4.201
356.94	4.209
357.29	4.134
357.65	4.093
358.00	4.081
358.36	4.087
358.72	4.091
359.07	4.054
359.43	4.012
359.78	3.986
360.14	3.969
360.49	3.955
360.85	3.912
361.20	3.914
361.56	3.912
361.91	3.914
362.27	3.894
362.62	3.852
362.98	3.869
363.33	3.922
363.69	3.854
364.04	3.897
364.40	3.866
364.75	3.914
365.11	3.978
365.46	4.052
365.82	4.085
366.17	4.035
366.53	4.144
366.88	4.128
367.24	4.021
367.59	4.003
367.95	3.996
368.30	4.081
368.66	4.024
369.01	3.982
369.37	3.989
369.72	3.978
370.08	4.036
370.43	3.981
370.78	4.018
371.14	4.087
371.49	4.141
371.85	4.115
372.20	4.110
372.56	4.110
372.91	4.083
373.26	4.032
373.62	3.995
373.97	3.930
374.33	3.882
374.68	3.884
375.03	3.880
375.39	3.876
375.74	3.871
376.10	3.888
376.45	3.904
376.80	3.921
377.16	3.953
377.51	3.978
377.87	4.047
378.22	4.124
378.57	4.131
378.93	4.164
379.28	4.178
379.63	4.217
379.99	4.237
380.34	4.278
380.70	4.250
381.05	4.239
381.40	4.258
381.76	4.288
382.11	4.278
382.46	4.289
382.82	4.298
383.17	4.302
383.52	4.285
383.88	4.205
384.23	4.176
384.58	4.228
384.94	4.249
385.29	4.229
385.64	4.204
385.99	4.226
386.35	4.262
386.70	4.241
387.05	4.294
387.41	4.275
387.76	4.358
388.11	4.447
388.47	4.444
388.82	4.466
389.17	4.505
389.52	4.499
389.88	4.507
390.23	4.542
390.58	4.600
390.93	4.590
391.29	4.631
391.64	4.592
391.99	4.601
392.34	4.603
392.70	4.611
393.05	4.634
393.40	4.686
393.75	4.686
394.11	4.670
394.46	4.663
394.81	4.673
395.16	4.715
395.52	4.765
395.87	4.733
396.22	4.761
396.57	4.790
396.92	4.781
397.28	4.808
397.63	4.837
397.98	4.877
398.33	4.885
398.68	4.892
399.04	4.873
399.39	4.898
399.74	4.924
400.09	4.955
400.44	4.955
400.80	4.999
401.15	4.989
401.50	5.026
401.85	5.017
402.20	5.047
402.55	5.057
402.90	5.036
403.26	5.024
403.61	5.017
403.96	4.983
404.31	4.992
404.66	4.993
405.01	4.997
405.36	4.979
405.72	5.002
406.07	5.034
406.42	5.062
406.77	5.148
407.12	5.200
407.47	5.205
407.82	5.260
408.17	5.265
408.53	5.286
408.88	5.305
409.23	5.346
409.58	5.335
409.93	5.316
410.28	5.304
410.63	5.320
410.98	5.335
411.33	5.395
411.68	5.427
412.03	5.475
412.38	5.501
412.73	5.538
413.09	5.549
413.44	5.590
413.79	5.622
414.14	5.650
414.49	5.641
414.84	5.634
415.19	5.629
415.54	5.651
415.89	5.661
416.24	5.681
416.59	5.681
416.94	5.670
417.29	5.687
417.64	5.694
417.99	5.721
418.34	5.733
418.69	5.746
419.04	5.747
419.39	5.757
419.74	5.760
420.09	5.753
420.44	5.789
420.79	5.819
421.14	5.822
421.49	5.847
421.84	5.858
422.19	5.882
422.54	5.903
422.89	5.944
423.24	5.963
423.59	6.006
423.94	6.045
424.29	6.045
424.64	6.067
424.99	6.100
425.34	6.117
425.68	6.150
426.03	6.167
426.38	6.185
426.73	6.217
427.08	6.256
427.43	6.264
427.78	6.262
428.13	6.343
428.48	6.394
428.83	6.399
429.18	6.414
429.53	6.407
429.87	6.464
430.22	6.509
430.57	6.543
430.92	6.549
431.27	6.576
431.62	6.613
431.97	6.600
432.32	6.604
432.67	6.630
433.01	6.669
433.36	6.736
433.71	6.740
434.06	6.743
434.41	6.737
434.76	6.761
435.11	6.779
435.45	6.810
435.80	6.834
436.15	6.872
436.50	6.935
436.85	6.958
437.20	6.952
437.54	6.969
437.89	6.995
438.24	7.012
438.59	7.041
438.94	7.077
439.29	7.090
439.63	7.093
439.98	7.111
440.33	7.100
440.68	7.106
441.03	7.134
441.37	7.136
441.72	7.138
442.07	7.167
442.42	7.153
442.76	7.162
443.11	7.179
443.46	7.221
443.81	7.216
444.16	7.223
444.50	7.230
444.85	7.235
445.20	7.259
445.55	7.292
445.89	7.298
446.24	7.341
446.59	7.333
446.94	7.342
447.28	7.334
447.63	7.362
447.98	7.391
448.32	7.412
448.67	7.441
449.02	7.468
449.37	7.482
449.71	7.502
450.06	7.521
450.41	7.564
450.75	7.598
451.10	7.613
451.45	7.614
451.79	7.638
452.14	7.669
452.49	7.691
452.84	7.724
453.18	7.757
453.53	7.800
453.88	7.796
454.22	7.820
454.57	7.829
454.92	7.856
455.26	7.885
455.61	7.884
455.95	7.917
456.30	7.933
456.65	7.955
456.99	7.971
457.34	7.972
457.69	8.005
458.03	8.031
458.38	8.067
458.73	8.096
459.07	8.144
459.42	8.185
459.76	8.211
460.11	8.273
460.46	8.302
460.80	8.348
461.15	8.396
461.49	8.448
461.84	8.511
462.19	8.568
462.53	8.642
462.88	8.690
463.22	8.735
463.57	8.782
463.91	8.798
464.26	8.841
464.61	8.882
464.95	8.922
465.30	8.982
465.64	9.041
465.99	9.084
466.33	9.125
466.68	9.172
467.02	9.234
467.37	9.268
467.71	9.305
468.06	9.335
468.41	9.387
468.75	9.453
469.10	9.506
469.44	9.519
469.79	9.545
470.13	9.541
470.48	9.537
470.82	9.575
471.17	9.599
471.51	9.616
471.86	9.654
472.20	9.674
472.55	9.690
472.89	9.681
473.23	9.700
473.58	9.714
473.92	9.762
474.27	9.787
474.61	9.782
474.96	9.814
475.30	9.837
475.65	9.831
475.99	9.831
476.34	9.845
476.68	9.850
477.02	9.849
477.37	9.850
477.71	9.841
478.06	9.844
478.40	9.865
478.75	9.871
479.09	9.870
479.43	9.918
479.78	9.960
480.12	9.999
480.47	10.040
480.81	10.085
481.15	10.128
481.50	10.170
481.84	10.217
482.19	10.265
482.53	10.299
482.87	10.344
483.22	10.371
483.56	10.389
483.90	10.404
484.25	10.409
484.59	10.413
484.94	10.418
485.28	10.430
485.62	10.435
485.97	10.427
486.31	10.432
486.65	10.449
487.00	10.465
487.34	10.486
487.68	10.523
488.03	10.566
488.37	10.606
488.71	10.644
489.06	10.684
489.40	10.725
489.74	10.770
490.09	10.840
490.43	10.883
490.77	10.939
491.11	10.989
491.46	11.044
491.80	11.108
492.14	11.178
492.49	11.245
492.83	11.304
493.17	11.395
493.51	11.490
493.86	11.568
494.20	11.686
494.54	11.774
494.88	11.918
495.23	12.005
495.57	12.098
495.91	12.186
496.25	12.299
496.60	12.438
496.94	12.549
497.28	12.661
497.62	12.775
497.97	12.894
498.31	13.039
498.65	13.130
498.99	13.283
499.33	13.448
499.68	13.603
500.02	13.758
500.36	13.868
500.70	14.021
501.04	14.186
501.39	14.343
501.73	14.493
502.07	14.656
502.41	14.816
502.75	14.951
503.09	15.075
503.44	15.246
503.78	15.398
504.12	15.590
504.46	15.756
504.80	15.891
505.14	16.050
505.49	16.215
505.83	16.361
506.17	16.530
506.51	16.708
506.85	16.876
507.19	17.036
507.53	17.219
507.87	17.352
508.22	17.491
508.56	17.661
508.90	17.838
509.24	18.007
509.58	18.174
509.92	18.346
510.26	18.489
510.60	18.641
510.94	18.813
511.28	18.958
511.63	19.130
511.97	19.290
512.31	19.449
512.65	19.600
512.99	19.741
513.33	19.935
513.67	20.078
514.01	20.241
514.35	20.409
514.69	20.536
515.03	20.672
515.37	20.827
515.71	20.957
516.05	21.111
516.39	21.239
516.73	21.346
517.07	21.427
517.41	21.556
517.75	21.670
518.09	21.792
518.43	21.913
518.77	22.047
519.11	22.153
519.45	22.279
519.79	22.371
520.13	22.488
520.47	22.630
520.81	22.770
521.15	22.870
521.49	22.994
521.83	23.121
522.17	23.208
522.51	23.299
522.85	23.418
523.19	23.562
523.53	23.718
523.87	23.891
524.21	24.062
524.55	24.244
524.89	24.412
525.23	24.574
525.57	24.726
525.91	24.882
526.25	25.012
526.58	25.130
526.92	25.235
527.26	25.337
527.60	25.410
527.94	25.461
528.28	25.497
528.62	25.534
528.96	25.570
529.30	25.578
529.64	25.601
529.97	25.620
530.31	25.624
530.65	25.635
530.99	25.640
531.33	25.681
531.67	25.730
532.01	25.778
532.35	25.824
532.68	25.868
533.02	25.924
533.36	25.951
533.70	25.987
534.04	26.033
534.38	26.091
534.71	26.129
535.05	26.142
535.39	26.187
535.73	26.224
536.07	26.264
536.41	26.304
536.74	26.367
537.08	26.459
537.42	26.526
537.76	26.623
538.10	26.705
538.43	26.803
538.77	26.906
539.11	26.975
539.45	27.047
539.79	27.131
540.12	27.174
540.46	27.197
540.80	27.224
541.14	27.280
541.47	27.299
541.81	27.293
542.15	27.297
542.49	27.299
542.82	27.296
543.16	27.307
543.50	27.308
543.84	27.339
544.17	27.395
544.51	27.399
544.85	27.408
545.18	27.438
545.52	27.500
545.86	27.525
546.20	27.564
546.53	27.618
546.87	27.659
547.21	27.679
547.54	27.713
547.88	27.716
548.22	27.775
548.55	27.808
548.89	27.857
549.23	27.884
549.56	27.967
549.90	28.000
550.24	28.014
550.57	28.022
550.91	28.062
551.25	28.106
551.58	28.149
551.92	28.189
552.26	28.236
552.59	28.254
552.93	28.276
553.27	28.261
553.60	28.310
553.94	28.380
554.27	28.445
554.61	28.484
554.95	28.517
555.28	28.529
555.62	28.544
555.95	28.565
556.29	28.596
556.63	28.603
556.96	28.652
557.30	28.647
557.63	28.658
557.97	28.660
558.31	28.692
558.64	28.688
558.98	28.785
559.31	28.803
559.65	28.835
559.98	28.837
560.32	28.897
560.65	28.930
560.99	28.926
561.33	28.928
561.66	28.944
562.00	28.936
562.33	28.962
562.67	28.937
563.00	28.947
563.34	28.967
563.67	29.009
564.01	29.002
564.34	29.009
564.68	29.036
565.01	29.076
565.35	29.117
565.68	29.158
566.02	29.186
566.35	29.188
566.69	29.198
567.02	29.169
567.36	29.164
567.69	29.208
568.03	29.214
568.36	29.210
568.69	29.220
569.03	29.231
569.36	29.230
569.70	29.244
570.03	29.279
570.37	29.329
570.70	29.376
571.04	29.404
571.37	29.416
571.70	29.443
572.04	29.500
572.37	29.510
572.71	29.518
573.04	29.536
573.37	29.535
573.71	29.544
574.04	29.537
574.38	29.597
574.71	29.616
575.04	29.635
575.38	29.658
575.71	29.662
576.05	29.722
576.38	29.741
576.71	29.760
577.05	29.811
577.38	29.829
577.71	29.857
578.05	29.816
578.38	29.824
578.71	29.816
579.05	29.838
579.38	29.870
579.71	29.854
580.05	29.871
580.38	29.915
580.71	29.935
581.05	29.965
581.38	29.962
581.71	29.985
582.05	29.989
582.38	29.983
582.71	29.954
583.04	29.945
583.38	29.943
583.71	29.975
584.04	29.942
584.38	29.935
584.71	29.910
585.04	29.939
585.37	29.935
585.71	29.969
586.04	29.968
586.37	30.009
586.70	30.048
587.04	30.037
587.37	30.003
587.70	30.013
588.03	30.003
588.37	30.053
588.70	30.070
589.03	30.061
589.36	30.053
589.69	30.056
590.03	30.004
590.36	29.950
590.69	29.953
591.02	29.959
591.35	29.951
591.69	29.943
592.02	29.896
592.35	29.865
592.68	29.847
593.01	29.814
593.35	29.826
593.68	29.847
594.01	29.857
594.34	29.872
594.67	29.860
595.00	29.843
595.34	29.856
595.67	29.872
596.00	29.903
596.33	29.949
596.66	29.992
596.99	30.004
597.32	30.034
597.65	30.043
597.99	30.018
598.32	30.022
598.65	30.019
598.98	29.986
599.31	29.975
599.64	29.919
599.97	29.873
600.30	29.823
600.63	29.800
600.96	29.752
601.30	29.765
601.63	29.754
601.96	29.735
602.29	29.762
602.62	29.766
602.95	29.751
603.28	29.754
603.61	29.771
603.94	29.793
604.27	29.797
604.60	29.800
604.93	29.780
605.26	29.812
605.59	29.797
605.92	29.775
606.25	29.782
606.58	29.743
606.91	29.752
607.24	29.738
607.57	29.731
607.90	29.685
608.23	29.702
608.56	29.696
608.89	29.673
609.22	29.690
609.55	29.691
609.88	29.671
610.21	29.718
610.54	29.756
610.87	29.754
611.20	29.783
611.53	29.779
611.86	29.791
612.19	29.795
612.52	29.788
612.85	29.769
613.18	29.749
613.51	29.756
613.84	29.727
614.17	29.672
614.49	29.636
614.82	29.545
615.15	29.603
615.48	29.562
615.81	29.532
616.14	29.549
616.47	29.533
616.80	29.542
617.13	29.511
617.46	29.530
617.78	29.486
618.11	29.493
618.44	29.467
618.77	29.396
619.10	29.402
619.43	29.384
619.76	29.308
620.09	29.290
620.41	29.246
620.74	29.235
621.07	29.148
621.40	29.170
621.73	29.141
622.06	29.203
622.38	29.240
622.71	29.180
623.04	29.162
623.37	29.144
623.70	29.122
624.02	29.095
624.35	29.070
624.68	29.094
625.01	29.072
625.34	29.065
625.66	29.003
625.99	28.959
626.32	28.944
626.65	28.931
626.98	28.909
627.30	28.909
627.63	28.960
627.96	28.939
628.29	28.952
628.61	28.953
628.94	28.938
629.27	28.936
629.60	28.902
629.92	28.912
630.25	28.901
630.58	28.935
630.91	28.909
631.23	28.840
631.56	28.810
631.89	28.729
632.21	28.642
632.54	28.625
632.87	28.578
633.19	28.565
633.52	28.543
633.85	28.493
634.18	28.431
634.50	28.449
634.83	28.400
635.16	28.362
635.48	28.348
635.81	28.355
636.14	28.311
636.46	28.367
636.79	28.417
637.11	28.349
637.44	28.371
637.77	28.384
638.09	28.291
638.42	28.309
638.75	28.361
639.07	28.332
639.40	28.343
639.73	28.284
640.05	28.207
640.38	28.157
640.70	28.153
641.03	28.092
641.36	28.050
641.68	28.086
642.01	28.050
642.33	28.004
642.66	27.951
642.98	27.910
643.31	27.940
643.64	27.900
643.96	27.863
644.29	27.831
644.61	27.820
644.94	27.786
645.26	27.710
645.59	27.718
645.91	27.699
646.24	27.733
646.56	27.737
646.89	27.769
647.22	27.747
647.54	27.654
647.87	27.591
648.19	27.593
648.52	27.585
648.84	27.561
649.17	27.451
649.49	27.427
649.82	27.387
650.14	27.330
650.47	27.246
650.79	27.243
651.11	27.244
651.44	27.284
651.76	27.198
652.09	27.158
652.41	27.164
652.74	27.199
653.06	27.155
653.39	27.086
653.71	27.020
654.04	27.036
654.36	26.953
654.68	26.944
655.01	26.885
655.33	26.908
655.66	26.879
655.98	26.857
656.30	26.878
656.63	26.827
656.95	26.854
657.28	26.918
657.60	26.875
657.92	26.924
658.25	26.932
658.57	26.972
658.90	26.988
659.22	26.964
659.54	26.922
659.87	26.824
660.19	26.871
660.51	26.886
660.84	26.825
661.16	26.762
661.48	26.721
661.81	26.705
662.13	26.651
662.45	26.562
662.78	26.525
663.10	26.572
663.42	26.572
663.75	26.531
664.07	26.513
664.39	26.443
664.72	26.444
665.04	26.346
665.36	26.240
665.69	26.192
666.01	26.136
666.33	26.160
666.65	26.123
666.98	26.097
667.30	26.015
667.62	25.965
667.94	25.955
668.27	25.917
668.59	25.963
668.91	25.964
669.23	25.936
669.56	26.008
669.88	25.991
670.20	25.963
670.52	25.933
670.85	25.977
671.17	25.954
671.49	25.910
671.81	25.852
672.13	25.766
672.46	25.716
672.78	25.643
673.10	25.575
673.42	25.546
673.74	25.463
674.07	25.492
674.39	25.438
674.71	25.365
675.03	25.381
675.35	25.428
675.67	25.449
676.00	25.480
676.32	25.488
676.64	25.402
676.96	25.385
677.28	25.384
677.60	25.320
677.92	25.276
678.25	25.280
678.57	25.289
678.89	25.165
679.21	25.142
679.53	25.144
679.85	25.141
680.17	25.174
680.49	25.119
680.81	25.131
681.13	25.068
681.46	25.062
681.78	25.055
682.10	25.013
682.42	24.998
682.74	25.000
683.06	24.987
683.38	24.995
683.70	24.986
684.02	24.938
684.34	24.847
684.66	24.909
684.98	24.925
685.30	24.831
685.62	24.756
685.94	24.816
686.26	24.787
686.58	24.703
686.90	24.670
687.22	24.640
687.54	24.651
687.86	24.630
688.18	24.575
688.50	24.527
688.82	24.605
689.14	24.605
689.46	24.576
689.78	24.570
690.10	24.624
690.42	24.565
690.74	24.500
691.06	24.442
691.38	24.430
691.70	24.461
692.02	24.524
692.34	24.454
692.66	24.458
692.98	24.454
693.30	24.391
693.62	24.266
693.94	24.271
694.26	24.256
694.57	24.201
694.89	24.188
695.21	24.044
695.53	23.947
695.85	23.951
696.17	23.980
696.49	23.960
696.81	23.951
697.13	23.927
697.44	23.896
697.76	23.868
698.08	23.905
698.40	23.903
698.72	23.937
699.04	23.865
699.36	23.817
699.67	23.764
699.99	23.731
700.31	23.725
700.63	23.688
700.95	23.687
701.27	23.713
701.58	23.627
701.90	23.541
702.22	23.491
702.54	23.552
702.86	23.598
703.17	23.535
703.49	23.531
703.81	23.547
704.13	23.572
704.45	23.532
704.76	23.495
705.08	23.563
705.40	23.547
705.72	23.597
706.03	23.534
706.35	23.407
706.67	23.284
706.99	23.230
707.30	23.157
707.62	23.175
707.94	23.140
708.26	23.122
708.57	23.038
708.89	23.119
709.21	23.108
709.53	23.127
709.84	23.139
710.16	23.159
710.48	23.170
710.79	23.098
711.11	23.053
711.43	22.978
711.74	22.953
712.06	22.982
712.38	22.897
712.69	22.902
713.01	22.887
713.33	22.880
713.64	23.006
713.96	23.014
714.28	23.016
714.59	22.925
714.91	22.933
715.23	22.930
715.54	22.893
715.86	22.880
716.17	22.769
716.49	22.771
716.81	22.760
717.12	22.514
717.44	22.419
717.76	22.426
718.07	22.519
718.39	22.573
718.70	22.509
719.02	22.578
719.33	22.574
719.65	22.592
719.97	22.534
720.28	22.397
720.60	22.558
720.91	22.570
721.23	22.515
721.54	22.476
721.86	22.367
722.17	22.285
722.49	22.252
722.81	22.166
723.12	22.130
723.44	22.014
723.75	22.176
724.07	22.070
724.38	22.016
724.70	22.001
725.01	22.068
725.33	22.124
725.64	22.163
725.96	22.074
726.27	22.137
726.59	22.194
726.90	22.267
727.22	22.073
727.53	22.134
727.84	22.062
728.16	21.967
728.47	21.932
728.79	21.864
729.10	21.878
729.42	21.974
729.73	22.000
730.05	21.940
730.36	21.957
730.67	22.066
730.99	22.004
731.30	22.159
731.62	22.179
731.93	22.081
732.24	22.193
732.56	22.227
732.87	22.217
733.19	22.050
733.50	22.020
733.81	21.989
734.13	22.011
734.44	21.975
734.76	21.913
735.07	21.948
735.38	21.945
735.70	21.749
736.01	21.616
736.32	21.610
736.64	21.720
736.95	21.683
737.26	21.590
737.58	21.557
737.89	21.567
738.20	21.479
738.52	21.532
738.83	21.481
739.14	21.597
739.45	21.592
739.77	21.367
740.08	21.290
740.39	21.283
740.71	21.318
741.02	21.096
741.33	21.149
741.64	21.274
741.96	21.271
742.27	21.344
742.58	21.300
742.90	21.333
743.21	21.507
743.52	21.510
743.83	21.579
744.14	21.437
744.46	21.525
744.77	21.406
745.08	21.185
745.39	21.162
745.71	21.055
746.02	20.944
746.33	20.961
746.64	20.911
746.95	20.878
747.27	20.786
747.58	20.800
747.89	20.825
748.20	20.860
748.51	20.835
748.82	20.587
749.14	20.570
749.45	20.623
749.76	20.736
750.07	20.718
750.38	20.752
750.69	20.775
751.01	20.944
751.32	21.071
751.63	20.926
751.94	21.055
752.25	21.261
752.56	21.244
752.87	21.172
753.18	21.095
753.49	20.961
753.81	21.037
754.12	21.036
754.43	20.998
754.74	20.963
755.05	21.047
755.36	20.919
755.67	20.988
755.98	21.133
756.29	21.171
756.60	21.167
756.91	21.258
757.22	21.077
757.53	21.164
757.84	21.131
758.15	21.183
758.46	21.190
758.77	21.179
759.09	21.272
759.40	21.173
759.71	21.221
760.02	21.118
760.33	21.183
760.64	21.181
760.95	21.257
761.26	21.249
761.57	21.145
761.88	21.036
762.18	21.213
762.49	21.077
762.80	21.073
763.11	21.192
763.42	21.210
763.73	21.211
764.04	21.272
764.35	21.107
764.66	21.075
764.97	21.041
765.28	21.275
765.59	21.053
765.90	21.126
766.21	21.233
766.52	20.883
766.83	20.846
767.14	20.624
767.44	20.519
767.75	20.431
768.06	20.505
768.37	20.592
768.68	20.177
768.99	20.056
769.30	19.905
769.61	19.838
769.91	19.894
770.22	19.805
770.53	19.767
770.84	19.932
771.15	19.993
771.46	19.817
771.77	19.555
772.07	19.772
772.38	19.875
772.69	19.795
773.00	19.570
773.31	19.633
773.61	19.853
773.92	19.907
774.23	19.830
774.54	19.896
774.85	19.907
775.15	20.030
775.46	20.121
775.77	20.044
776.08	20.191
776.39	20.339
776.69	20.313
777.00	20.165
777.31	20.261
777.62	20.083
777.92	19.964
778.23	19.979
778.54	19.998
778.85	19.803
779.15	20.339
779.46	20.306
779.77	20.111
780.07	20.037
780.38	20.198
780.69	20.148
781.00	20.189
781.30	20.114
781.61	20.154
781.92	20.097
782.22	20.227
782.53	19.733
782.84	19.617
783.14	19.644
783.45	19.840
783.76	19.736
784.06	19.842
784.37	19.642
784.68	19.682
784.98	19.752
785.29	19.959
785.60	19.879
785.90	20.148
786.21	20.174
786.51	20.197
786.82	20.011
787.13	19.971
787.43	19.846
787.74	20.255
788.04	20.377
788.35	20.135
788.66	19.894
788.96	19.967
789.27	19.956
789.57	19.797
789.88	20.134
790.19	20.097
790.49	20.248
790.80	20.142
791.10	19.652
791.41	19.723
791.71	20.002
792.02	20.225
792.32	20.250
792.63	20.159
792.93	20.327
793.24	20.219
793.54	20.084
793.85	19.865
794.15	20.122
794.46	20.599
794.76	20.560
795.07	20.284
795.37	20.304
795.68	20.292
795.98	20.136
796.29	20.184
796.59	20.160
796.90	20.402
797.20	20.485
797.51	20.278
797.81	20.050
798.12	19.896
798.42	19.994
798.72	19.746
799.03	19.713
799.33	19.869
799.64	19.909
799.94	19.720
800.25	19.667
800.55	19.634
800.85	19.616
801.16	19.907
801.46	19.946
801.77	20.128
802.07	20.414
802.37	20.519
802.68	20.419
802.98	20.325
803.28	20.413
803.59	20.394
803.89	20.404
804.20	20.674
804.50	20.607
804.80	20.567
805.11	20.251
805.41	20.066
805.71	19.955
806.02	19.666
806.32	19.587
806.62	19.781
806.93	20.134
807.23	20.474
807.53	19.927
807.83	19.635
808.14	19.910
808.44	20.012
808.74	20.303
809.05	20.319
809.35	20.642
809.65	20.408
809.95	20.284
810.26	20.203
810.56	19.761
810.86	20.021
811.16	19.963
811.47	19.712
811.77	20.066
812.07	19.552
812.37	19.130
812.68	19.153
812.98	19.191
813.28	19.097
813.58	18.705
813.88	19.092
814.19	19.623
814.49	19.730
814.79	19.685
815.09	19.315
815.39	19.728
815.70	20.001
816.00	19.947
816.30	20.318
816.60	20.272
816.90	20.397
817.20	20.162
817.50	20.150
817.81	19.910
818.11	19.775
818.41	19.734
818.71	19.812
819.01	19.862
819.31	19.926
819.61	20.097
819.92	20.168
820.22	20.238
820.52	20.263
820.82	20.325
821.12	20.385
821.42	20.523
821.72	20.587
822.02	20.586
822.32	20.683
822.62	20.734
822.92	20.634
823.22	20.694
823.52	20.703
823.83	20.712
824.13	20.620
824.43	20.734
824.73	20.745
825.03	20.790
825.33	20.885
825.63	20.734
825.93	20.600
826.23	20.671
826.53	20.582
826.83	20.691
827.13	20.739
827.43	20.719
827.73	20.752
828.03	20.702
828.33	20.776
828.63	20.749
828.93	20.937
829.23	21.090
829.53	21.078
829.83	21.293
830.13	20.979
830.42	20.888
830.72	21.203
831.02	20.687
831.32	20.548
831.62	20.551
831.92	20.389
832.22	20.311
832.52	20.415
832.82	20.305
833.12	20.092
833.42	20.231
833.72	20.298
834.01	20.046
834.31	20.433
834.61	20.480
834.91	20.377
835.21	20.414
835.51	20.489
835.81	20.077
836.11	20.457
836.40	20.532
836.70	20.249
837.00	20.500
837.30	20.630
837.60	20.574
837.90	20.654
838.19	20.576
838.49	20.573
838.79	20.177
839.09	20.725
839.39	20.277
839.68	20.098
839.98	20.220
840.28	19.960
840.58	19.841
840.88	19.330
841.17	19.034
841.47	18.782
841.77	19.040
842.07	18.934
842.36	19.842
842.66	20.667
842.96	20.882
843.26	21.324
843.55	21.503
843.85	21.971
844.15	22.441
844.45	22.729
844.74	21.494
845.04	20.806
845.34	21.984
845.63	20.194
845.93	20.083
846.23	19.540
846.53	18.637
846.82	18.972
847.12	18.992
847.42	19.157
847.71	18.854
848.01	20.798
848.31	20.310
848.60	19.615
848.90	19.450
849.19	18.450
849.49	19.708
849.79	20.265
850.08	18.256
850.38	17.463
850.68	17.274
850.97	17.706
851.27	17.969
851.56	18.359
851.86	18.944
852.16	19.154
852.45	19.952
852.75	18.765
853.04	18.814
853.34	18.991
853.64	19.398
853.93	19.566
854.23	20.075
854.52	19.488
854.82	19.086
855.11	19.012
855.41	20.169
855.70	18.066
856.00	19.608
856.30	20.098
856.59	21.001
856.89	20.445
857.18	19.175
857.48	18.785
857.77	19.598
858.07	18.703
858.36	18.684
858.66	18.596
858.95	20.059
859.25	18.971
859.54	18.280
859.84	18.829
860.13	19.593
860.42	20.341
860.72	19.751
861.01	18.062
861.31	19.982
861.60	20.750
861.90	20.059
862.19	20.918
862.49	20.708
862.78	19.403
863.07	19.298
863.37	19.822
863.66	19.423
863.96	21.985
864.25	23.167
864.54	22.882
864.84	21.882
865.13	21.955
865.43	20.767
865.72	23.535
866.01	20.922
866.31	19.012
866.60	18.077
866.89	16.413
>>>>>End Spectral Data<<<<<
