OOIBase32 Version 2.0.0.6 Data File
++++++++++++++++++++++++++++++++++++
Date: 01-23-2012, 22:01:26
User: Valued Ocean Optics Customer
Spectrometer Serial Number: USB2E2917
Spectrometer Channel: Master
Integration Time (msec): 5
Spectra Averaged: 10
Boxcar Smoothing: 5
Correct for Electrical Dark: Enabled
Time Normalized: Disabled
Dual-beam Reference: Disabled
Reference Channel: Master
Temperature: Not acquired
Spectrometer Type: S2000
ADC Type: USB2000
Number of Pixels in File: 2048
Graph Title: 
>>>>>Begin Spectral Data<<<<<
180.30	0.000
180.67	0.000
181.03	94.485
181.40	19.140
181.77	10043.733
182.14	48.576
182.51	96.512
182.88	683.422
183.25	-86.431
183.62	-159.815
183.99	21.285
184.36	-349.766
184.73	331.417
185.10	0.175
185.46	95.270
185.83	110.319
186.20	142.444
186.57	419.026
186.94	-73.084
187.31	49.137
187.68	-10.113
188.05	-9.171
188.42	22.826
188.78	24.195
189.15	23.361
189.52	28.249
189.89	26.466
190.26	8.659
190.63	37.068
191.00	35.290
191.37	43.908
191.73	32.966
192.10	38.350
192.47	34.211
192.84	40.789
193.21	37.393
193.58	36.861
193.94	36.124
194.31	32.695
194.68	31.629
195.05	31.428
195.42	18.817
195.79	16.524
196.15	10.492
196.52	12.626
196.89	2.625
197.26	4.677
197.63	-17.857
198.00	-11.438
198.36	-5.565
198.73	-15.046
199.10	-6.835
199.47	7.226
199.84	9.685
200.20	25.670
200.57	9.793
200.94	1.917
201.31	-0.732
201.68	30.098
202.04	26.831
202.41	34.164
202.78	33.370
203.15	23.242
203.51	0.036
203.88	1.254
204.25	-8.441
204.62	9.869
204.98	24.870
205.35	17.863
205.72	7.610
206.09	18.614
206.46	17.092
206.82	19.862
207.19	26.231
207.56	32.904
207.92	32.886
208.29	44.782
208.66	40.917
209.03	38.971
209.39	30.534
209.76	29.618
210.13	22.259
210.50	20.016
210.86	21.464
211.23	29.205
211.60	19.236
211.96	29.975
212.33	22.899
212.70	27.848
213.07	20.128
213.43	34.103
213.80	33.204
214.17	27.741
214.53	23.526
214.90	17.981
215.27	10.571
215.63	7.832
216.00	-5.056
216.37	3.880
216.74	-5.861
217.10	-6.770
217.47	-21.744
217.84	-21.470
218.20	-4.548
218.57	4.937
218.94	10.124
219.30	10.839
219.67	23.021
220.04	25.332
220.40	17.920
220.77	13.265
221.13	13.089
221.50	18.350
221.87	18.118
222.23	6.049
222.60	2.851
222.97	2.794
223.33	-1.642
223.70	-7.193
224.07	-6.000
224.43	-2.394
224.80	2.421
225.16	2.075
225.53	3.416
225.90	-0.185
226.26	-1.285
226.63	-2.194
226.99	-2.788
227.36	-1.483
227.73	-1.671
228.09	-5.277
228.46	-7.433
228.82	-7.067
229.19	-7.340
229.56	-9.054
229.92	-6.220
230.29	-3.470
230.65	-2.605
231.02	-0.255
231.38	-1.383
231.75	0.707
232.12	5.341
232.48	8.113
232.85	7.055
233.21	9.675
233.58	10.689
233.94	11.115
234.31	7.435
234.68	5.760
235.04	4.210
235.41	3.899
235.77	4.797
236.14	5.702
236.50	2.935
236.87	3.078
237.23	2.580
237.60	1.873
237.96	1.064
238.33	3.471
238.69	4.603
239.06	3.894
239.42	4.230
239.79	3.513
240.15	3.195
240.52	3.525
240.88	3.670
241.25	3.173
241.61	3.512
241.98	3.718
242.34	2.985
242.71	3.230
243.07	3.729
243.44	3.824
243.80	4.028
244.17	4.084
244.53	4.324
244.90	4.328
245.26	4.428
245.63	4.334
245.99	4.436
246.36	4.647
246.72	4.094
247.09	4.134
247.45	3.921
247.81	3.596
248.18	2.969
248.54	2.825
248.91	2.654
249.27	2.929
249.64	2.765
250.00	2.815
250.36	3.251
250.73	3.476
251.09	3.126
251.46	3.499
251.82	3.820
252.19	5.041
252.55	4.750
252.91	4.942
253.28	4.534
253.64	4.815
254.01	4.623
254.37	4.044
254.73	4.342
255.10	4.911
255.46	4.838
255.83	4.674
256.19	4.343
256.55	4.315
256.92	4.417
257.28	4.487
257.65	4.628
258.01	4.807
258.37	4.633
258.74	4.495
259.10	4.305
259.46	4.265
259.83	4.143
260.19	3.837
260.55	3.967
260.92	3.704
261.28	3.303
261.64	2.786
262.01	2.309
262.37	2.313
262.73	2.159
263.10	1.784
263.46	2.014
263.82	2.227
264.19	2.592
264.55	2.687
264.91	3.103
265.28	3.795
265.64	3.899
266.00	3.820
266.37	3.844
266.73	4.148
267.09	4.339
267.46	4.351
267.82	4.340
268.18	4.508
268.54	4.282
268.91	4.121
269.27	3.856
269.63	3.939
270.00	4.119
270.36	4.153
270.72	3.977
271.08	3.933
271.45	3.788
271.81	3.941
272.17	3.947
272.53	3.939
272.90	3.713
273.26	3.806
273.62	3.754
273.98	3.339
274.35	3.295
274.71	3.436
275.07	3.659
275.43	3.780
275.80	3.725
276.16	3.487
276.52	3.557
276.88	3.552
277.25	3.434
277.61	3.650
277.97	4.017
278.33	3.944
278.69	3.627
279.06	3.524
279.42	3.120
279.78	3.006
280.14	3.117
280.50	3.076
280.87	3.270
281.23	3.365
281.59	3.176
281.95	3.122
282.31	3.247
282.68	3.474
283.04	3.445
283.40	3.724
283.76	3.632
284.12	3.691
284.48	3.694
284.85	3.590
285.21	3.459
285.57	3.514
285.93	3.625
286.29	3.566
286.65	3.449
287.02	3.326
287.38	3.297
287.74	3.488
288.10	3.416
288.46	3.595
288.82	3.517
289.18	3.609
289.54	3.553
289.91	3.609
290.27	3.783
290.63	3.901
290.99	4.049
291.35	3.936
291.71	4.119
292.07	4.091
292.43	4.039
292.79	4.311
293.16	4.306
293.52	4.287
293.88	4.331
294.24	4.363
294.60	4.339
294.96	4.352
295.32	4.531
295.68	4.350
296.04	4.544
296.40	4.568
296.76	4.538
297.12	4.556
297.49	4.782
297.85	4.927
298.21	5.014
298.57	5.285
298.93	5.340
299.29	5.372
299.65	5.449
300.01	5.472
300.37	5.437
300.73	5.646
301.09	5.925
301.45	6.032
301.81	5.935
302.17	5.824
302.53	5.812
302.89	5.911
303.25	5.863
303.61	6.076
303.97	6.103
304.33	6.177
304.69	6.114
305.05	6.172
305.41	6.031
305.77	6.090
306.13	6.109
306.49	6.118
306.85	6.274
307.21	6.491
307.57	6.499
307.93	6.542
308.29	6.608
308.65	6.613
309.01	6.468
309.37	6.693
309.73	6.670
310.09	6.745
310.45	6.827
310.81	6.812
311.17	6.720
311.53	6.715
311.89	6.844
312.25	6.904
312.61	7.071
312.96	7.321
313.32	7.270
313.68	7.346
314.04	7.460
314.40	7.409
314.76	7.568
315.12	7.701
315.48	7.905
315.84	7.671
316.20	7.750
316.56	7.717
316.92	7.637
317.27	7.616
317.63	7.613
317.99	7.619
318.35	7.674
318.71	7.569
319.07	7.599
319.43	7.604
319.79	7.842
320.15	7.883
320.50	7.848
320.86	8.008
321.22	8.165
321.58	8.363
321.94	8.337
322.30	8.464
322.66	8.553
323.01	8.666
323.37	8.679
323.73	8.702
324.09	8.864
324.45	9.008
324.81	9.135
325.17	9.229
325.52	9.356
325.88	9.635
326.24	9.777
326.60	10.080
326.96	10.261
327.31	10.389
327.67	10.578
328.03	10.679
328.39	10.806
328.75	10.932
329.11	11.131
329.46	11.186
329.82	11.247
330.18	11.320
330.54	11.349
330.90	11.443
331.25	11.564
331.61	11.573
331.97	11.598
332.33	11.826
332.68	11.798
333.04	11.787
333.40	11.869
333.76	11.916
334.11	11.962
334.47	11.963
334.83	11.946
335.19	11.996
335.54	12.121
335.90	12.243
336.26	12.174
336.62	12.237
336.97	12.208
337.33	12.244
337.69	12.257
338.05	12.283
338.40	12.324
338.76	12.430
339.12	12.436
339.48	12.411
339.83	12.294
340.19	12.325
340.55	12.254
340.90	12.311
341.26	12.252
341.62	12.273
341.97	12.348
342.33	12.426
342.69	12.367
343.04	12.429
343.40	12.420
343.76	12.594
344.12	12.678
344.47	12.866
344.83	12.833
345.19	12.764
345.54	12.816
345.90	12.792
346.26	12.761
346.61	12.830
346.97	12.792
347.32	12.808
347.68	12.707
348.04	12.665
348.39	12.646
348.75	12.818
349.11	12.903
349.46	12.917
349.82	12.931
350.18	12.957
350.53	12.937
350.89	12.977
351.24	13.066
351.60	13.104
351.96	13.072
352.31	13.102
352.67	13.024
353.02	13.058
353.38	12.973
353.74	12.941
354.09	12.931
354.45	13.024
354.80	12.966
355.16	12.936
355.52	12.951
355.87	12.976
356.23	12.899
356.58	12.859
356.94	12.870
357.29	12.878
357.65	12.858
358.00	12.848
358.36	12.716
358.72	12.794
359.07	12.813
359.43	12.865
359.78	12.911
360.14	12.939
360.49	12.929
360.85	12.930
361.20	12.990
361.56	13.101
361.91	13.092
362.27	13.157
362.62	13.109
362.98	13.075
363.33	13.005
363.69	12.944
364.04	12.970
364.40	13.010
364.75	13.037
365.11	13.064
365.46	13.025
365.82	13.054
366.17	13.062
366.53	13.095
366.88	13.133
367.24	13.210
367.59	13.232
367.95	13.255
368.30	13.250
368.66	13.272
369.01	13.286
369.37	13.366
369.72	13.419
370.08	13.468
370.43	13.508
370.78	13.541
371.14	13.581
371.49	13.679
371.85	13.691
372.20	13.805
372.56	13.875
372.91	13.895
373.26	13.841
373.62	13.856
373.97	13.926
374.33	14.030
374.68	14.021
375.03	14.091
375.39	14.084
375.74	14.159
376.10	14.155
376.45	14.215
376.80	14.258
377.16	14.383
377.51	14.442
377.87	14.457
378.22	14.491
378.57	14.638
378.93	14.679
379.28	14.844
379.63	14.915
379.99	15.033
380.34	15.116
380.70	15.201
381.05	15.313
381.40	15.391
381.76	15.475
382.11	15.526
382.46	15.570
382.82	15.659
383.17	15.654
383.52	15.731
383.88	15.768
384.23	15.845
384.58	15.961
384.94	16.009
385.29	16.110
385.64	16.183
385.99	16.301
386.35	16.397
386.70	16.427
387.05	16.476
387.41	16.564
387.76	16.660
388.11	16.650
388.47	16.695
388.82	16.739
389.17	16.764
389.52	16.792
389.88	16.827
390.23	16.891
390.58	16.969
390.93	17.069
391.29	17.120
391.64	17.178
391.99	17.302
392.34	17.355
392.70	17.394
393.05	17.449
393.40	17.512
393.75	17.552
394.11	17.605
394.46	17.679
394.81	17.718
395.16	17.737
395.52	17.788
395.87	17.781
396.22	17.833
396.57	17.907
396.92	17.994
397.28	18.086
397.63	18.117
397.98	18.182
398.33	18.247
398.68	18.359
399.04	18.445
399.39	18.535
399.74	18.607
400.09	18.695
400.44	18.775
400.80	18.787
401.15	18.789
401.50	18.851
401.85	18.902
402.20	18.973
402.55	18.990
402.90	19.030
403.26	19.083
403.61	19.183
403.96	19.239
404.31	19.277
404.66	19.362
405.01	19.494
405.36	19.622
405.72	19.678
406.07	19.744
406.42	19.823
406.77	19.894
407.12	19.920
407.47	19.958
407.82	19.990
408.17	19.997
408.53	20.095
408.88	20.149
409.23	20.187
409.58	20.237
409.93	20.288
410.28	20.349
410.63	20.415
410.98	20.493
411.33	20.569
411.68	20.640
412.03	20.767
412.38	20.776
412.73	20.798
413.09	20.814
413.44	20.860
413.79	20.856
414.14	20.863
414.49	20.871
414.84	20.923
415.19	20.923
415.54	20.938
415.89	20.930
416.24	20.945
416.59	20.958
416.94	20.988
417.29	20.998
417.64	21.045
417.99	21.080
418.34	21.094
418.69	21.092
419.04	21.130
419.39	21.145
419.74	21.198
420.09	21.269
420.44	21.308
420.79	21.340
421.14	21.375
421.49	21.422
421.84	21.464
422.19	21.521
422.54	21.589
422.89	21.638
423.24	21.728
423.59	21.778
423.94	21.817
424.29	21.889
424.64	21.968
424.99	22.083
425.34	22.155
425.68	22.230
426.03	22.358
426.38	22.465
426.73	22.571
427.08	22.621
427.43	22.719
427.78	22.749
428.13	22.793
428.48	22.837
428.83	22.848
429.18	22.877
429.53	22.950
429.87	22.966
430.22	22.928
430.57	22.963
430.92	23.000
431.27	23.011
431.62	23.057
431.97	23.110
432.32	23.165
432.67	23.224
433.01	23.270
433.36	23.310
433.71	23.369
434.06	23.471
434.41	23.522
434.76	23.586
435.11	23.648
435.45	23.693
435.80	23.729
436.15	23.768
436.50	23.794
436.85	23.855
437.20	23.895
437.54	23.934
437.89	23.947
438.24	23.968
438.59	24.015
438.94	24.053
439.29	24.118
439.63	24.149
439.98	24.201
440.33	24.236
440.68	24.251
441.03	24.281
441.37	24.278
441.72	24.315
442.07	24.340
442.42	24.364
442.76	24.372
443.11	24.382
443.46	24.382
443.81	24.376
444.16	24.411
444.50	24.418
444.85	24.445
445.20	24.490
445.55	24.488
445.89	24.544
446.24	24.563
446.59	24.616
446.94	24.670
447.28	24.758
447.63	24.842
447.98	24.900
448.32	24.995
448.67	25.048
449.02	25.109
449.37	25.211
449.71	25.227
450.06	25.261
450.41	25.308
450.75	25.333
451.10	25.362
451.45	25.386
451.79	25.387
452.14	25.401
452.49	25.441
452.84	25.479
453.18	25.518
453.53	25.587
453.88	25.658
454.22	25.654
454.57	25.685
454.92	25.740
455.26	25.780
455.61	25.816
455.95	25.838
456.30	25.855
456.65	25.880
456.99	25.921
457.34	25.940
457.69	25.954
458.03	25.987
458.38	26.022
458.73	26.037
459.07	26.072
459.42	26.127
459.76	26.168
460.11	26.199
460.46	26.260
460.80	26.330
461.15	26.388
461.49	26.434
461.84	26.506
462.19	26.581
462.53	26.659
462.88	26.707
463.22	26.755
463.57	26.822
463.91	26.901
464.26	26.942
464.61	26.952
464.95	27.012
465.30	27.084
465.64	27.129
465.99	27.141
466.33	27.168
466.68	27.218
467.02	27.258
467.37	27.273
467.71	27.289
468.06	27.295
468.41	27.306
468.75	27.325
469.10	27.313
469.44	27.350
469.79	27.382
470.13	27.438
470.48	27.451
470.82	27.476
471.17	27.510
471.51	27.526
471.86	27.560
472.20	27.592
472.55	27.621
472.89	27.648
473.23	27.678
473.58	27.701
473.92	27.688
474.27	27.716
474.61	27.741
474.96	27.773
475.30	27.788
475.65	27.805
475.99	27.834
476.34	27.851
476.68	27.906
477.02	27.938
477.37	27.998
477.71	28.052
478.06	28.142
478.40	28.278
478.75	28.465
479.09	28.675
479.43	28.914
479.78	29.244
480.12	29.602
480.47	30.011
480.81	30.434
481.15	30.862
481.50	31.317
481.84	31.852
482.19	32.422
482.53	32.881
482.87	33.131
483.22	33.104
483.56	32.796
483.90	32.325
484.25	31.717
484.59	31.152
484.94	30.726
485.28	30.306
485.62	29.772
485.97	29.167
486.31	28.670
486.65	28.381
487.00	28.357
487.34	28.546
487.68	28.867
488.03	29.265
488.37	29.593
488.71	29.732
489.06	29.770
489.40	29.774
489.74	29.795
490.09	29.797
490.43	29.772
490.77	29.766
491.11	29.770
491.46	29.784
491.80	29.799
492.14	29.806
492.49	29.784
492.83	29.811
493.17	29.843
493.51	29.865
493.86	29.891
494.20	29.968
494.54	30.010
494.88	30.069
495.23	30.111
495.57	30.199
495.91	30.252
496.25	30.310
496.60	30.356
496.94	30.420
497.28	30.494
497.62	30.557
497.97	30.616
498.31	30.712
498.65	30.783
498.99	30.865
499.33	30.928
499.68	30.995
500.02	31.076
500.36	31.140
500.70	31.195
501.04	31.259
501.39	31.314
501.73	31.395
502.07	31.455
502.41	31.539
502.75	31.579
503.09	31.628
503.44	31.721
503.78	31.786
504.12	31.850
504.46	31.930
504.80	31.998
505.14	32.082
505.49	32.131
505.83	32.210
506.17	32.263
506.51	32.351
506.85	32.405
507.19	32.470
507.53	32.558
507.87	32.632
508.22	32.723
508.56	32.753
508.90	32.816
509.24	32.904
509.58	32.970
509.92	33.061
510.26	33.123
510.60	33.214
510.94	33.291
511.28	33.359
511.63	33.461
511.97	33.491
512.31	33.589
512.65	33.660
512.99	33.723
513.33	33.800
513.67	33.871
514.01	33.964
514.35	34.056
514.69	34.112
515.03	34.200
515.37	34.250
515.71	34.337
516.05	34.400
516.39	34.466
516.73	34.511
517.07	34.570
517.41	34.631
517.75	34.675
518.09	34.721
518.43	34.782
518.77	34.809
519.11	34.867
519.45	34.924
519.79	34.981
520.13	35.070
520.47	35.178
520.81	35.264
521.15	35.327
521.49	35.424
521.83	35.506
522.17	35.615
522.51	35.688
522.85	35.821
523.19	35.979
523.53	36.235
523.87	36.447
524.21	36.670
524.55	36.883
524.89	37.083
525.23	37.274
525.57	37.428
525.91	37.564
526.25	37.715
526.58	37.814
526.92	37.901
527.26	37.919
527.60	37.912
527.94	37.877
528.28	37.838
528.62	37.795
528.96	37.742
529.30	37.696
529.64	37.646
529.97	37.599
530.31	37.548
530.65	37.513
530.99	37.498
531.33	37.535
531.67	37.583
532.01	37.624
532.35	37.644
532.68	37.638
533.02	37.662
533.36	37.692
533.70	37.701
534.04	37.723
534.38	37.736
534.71	37.763
535.05	37.761
535.39	37.780
535.73	37.815
536.07	37.887
536.41	38.044
536.74	38.156
537.08	38.232
537.42	38.355
537.76	38.467
538.10	38.579
538.43	38.701
538.77	38.817
539.11	38.921
539.45	39.007
539.79	39.068
540.12	39.058
540.46	39.049
540.80	39.065
541.14	39.052
541.47	39.030
541.81	39.038
542.15	39.019
542.49	38.998
542.82	38.954
543.16	38.935
543.50	38.917
543.84	38.941
544.17	39.012
544.51	39.071
544.85	39.126
545.18	39.182
545.52	39.214
545.86	39.251
546.20	39.298
546.53	39.366
546.87	39.411
547.21	39.490
547.54	39.571
547.88	39.653
548.22	39.719
548.55	39.815
548.89	39.932
549.23	40.000
549.56	40.030
549.90	40.116
550.24	40.176
550.57	40.238
550.91	40.301
551.25	40.344
551.58	40.350
551.92	40.402
552.26	40.420
552.59	40.455
552.93	40.496
553.27	40.595
553.60	40.625
553.94	40.703
554.27	40.782
554.61	40.850
554.95	40.950
555.28	41.038
555.62	41.099
555.95	41.210
556.29	41.279
556.63	41.345
556.96	41.365
557.30	41.444
557.63	41.531
557.97	41.569
558.31	41.597
558.64	41.669
558.98	41.730
559.31	41.796
559.65	41.820
559.98	41.829
560.32	41.884
560.65	41.936
560.99	41.981
561.33	41.980
561.66	42.016
562.00	42.111
562.33	42.123
562.67	42.135
563.00	42.153
563.34	42.168
563.67	42.244
564.01	42.269
564.34	42.273
564.68	42.296
565.01	42.305
565.35	42.320
565.68	42.317
566.02	42.320
566.35	42.423
566.69	42.481
567.02	42.504
567.36	42.548
567.69	42.611
568.03	42.707
568.36	42.751
568.69	42.822
569.03	42.873
569.36	42.938
569.70	42.997
570.03	42.973
570.37	42.965
570.70	43.039
571.04	43.081
571.37	43.090
571.70	43.141
572.04	43.192
572.37	43.243
572.71	43.279
573.04	43.282
573.37	43.333
573.71	43.415
574.04	43.514
574.38	43.561
574.71	43.635
575.04	43.757
575.38	43.812
575.71	43.858
576.05	43.938
576.38	44.058
576.71	44.172
577.05	44.282
577.38	44.367
577.71	44.447
578.05	44.517
578.38	44.562
578.71	44.599
579.05	44.634
579.38	44.718
579.71	44.791
580.05	44.832
580.38	44.910
580.71	44.962
581.05	44.986
581.38	45.054
581.71	45.113
582.05	45.188
582.38	45.247
582.71	45.358
583.04	45.373
583.38	45.412
583.71	45.487
584.04	45.542
584.38	45.587
584.71	45.651
585.04	45.657
585.37	45.764
585.71	45.796
586.04	45.837
586.37	45.838
586.70	45.942
587.04	45.948
587.37	45.976
587.70	46.003
588.03	46.047
588.37	46.068
588.70	46.120
589.03	46.105
589.36	46.132
589.69	46.152
590.03	46.202
590.36	46.211
590.69	46.291
591.02	46.320
591.35	46.353
591.69	46.348
592.02	46.375
592.35	46.393
592.68	46.473
593.01	46.471
593.35	46.530
593.68	46.526
594.01	46.531
594.34	46.528
594.67	46.498
595.00	46.502
595.34	46.498
595.67	46.565
596.00	46.613
596.33	46.569
596.66	46.627
596.99	46.658
597.32	46.781
597.65	46.928
597.99	46.979
598.32	47.112
598.65	47.196
598.98	47.334
599.31	47.398
599.64	47.464
599.97	47.578
600.30	47.637
600.63	47.691
600.96	47.669
601.30	47.622
601.63	47.653
601.96	47.644
602.29	47.692
602.62	47.745
602.95	47.754
603.28	47.762
603.61	47.767
603.94	47.808
604.27	47.825
604.60	47.903
604.93	47.974
605.26	48.071
605.59	48.165
605.92	48.230
606.25	48.273
606.58	48.342
606.91	48.446
607.24	48.534
607.57	48.561
607.90	48.585
608.23	48.604
608.56	48.664
608.89	48.688
609.22	48.754
609.55	48.787
609.88	48.840
610.21	48.902
610.54	49.005
610.87	49.055
611.20	49.197
611.53	49.345
611.86	49.443
612.19	49.551
612.52	49.672
612.85	49.750
613.18	49.826
613.51	49.888
613.84	49.922
614.17	49.933
614.49	50.058
614.82	50.068
615.15	50.073
615.48	50.195
615.81	50.211
616.14	50.194
616.47	50.218
616.80	50.253
617.13	50.261
617.46	50.308
617.78	50.368
618.11	50.330
618.44	50.397
618.77	50.444
619.10	50.470
619.43	50.529
619.76	50.647
620.09	50.694
620.41	50.800
620.74	50.870
621.07	50.925
621.40	50.965
621.73	51.078
622.06	51.110
622.38	51.184
622.71	51.150
623.04	51.147
623.37	51.169
623.70	51.195
624.02	51.184
624.35	51.248
624.68	51.318
625.01	51.369
625.34	51.368
625.66	51.415
625.99	51.461
626.32	51.553
626.65	51.656
626.98	51.678
627.30	51.781
627.63	51.796
627.96	51.847
628.29	51.899
628.61	51.951
628.94	52.035
629.27	52.137
629.60	52.266
629.92	52.307
630.25	52.349
630.58	52.427
630.91	52.448
631.23	52.576
631.56	52.655
631.89	52.714
632.21	52.745
632.54	52.751
632.87	52.801
633.19	52.769
633.52	52.853
633.85	52.947
634.18	53.008
634.50	53.040
634.83	53.102
635.16	53.137
635.48	53.218
635.81	53.274
636.14	53.396
636.46	53.442
636.79	53.556
637.11	53.658
637.44	53.712
637.77	53.788
638.09	53.903
638.42	53.986
638.75	54.088
639.07	54.145
639.40	54.260
639.73	54.329
640.05	54.438
640.38	54.489
640.70	54.518
641.03	54.618
641.36	54.676
641.68	54.745
642.01	54.807
642.33	54.880
642.66	54.966
642.98	54.984
643.31	54.984
643.64	55.020
643.96	55.097
644.29	55.161
644.61	55.144
644.94	55.194
645.26	55.173
645.59	55.231
645.91	55.336
646.24	55.424
646.56	55.500
646.89	55.615
647.22	55.713
647.54	55.752
647.87	55.768
648.19	55.890
648.52	55.905
648.84	56.021
649.17	56.098
649.49	56.079
649.82	56.086
650.14	56.144
650.47	56.144
650.79	56.153
651.11	56.162
651.44	56.240
651.76	56.283
652.09	56.364
652.41	56.455
652.74	56.439
653.06	56.479
653.39	56.562
653.71	56.666
654.04	56.709
654.36	56.799
654.68	56.830
655.01	56.809
655.33	56.816
655.66	56.842
655.98	56.832
656.30	56.834
656.63	56.844
656.95	56.844
657.28	56.822
657.60	56.894
657.92	56.837
658.25	56.875
658.57	56.982
658.90	57.030
659.22	57.094
659.54	57.204
659.87	57.259
660.19	57.356
660.51	57.527
660.84	57.596
661.16	57.657
661.48	57.833
661.81	58.017
662.13	58.098
662.45	58.144
662.78	58.317
663.10	58.339
663.42	58.528
663.75	58.619
664.07	58.535
664.39	58.590
664.72	58.633
665.04	58.596
665.36	58.558
665.69	58.605
666.01	58.645
666.33	58.638
666.65	58.622
666.98	58.654
667.30	58.571
667.62	58.583
667.94	58.672
668.27	58.809
668.59	58.840
668.91	58.850
669.23	58.956
669.56	59.078
669.88	59.066
670.20	59.191
670.52	59.156
670.85	59.371
671.17	59.530
671.49	59.587
671.81	59.654
672.13	59.815
672.46	59.920
672.78	59.873
673.10	59.912
673.42	60.032
673.74	60.132
674.07	60.163
674.39	60.130
674.71	60.071
675.03	60.049
675.35	59.985
675.67	59.951
676.00	59.966
676.32	59.920
676.64	59.916
676.96	59.907
677.28	59.845
677.60	59.921
677.92	59.939
678.25	60.018
678.57	60.053
678.89	60.096
679.21	60.093
679.53	60.179
679.85	60.305
680.17	60.439
680.49	60.488
680.81	60.605
681.13	60.673
681.46	60.735
681.78	60.898
682.10	60.985
682.42	61.085
682.74	61.170
683.06	61.194
683.38	61.135
683.70	61.150
684.02	61.206
684.34	61.160
684.66	61.182
684.98	61.158
685.30	61.162
685.62	61.128
685.94	61.079
686.26	61.098
686.58	61.154
686.90	61.220
687.22	61.233
687.54	61.228
687.86	61.328
688.18	61.337
688.50	61.421
688.82	61.274
689.14	61.381
689.46	61.491
689.78	61.486
690.10	61.460
690.42	61.563
690.74	61.560
691.06	61.531
691.38	61.530
691.70	61.562
692.02	61.693
692.34	61.787
692.66	61.749
692.98	61.705
693.30	61.814
693.62	61.842
693.94	61.697
694.26	61.694
694.57	61.653
694.89	61.561
695.21	61.531
695.53	61.338
695.85	61.300
696.17	61.219
696.49	61.138
696.81	61.019
697.13	60.923
697.44	60.962
697.76	60.837
698.08	60.909
698.40	60.997
698.72	60.994
699.04	61.027
699.36	61.058
699.67	61.060
699.99	61.121
700.31	61.165
700.63	61.254
700.95	61.373
701.27	61.469
701.58	61.518
701.90	61.370
702.22	61.460
702.54	61.540
702.86	61.544
703.17	61.777
703.49	61.787
703.81	61.858
704.13	61.949
704.45	61.880
704.76	61.908
705.08	61.982
705.40	62.147
705.72	62.086
706.03	62.027
706.35	62.103
706.67	61.964
706.99	62.006
707.30	61.959
707.62	61.930
707.94	62.003
708.26	61.956
708.57	61.817
708.89	61.752
709.21	61.717
709.53	61.729
709.84	61.751
710.16	61.851
710.48	61.919
710.79	61.903
711.11	61.900
711.43	61.834
711.74	61.947
712.06	62.079
712.38	62.188
712.69	62.212
713.01	62.178
713.33	62.079
713.64	62.044
713.96	61.970
714.28	62.160
714.59	62.191
714.91	62.209
715.23	62.106
715.54	62.068
715.86	62.080
716.17	62.135
716.49	62.306
716.81	62.446
717.12	62.432
717.44	62.362
717.76	62.311
718.07	62.306
718.39	62.354
718.70	62.495
719.02	62.493
719.33	62.393
719.65	62.347
719.97	62.272
720.28	62.150
720.60	62.155
720.91	62.332
721.23	62.102
721.54	62.157
721.86	62.176
722.17	62.141
722.49	62.182
722.81	62.241
723.12	62.154
723.44	62.113
723.75	62.190
724.07	62.186
724.38	62.030
724.70	62.161
725.01	62.016
725.33	61.886
725.64	61.890
725.96	61.774
726.27	61.573
726.59	61.577
726.90	61.677
727.22	61.469
727.53	61.626
727.84	61.697
728.16	61.710
728.47	61.752
728.79	61.832
729.10	61.828
729.42	61.899
729.73	61.966
730.05	62.087
730.36	62.091
730.67	62.209
730.99	62.078
731.30	62.028
731.62	61.981
731.93	62.021
732.24	61.951
732.56	61.803
732.87	61.560
733.19	61.582
733.50	61.539
733.81	61.359
734.13	61.207
734.44	61.092
734.76	61.215
735.07	61.172
735.38	61.068
735.70	61.048
736.01	61.175
736.32	61.432
736.64	61.500
736.95	61.447
737.26	61.460
737.58	61.539
737.89	61.677
738.20	61.566
738.52	61.511
738.83	61.396
739.14	61.319
739.45	61.261
739.77	61.152
740.08	60.925
740.39	60.826
740.71	60.871
741.02	60.961
741.33	60.931
741.64	60.881
741.96	60.656
742.27	60.697
742.58	60.628
742.90	60.580
743.21	60.524
743.52	60.760
743.83	60.841
744.14	60.865
744.46	60.864
744.77	60.568
745.08	60.623
745.39	60.827
745.71	60.838
746.02	60.924
746.33	60.925
746.64	60.786
746.95	60.583
747.27	60.717
747.58	60.622
747.89	60.307
748.20	60.301
748.51	60.066
748.82	60.010
749.14	60.035
749.45	59.946
749.76	59.850
750.07	59.845
750.38	59.786
750.69	59.464
751.01	59.526
751.32	59.592
751.63	59.686
751.94	59.703
752.25	59.795
752.56	59.561
752.87	59.508
753.18	59.346
753.49	59.395
753.81	59.505
754.12	59.585
754.43	59.485
754.74	59.734
755.05	59.837
755.36	59.925
755.67	59.980
755.98	60.107
756.29	60.497
756.60	60.790
756.91	60.936
757.22	61.135
757.53	61.167
757.84	61.334
758.15	61.430
758.46	61.592
758.77	61.771
759.09	61.864
759.40	62.104
759.71	62.042
760.02	61.882
760.33	61.856
760.64	61.749
760.95	61.653
761.26	61.609
761.57	61.627
761.88	61.544
762.18	61.501
762.49	61.439
762.80	61.187
763.11	61.041
763.42	61.057
763.73	61.113
764.04	61.039
764.35	61.093
764.66	60.918
764.97	60.772
765.28	60.691
765.59	60.454
765.90	60.289
766.21	60.346
766.52	60.251
766.83	60.093
767.14	59.788
767.44	59.576
767.75	59.410
768.06	59.446
768.37	59.203
768.68	59.014
768.99	59.092
769.30	58.803
769.61	58.532
769.91	58.479
770.22	58.489
770.53	58.177
770.84	58.152
771.15	58.112
771.46	57.895
771.77	57.682
772.07	57.585
772.38	57.261
772.69	57.409
773.00	57.511
773.31	57.365
773.61	57.204
773.92	57.329
774.23	57.142
774.54	56.969
774.85	56.862
775.15	56.858
775.46	56.541
775.77	56.508
776.08	56.361
776.39	56.128
776.69	55.943
777.00	56.129
777.31	56.138
777.62	56.180
777.92	56.234
778.23	56.473
778.54	56.324
778.85	56.429
779.15	56.524
779.46	56.470
779.77	56.638
780.07	56.626
780.38	56.221
780.69	56.302
781.00	56.028
781.30	55.944
781.61	55.487
781.92	55.600
782.22	55.435
782.53	55.435
782.84	55.730
783.14	55.909
783.45	56.155
783.76	56.497
784.06	56.380
784.37	56.646
784.68	56.723
784.98	57.060
785.29	57.112
785.60	57.266
785.90	57.524
786.21	57.257
786.51	57.063
786.82	56.875
787.13	56.853
787.43	56.905
787.74	56.951
788.04	56.736
788.35	56.504
788.66	56.343
788.96	56.423
789.27	56.288
789.57	56.466
789.88	56.395
790.19	56.413
790.49	56.406
790.80	56.174
791.10	55.842
791.41	55.844
791.71	55.967
792.02	55.993
792.32	55.876
792.63	55.422
792.93	55.333
793.24	55.245
793.54	55.107
793.85	54.881
794.15	55.032
794.46	55.360
794.76	55.322
795.07	55.334
795.37	55.232
795.68	55.029
795.98	55.138
796.29	55.038
796.59	55.153
796.90	55.397
797.20	55.706
797.51	55.849
797.81	55.616
798.12	55.891
798.42	55.495
798.72	55.566
799.03	55.686
799.33	55.544
799.64	55.376
799.94	55.192
800.25	55.084
800.55	54.734
800.85	54.420
801.16	54.188
801.46	53.815
801.77	53.984
802.07	53.645
802.37	53.411
802.68	53.654
802.98	53.392
803.28	53.384
803.59	53.015
803.89	52.699
804.20	52.703
804.50	53.226
804.80	53.263
805.11	53.156
805.41	53.348
805.71	53.302
806.02	53.051
806.32	53.071
806.62	52.757
806.93	52.994
807.23	53.107
807.53	52.774
807.83	52.339
808.14	52.053
808.44	52.133
808.74	52.149
809.05	52.496
809.35	52.546
809.65	52.647
809.95	52.768
810.26	52.829
810.56	53.057
810.86	53.257
811.16	52.971
811.47	53.263
811.77	53.761
812.07	53.504
812.37	53.022
812.68	52.963
812.98	53.137
813.28	53.342
813.58	53.198
813.88	53.088
814.19	52.840
814.49	53.411
814.79	53.487
815.09	52.748
815.39	53.094
815.70	53.517
816.00	53.483
816.30	53.602
816.60	53.319
816.90	53.451
817.20	54.155
817.50	54.555
817.81	54.506
818.11	54.816
818.41	54.997
818.71	54.796
819.01	54.862
819.31	54.867
819.61	54.704
819.92	54.615
820.22	54.486
820.52	54.225
820.82	54.073
821.12	53.941
821.42	53.750
821.72	53.657
822.02	53.469
822.32	53.234
822.62	53.040
822.92	52.933
823.22	52.827
823.52	52.771
823.83	52.660
824.13	52.644
824.43	52.504
824.73	52.359
825.03	52.223
825.33	52.268
825.63	52.222
825.93	52.235
826.23	52.289
826.53	52.222
826.83	51.903
827.13	51.818
827.43	51.549
827.73	51.510
828.03	51.237
828.33	50.850
828.63	50.869
828.93	50.874
829.23	50.782
829.53	50.585
829.83	50.808
830.13	51.209
830.42	51.284
830.72	51.655
831.02	51.524
831.32	51.797
831.62	51.852
831.92	51.688
832.22	51.424
832.52	51.511
832.82	51.554
833.12	51.181
833.42	50.923
833.72	50.827
834.01	50.432
834.31	50.431
834.61	50.405
834.91	50.395
835.21	50.363
835.51	50.424
835.81	50.188
836.11	50.068
836.40	49.885
836.70	50.031
837.00	50.121
837.30	49.901
837.60	49.677
837.90	49.481
838.19	49.668
838.49	49.431
838.79	49.079
839.09	48.968
839.39	48.144
839.68	48.585
839.98	48.344
840.28	47.436
840.58	47.350
840.88	47.185
841.17	47.244
841.47	46.441
841.77	46.227
842.07	46.500
842.36	46.261
842.66	45.800
842.96	45.251
843.26	44.218
843.55	45.027
843.85	45.310
844.15	45.364
844.45	45.053
844.74	45.953
845.04	46.343
845.34	44.712
845.63	43.527
845.93	44.764
846.23	43.844
846.53	44.446
846.82	43.167
847.12	42.564
847.42	42.457
847.71	42.997
848.01	41.420
848.31	41.179
848.60	41.631
848.90	40.679
849.19	39.909
849.49	41.708
849.79	41.509
850.08	42.583
850.38	44.113
850.68	44.766
850.97	43.369
851.27	45.017
851.56	43.973
851.86	45.683
852.16	47.457
852.45	47.340
852.75	47.818
853.04	48.443
853.34	49.106
853.64	46.970
853.93	46.872
854.23	49.285
854.52	48.020
854.82	48.005
855.11	46.284
855.41	44.001
855.70	44.506
856.00	42.689
856.30	42.444
856.59	41.520
856.89	41.211
857.18	40.463
857.48	38.962
857.77	37.986
858.07	38.611
858.36	39.369
858.66	40.211
858.95	39.266
859.25	38.302
859.54	37.889
859.84	37.230
860.13	37.415
860.42	38.230
860.72	38.954
861.01	40.204
861.31	39.490
861.60	40.475
861.90	41.629
862.19	42.402
862.49	42.397
862.78	42.052
863.07	43.219
863.37	43.116
863.66	41.211
863.96	40.705
864.25	41.070
864.54	42.007
864.84	40.923
865.13	40.563
865.43	40.435
865.72	45.148
866.01	47.420
866.31	43.867
866.60	40.943
866.89	45.270
>>>>>End Spectral Data<<<<<
