OOIBase32 Version 2.0.0.6 Data File
++++++++++++++++++++++++++++++++++++
Date: 01-23-2012, 22:02:54
User: Valued Ocean Optics Customer
Spectrometer Serial Number: USB2E2917
Spectrometer Channel: Master
Integration Time (msec): 5
Spectra Averaged: 10
Boxcar Smoothing: 5
Correct for Electrical Dark: Enabled
Time Normalized: Disabled
Dual-beam Reference: Disabled
Reference Channel: Master
Temperature: Not acquired
Spectrometer Type: S2000
ADC Type: USB2000
Number of Pixels in File: 2048
Graph Title: 
>>>>>Begin Spectral Data<<<<<
180.30	0.000
180.67	0.000
181.03	325.112
181.40	21.073
181.77	15391.333
182.14	17.642
182.51	122.971
182.88	-636.017
183.25	-90.585
183.62	1.031
183.99	121.311
184.36	183.611
184.73	23.551
185.10	-68.700
185.46	50.433
185.83	99.261
186.20	40.292
186.57	-182.636
186.94	-96.941
187.31	10.686
187.68	-299.125
188.05	63.516
188.42	58.998
188.78	38.249
189.15	16.328
189.52	13.050
189.89	-4.416
190.26	-29.954
190.63	-7.056
191.00	1.629
191.37	16.530
191.73	18.724
192.10	29.184
192.47	28.654
192.84	33.864
193.21	27.622
193.58	32.048
193.94	37.208
194.31	35.080
194.68	37.394
195.05	22.607
195.42	3.191
195.79	-1.573
196.15	-1.591
196.52	1.436
196.89	-5.674
197.26	16.428
197.63	4.811
198.00	4.569
198.36	2.649
198.73	1.460
199.10	13.867
199.47	11.489
199.84	1.286
200.20	4.458
200.57	-23.370
200.94	-22.762
201.31	-41.031
201.68	-26.783
202.04	-28.593
202.41	-17.178
202.78	-27.601
203.15	-33.915
203.51	-41.522
203.88	-26.810
204.25	-27.751
204.62	-4.714
204.98	6.710
205.35	13.830
205.72	16.871
206.09	24.922
206.46	28.119
206.82	27.633
207.19	27.995
207.56	24.610
207.92	27.207
208.29	26.173
208.66	25.016
209.03	21.371
209.39	16.503
209.76	10.136
210.13	3.900
210.50	-3.341
210.86	1.617
211.23	19.189
211.60	14.841
211.96	14.376
212.33	4.396
212.70	12.852
213.07	3.745
213.43	16.952
213.80	22.245
214.17	10.044
214.53	6.096
214.90	4.041
215.27	-4.008
215.63	-6.258
216.00	-9.005
216.37	0.709
216.74	-13.231
217.10	-4.591
217.47	-15.731
217.84	-19.701
218.20	2.672
218.57	9.584
218.94	11.751
219.30	9.259
219.67	11.908
220.04	9.163
220.40	6.456
220.77	4.445
221.13	-5.899
221.50	-17.798
221.87	-18.449
222.23	-25.726
222.60	-17.709
222.97	-21.586
223.33	-23.425
223.70	-17.201
224.07	-7.389
224.43	-2.812
224.80	0.735
225.16	3.605
225.53	6.175
225.90	2.644
226.26	1.555
226.63	0.177
226.99	1.102
227.36	2.009
227.73	0.716
228.09	-2.459
228.46	-2.587
228.82	-2.452
229.19	-3.092
229.56	-3.980
229.92	-1.198
230.29	1.096
230.65	1.071
231.02	0.583
231.38	-0.932
231.75	0.384
232.12	1.842
232.48	2.391
232.85	3.174
233.21	4.382
233.58	5.837
233.94	6.449
234.31	4.775
234.68	3.687
235.04	4.540
235.41	5.476
235.77	5.194
236.14	4.716
236.50	1.488
236.87	0.125
237.23	-1.601
237.60	-2.068
237.96	-3.107
238.33	-2.132
238.69	-1.301
239.06	-1.838
239.42	-1.455
239.79	-1.622
240.15	-1.117
240.52	-0.759
240.88	-0.597
241.25	-0.014
241.61	-0.022
241.98	0.415
242.34	0.333
242.71	0.622
243.07	1.257
243.44	1.445
243.80	1.369
244.17	1.233
244.53	1.422
244.90	1.283
245.26	1.557
245.63	1.649
245.99	1.753
246.36	1.934
246.72	1.491
247.09	1.368
247.45	1.141
247.81	0.911
248.18	0.840
248.54	0.773
248.91	0.869
249.27	0.876
249.64	0.595
250.00	0.720
250.36	0.813
250.73	1.344
251.09	1.313
251.46	1.419
251.82	2.250
252.19	2.582
252.55	2.630
252.91	2.803
253.28	2.102
253.64	2.685
254.01	2.581
254.37	2.427
254.73	2.794
255.10	2.757
255.46	2.434
255.83	1.701
256.19	1.586
256.55	1.511
256.92	1.420
257.28	1.414
257.65	1.284
258.01	1.224
258.37	0.883
258.74	0.619
259.10	0.563
259.46	0.867
259.83	1.119
260.19	1.064
260.55	1.199
260.92	1.066
261.28	0.915
261.64	0.601
262.01	0.472
262.37	0.653
262.73	0.624
263.10	0.535
263.46	0.353
263.82	0.156
264.19	-0.085
264.55	-0.025
264.91	0.262
265.28	0.797
265.64	0.905
266.00	0.826
266.37	0.757
266.73	0.901
267.09	1.198
267.46	1.164
267.82	1.221
268.18	1.354
268.54	1.209
268.91	1.370
269.27	1.271
269.63	1.274
270.00	1.276
270.36	1.247
270.72	1.052
271.08	0.604
271.45	0.472
271.81	0.537
272.17	0.611
272.53	0.531
272.90	0.288
273.26	0.165
273.62	0.151
273.98	0.172
274.35	0.129
274.71	0.598
275.07	0.855
275.43	1.090
275.80	1.317
276.16	1.556
276.52	1.633
276.88	1.724
277.25	1.665
277.61	1.850
277.97	1.924
278.33	1.909
278.69	1.391
279.06	1.560
279.42	1.140
279.78	0.738
280.14	0.694
280.50	0.759
280.87	0.643
281.23	0.857
281.59	0.832
281.95	0.801
282.31	1.041
282.68	1.314
283.04	1.241
283.40	1.500
283.76	1.591
284.12	1.533
284.48	1.482
284.85	1.612
285.21	1.533
285.57	1.633
285.93	1.615
286.29	1.459
286.65	1.594
287.02	1.624
287.38	1.623
287.74	1.737
288.10	1.701
288.46	1.585
288.82	1.481
289.18	1.467
289.54	1.433
289.91	1.643
290.27	1.838
290.63	1.857
290.99	1.821
291.35	1.955
291.71	2.195
292.07	2.408
292.43	2.951
292.79	3.293
293.16	3.394
293.52	3.473
293.88	3.644
294.24	3.903
294.60	3.936
294.96	4.164
295.32	4.214
295.68	4.075
296.04	4.174
296.40	4.168
296.76	4.370
297.12	4.556
297.49	4.800
297.85	5.110
298.21	5.129
298.57	5.277
298.93	5.409
299.29	5.626
299.65	5.801
300.01	5.995
300.37	6.250
300.73	6.566
301.09	6.894
301.45	7.180
301.81	7.278
302.17	7.557
302.53	7.846
302.89	8.139
303.25	8.404
303.61	8.959
303.97	9.373
304.33	9.606
304.69	9.753
305.05	10.067
305.41	10.197
305.77	10.424
306.13	10.690
306.49	11.057
306.85	11.507
307.21	11.857
307.57	12.044
307.93	12.178
308.29	12.618
308.65	12.817
309.01	12.955
309.37	13.377
309.73	13.626
310.09	13.776
310.45	13.903
310.81	13.881
311.17	13.934
311.53	14.044
311.89	14.246
312.25	14.069
312.61	14.208
312.96	14.366
313.32	14.286
313.68	14.301
314.04	14.407
314.40	14.346
314.76	14.612
315.12	14.777
315.48	14.929
315.84	14.899
316.20	15.124
316.56	15.219
316.92	15.303
317.27	15.453
317.63	15.369
317.99	15.411
318.35	15.485
318.71	15.255
319.07	15.179
319.43	15.139
319.79	15.094
320.15	15.034
320.50	14.923
320.86	14.913
321.22	14.782
321.58	14.832
321.94	14.753
322.30	14.819
322.66	14.809
323.01	14.823
323.37	14.846
323.73	14.877
324.09	14.885
324.45	14.828
324.81	14.601
325.17	14.514
325.52	14.397
325.88	14.393
326.24	14.390
326.60	14.542
326.96	14.555
327.31	14.462
327.67	14.426
328.03	14.409
328.39	14.319
328.75	14.459
329.11	14.491
329.46	14.462
329.82	14.410
330.18	14.287
330.54	14.250
330.90	14.197
331.25	14.099
331.61	13.957
331.97	13.887
332.33	13.998
332.68	13.821
333.04	13.725
333.40	13.722
333.76	13.688
334.11	13.568
334.47	13.389
334.83	13.221
335.19	13.207
335.54	13.246
335.90	13.204
336.26	13.104
336.62	13.075
336.97	12.996
337.33	13.001
337.69	12.983
338.05	12.942
338.40	12.833
338.76	12.831
339.12	12.746
339.48	12.740
339.83	12.562
340.19	12.466
340.55	12.422
340.90	12.476
341.26	12.332
341.62	12.225
341.97	12.267
342.33	12.259
342.69	12.240
343.04	12.260
343.40	12.195
343.76	12.212
344.12	12.191
344.47	12.259
344.83	12.077
345.19	12.055
345.54	12.046
345.90	12.036
346.26	11.998
346.61	11.999
346.97	11.863
347.32	11.859
347.68	11.747
348.04	11.727
348.39	11.643
348.75	11.794
349.11	11.781
349.46	11.754
349.82	11.698
350.18	11.711
350.53	11.559
350.89	11.623
351.24	11.535
351.60	11.570
351.96	11.502
352.31	11.463
352.67	11.343
353.02	11.299
353.38	11.230
353.74	11.171
354.09	11.195
354.45	11.238
354.80	11.164
355.16	11.140
355.52	11.120
355.87	11.058
356.23	10.995
356.58	11.039
356.94	10.969
357.29	10.949
357.65	10.850
358.00	10.690
358.36	10.665
358.72	10.647
359.07	10.610
359.43	10.556
359.78	10.566
360.14	10.503
360.49	10.382
360.85	10.392
361.20	10.366
361.56	10.346
361.91	10.358
362.27	10.294
362.62	10.233
362.98	10.171
363.33	10.167
363.69	10.141
364.04	10.146
364.40	10.101
364.75	10.059
365.11	10.021
365.46	10.035
365.82	9.978
366.17	9.917
366.53	9.899
366.88	9.860
367.24	9.788
367.59	9.739
367.95	9.695
368.30	9.665
368.66	9.631
369.01	9.603
369.37	9.606
369.72	9.556
370.08	9.574
370.43	9.513
370.78	9.484
371.14	9.480
371.49	9.472
371.85	9.487
372.20	9.458
372.56	9.453
372.91	9.410
373.26	9.329
373.62	9.328
373.97	9.315
374.33	9.332
374.68	9.326
375.03	9.277
375.39	9.191
375.74	9.078
376.10	9.056
376.45	9.028
376.80	9.027
377.16	9.024
377.51	9.001
377.87	8.923
378.22	8.860
378.57	8.869
378.93	8.829
379.28	8.822
379.63	8.837
379.99	8.838
380.34	8.775
380.70	8.741
381.05	8.721
381.40	8.682
381.76	8.699
382.11	8.722
382.46	8.619
382.82	8.598
383.17	8.547
383.52	8.532
383.88	8.466
384.23	8.414
384.58	8.341
384.94	8.259
385.29	8.228
385.64	8.183
385.99	8.137
386.35	8.188
386.70	8.169
387.05	8.161
387.41	8.112
387.76	8.064
388.11	8.054
388.47	8.032
388.82	7.974
389.17	7.901
389.52	7.848
389.88	7.771
390.23	7.656
390.58	7.615
390.93	7.563
391.29	7.517
391.64	7.497
391.99	7.409
392.34	7.378
392.70	7.364
393.05	7.340
393.40	7.290
393.75	7.235
394.11	7.194
394.46	7.122
394.81	7.050
395.16	6.963
395.52	6.875
395.87	6.870
396.22	6.789
396.57	6.754
396.92	6.702
397.28	6.661
397.63	6.599
397.98	6.577
398.33	6.536
398.68	6.501
399.04	6.472
399.39	6.470
399.74	6.390
400.09	6.340
400.44	6.271
400.80	6.232
401.15	6.160
401.50	6.146
401.85	6.113
402.20	6.070
402.55	6.030
402.90	5.994
403.26	5.952
403.61	5.969
403.96	5.951
404.31	5.917
404.66	5.892
405.01	5.901
405.36	5.913
405.72	5.877
406.07	5.847
406.42	5.823
406.77	5.772
407.12	5.725
407.47	5.669
407.82	5.631
408.17	5.569
408.53	5.544
408.88	5.527
409.23	5.446
409.58	5.388
409.93	5.329
410.28	5.292
410.63	5.284
410.98	5.277
411.33	5.210
411.68	5.180
412.03	5.187
412.38	5.173
412.73	5.135
413.09	5.116
413.44	5.089
413.79	5.108
414.14	5.091
414.49	5.074
414.84	5.050
415.19	5.079
415.54	5.083
415.89	5.073
416.24	5.048
416.59	5.028
416.94	5.022
417.29	5.034
417.64	5.034
417.99	5.037
418.34	5.032
418.69	5.022
419.04	4.993
419.39	4.978
419.74	4.979
420.09	4.978
420.44	4.981
420.79	4.975
421.14	4.963
421.49	4.938
421.84	4.938
422.19	4.923
422.54	4.928
422.89	4.921
423.24	4.920
423.59	4.914
423.94	4.896
424.29	4.867
424.64	4.841
424.99	4.827
425.34	4.829
425.68	4.805
426.03	4.807
426.38	4.783
426.73	4.785
427.08	4.765
427.43	4.753
427.78	4.743
428.13	4.759
428.48	4.759
428.83	4.759
429.18	4.755
429.53	4.744
429.87	4.746
430.22	4.743
430.57	4.751
430.92	4.751
431.27	4.747
431.62	4.751
431.97	4.735
432.32	4.746
432.67	4.762
433.01	4.763
433.36	4.784
433.71	4.785
434.06	4.792
434.41	4.801
434.76	4.820
435.11	4.822
435.45	4.843
435.80	4.870
436.15	4.883
436.50	4.896
436.85	4.898
437.20	4.898
437.54	4.915
437.89	4.931
438.24	4.945
438.59	4.965
438.94	4.979
439.29	4.990
439.63	5.014
439.98	5.039
440.33	5.057
440.68	5.076
441.03	5.106
441.37	5.121
441.72	5.146
442.07	5.168
442.42	5.191
442.76	5.206
443.11	5.220
443.46	5.230
443.81	5.248
444.16	5.258
444.50	5.282
444.85	5.305
445.20	5.323
445.55	5.338
445.89	5.338
446.24	5.336
446.59	5.348
446.94	5.357
447.28	5.359
447.63	5.348
447.98	5.344
448.32	5.346
448.67	5.336
449.02	5.340
449.37	5.332
449.71	5.336
450.06	5.336
450.41	5.351
450.75	5.348
451.10	5.333
451.45	5.356
451.79	5.365
452.14	5.353
452.49	5.360
452.84	5.352
453.18	5.355
453.53	5.366
453.88	5.371
454.22	5.371
454.57	5.396
454.92	5.435
455.26	5.442
455.61	5.459
455.95	5.483
456.30	5.509
456.65	5.517
456.99	5.521
457.34	5.528
457.69	5.557
458.03	5.570
458.38	5.591
458.73	5.600
459.07	5.611
459.42	5.628
459.76	5.644
460.11	5.627
460.46	5.631
460.80	5.654
461.15	5.671
461.49	5.649
461.84	5.657
462.19	5.649
462.53	5.671
462.88	5.674
463.22	5.671
463.57	5.692
463.91	5.718
464.26	5.747
464.61	5.749
464.95	5.771
465.30	5.786
465.64	5.793
465.99	5.812
466.33	5.799
466.68	5.822
467.02	5.838
467.37	5.828
467.71	5.836
468.06	5.852
468.41	5.868
468.75	5.865
469.10	5.876
469.44	5.896
469.79	5.899
470.13	5.935
470.48	5.900
470.82	5.890
471.17	5.887
471.51	5.881
471.86	5.867
472.20	5.871
472.55	5.870
472.89	5.870
473.23	5.847
473.58	5.840
473.92	5.800
474.27	5.806
474.61	5.794
474.96	5.789
475.30	5.762
475.65	5.752
475.99	5.716
476.34	5.703
476.68	5.680
477.02	5.666
477.37	5.637
477.71	5.621
478.06	5.611
478.40	5.626
478.75	5.644
479.09	5.689
479.43	5.742
479.78	5.819
480.12	5.891
480.47	5.997
480.81	6.100
481.15	6.222
481.50	6.337
481.84	6.471
482.19	6.597
482.53	6.713
482.87	6.783
483.22	6.790
483.56	6.736
483.90	6.648
484.25	6.515
484.59	6.393
484.94	6.286
485.28	6.187
485.62	6.057
485.97	5.921
486.31	5.793
486.65	5.712
487.00	5.683
487.34	5.699
487.68	5.746
488.03	5.818
488.37	5.869
488.71	5.879
489.06	5.869
489.40	5.864
489.74	5.857
490.09	5.846
490.43	5.825
490.77	5.811
491.11	5.802
491.46	5.793
491.80	5.784
492.14	5.757
492.49	5.743
492.83	5.730
493.17	5.722
493.51	5.719
493.86	5.728
494.20	5.730
494.54	5.736
494.88	5.747
495.23	5.762
495.57	5.776
495.91	5.817
496.25	5.824
496.60	5.842
496.94	5.853
497.28	5.859
497.62	5.872
497.97	5.911
498.31	5.940
498.65	5.965
498.99	5.995
499.33	6.006
499.68	6.033
500.02	6.072
500.36	6.111
500.70	6.144
501.04	6.195
501.39	6.221
501.73	6.248
502.07	6.266
502.41	6.302
502.75	6.325
503.09	6.380
503.44	6.426
503.78	6.478
504.12	6.519
504.46	6.574
504.80	6.609
505.14	6.658
505.49	6.694
505.83	6.754
506.17	6.804
506.51	6.845
506.85	6.877
507.19	6.913
507.53	6.945
507.87	6.979
508.22	7.004
508.56	7.025
508.90	7.045
509.24	7.078
509.58	7.101
509.92	7.115
510.26	7.146
510.60	7.188
510.94	7.202
511.28	7.224
511.63	7.255
511.97	7.283
512.31	7.320
512.65	7.355
512.99	7.372
513.33	7.404
513.67	7.432
514.01	7.459
514.35	7.474
514.69	7.496
515.03	7.513
515.37	7.532
515.71	7.560
516.05	7.580
516.39	7.589
516.73	7.613
517.07	7.626
517.41	7.638
517.75	7.629
518.09	7.627
518.43	7.620
518.77	7.608
519.11	7.604
519.45	7.591
519.79	7.579
520.13	7.568
520.47	7.544
520.81	7.538
521.15	7.520
521.49	7.527
521.83	7.517
522.17	7.538
522.51	7.564
522.85	7.583
523.19	7.592
523.53	7.634
523.87	7.672
524.21	7.720
524.55	7.753
524.89	7.807
525.23	7.848
525.57	7.883
525.91	7.914
526.25	7.948
526.58	7.958
526.92	7.973
527.26	7.972
527.60	7.979
527.94	7.968
528.28	7.943
528.62	7.906
528.96	7.874
529.30	7.836
529.64	7.781
529.97	7.712
530.31	7.671
530.65	7.632
530.99	7.591
531.33	7.544
531.67	7.518
532.01	7.495
532.35	7.485
532.68	7.456
533.02	7.430
533.36	7.404
533.70	7.382
534.04	7.347
534.38	7.314
534.71	7.275
535.05	7.233
535.39	7.186
535.73	7.156
536.07	7.104
536.41	7.075
536.74	7.055
537.08	7.065
537.42	7.069
537.76	7.085
538.10	7.080
538.43	7.085
538.77	7.093
539.11	7.098
539.45	7.100
539.79	7.105
540.12	7.101
540.46	7.108
540.80	7.089
541.14	7.065
541.47	7.032
541.81	7.008
542.15	6.981
542.49	6.939
542.82	6.902
543.16	6.858
543.50	6.809
543.84	6.765
544.17	6.716
544.51	6.676
544.85	6.657
545.18	6.634
545.52	6.608
545.86	6.571
546.20	6.549
546.53	6.513
546.87	6.488
547.21	6.458
547.54	6.439
547.88	6.427
548.22	6.405
548.55	6.379
548.89	6.362
549.23	6.359
549.56	6.345
549.90	6.342
550.24	6.338
550.57	6.346
550.91	6.352
551.25	6.346
551.58	6.321
551.92	6.319
552.26	6.325
552.59	6.316
552.93	6.289
553.27	6.292
553.60	6.279
553.94	6.270
554.27	6.250
554.61	6.256
554.95	6.266
555.28	6.279
555.62	6.278
555.95	6.263
556.29	6.253
556.63	6.257
556.96	6.243
557.30	6.241
557.63	6.247
557.97	6.247
558.31	6.245
558.64	6.249
558.98	6.243
559.31	6.254
559.65	6.259
559.98	6.258
560.32	6.262
560.65	6.288
560.99	6.296
561.33	6.317
561.66	6.325
562.00	6.331
562.33	6.343
562.67	6.346
563.00	6.351
563.34	6.364
563.67	6.372
564.01	6.373
564.34	6.363
564.68	6.395
565.01	6.385
565.35	6.389
565.68	6.387
566.02	6.381
566.35	6.385
566.69	6.383
567.02	6.389
567.36	6.410
567.69	6.431
568.03	6.448
568.36	6.443
568.69	6.432
569.03	6.438
569.36	6.450
569.70	6.445
570.03	6.463
570.37	6.463
570.70	6.469
571.04	6.471
571.37	6.473
571.70	6.486
572.04	6.488
572.37	6.541
572.71	6.540
573.04	6.546
573.37	6.565
573.71	6.573
574.04	6.603
574.38	6.603
574.71	6.604
575.04	6.603
575.38	6.592
575.71	6.595
576.05	6.568
576.38	6.580
576.71	6.557
577.05	6.544
577.38	6.548
577.71	6.536
578.05	6.536
578.38	6.545
578.71	6.553
579.05	6.563
579.38	6.590
579.71	6.580
580.05	6.585
580.38	6.625
580.71	6.644
581.05	6.654
581.38	6.647
581.71	6.666
582.05	6.683
582.38	6.715
582.71	6.753
583.04	6.737
583.38	6.778
583.71	6.804
584.04	6.816
584.38	6.858
584.71	6.869
585.04	6.919
585.37	6.953
585.71	6.958
586.04	6.968
586.37	6.981
586.70	7.043
587.04	7.054
587.37	7.092
587.70	7.109
588.03	7.127
588.37	7.152
588.70	7.161
589.03	7.178
589.36	7.195
589.69	7.177
590.03	7.186
590.36	7.178
590.69	7.213
591.02	7.210
591.35	7.224
591.69	7.218
592.02	7.256
592.35	7.274
592.68	7.313
593.01	7.349
593.35	7.413
593.68	7.456
594.01	7.474
594.34	7.493
594.67	7.526
595.00	7.562
595.34	7.581
595.67	7.582
596.00	7.609
596.33	7.606
596.66	7.629
596.99	7.645
597.32	7.666
597.65	7.696
597.99	7.705
598.32	7.693
598.65	7.721
598.98	7.773
599.31	7.798
599.64	7.824
599.97	7.860
600.30	7.858
600.63	7.875
600.96	7.876
601.30	7.907
601.63	7.927
601.96	7.971
602.29	7.969
602.62	8.002
602.95	8.026
603.28	8.029
603.61	8.038
603.94	8.079
604.27	8.085
604.60	8.095
604.93	8.104
605.26	8.121
605.59	8.119
605.92	8.145
606.25	8.131
606.58	8.153
606.91	8.173
607.24	8.172
607.57	8.172
607.90	8.175
608.23	8.164
608.56	8.152
608.89	8.177
609.22	8.188
609.55	8.188
609.88	8.175
610.21	8.129
610.54	8.094
610.87	8.089
611.20	8.075
611.53	8.088
611.86	8.104
612.19	8.114
612.52	8.067
612.85	8.051
613.18	8.060
613.51	8.047
613.84	8.046
614.17	8.084
614.49	8.084
614.82	8.072
615.15	8.048
615.48	8.050
615.81	8.039
616.14	8.063
616.47	8.078
616.80	8.051
617.13	8.039
617.46	8.075
617.78	8.068
618.11	8.045
618.44	8.077
618.77	8.088
619.10	8.071
619.43	8.067
619.76	8.043
620.09	8.039
620.41	8.050
620.74	8.080
621.07	8.066
621.40	8.038
621.73	8.085
622.06	8.065
622.38	8.094
622.71	8.075
623.04	8.096
623.37	8.122
623.70	8.144
624.02	8.155
624.35	8.156
624.68	8.155
625.01	8.206
625.34	8.190
625.66	8.225
625.99	8.215
626.32	8.239
626.65	8.227
626.98	8.219
627.30	8.206
627.63	8.196
627.96	8.177
628.29	8.153
628.61	8.120
628.94	8.103
629.27	8.035
629.60	8.066
629.92	8.030
630.25	8.023
630.58	7.993
630.91	7.956
631.23	7.950
631.56	7.972
631.89	8.005
632.21	8.007
632.54	7.987
632.87	8.001
633.19	7.945
633.52	7.927
633.85	7.931
634.18	7.907
634.50	7.947
634.83	7.923
635.16	7.906
635.48	7.871
635.81	7.835
636.14	7.819
636.46	7.818
636.79	7.800
637.11	7.838
637.44	7.830
637.77	7.838
638.09	7.786
638.42	7.738
638.75	7.709
639.07	7.671
639.40	7.652
639.73	7.667
640.05	7.684
640.38	7.668
640.70	7.643
641.03	7.604
641.36	7.617
641.68	7.609
642.01	7.627
642.33	7.638
642.66	7.664
642.98	7.704
643.31	7.701
643.64	7.656
643.96	7.665
644.29	7.658
644.61	7.643
644.94	7.624
645.26	7.628
645.59	7.649
645.91	7.629
646.24	7.649
646.56	7.605
646.89	7.579
647.22	7.619
647.54	7.646
647.87	7.645
648.19	7.651
648.52	7.658
648.84	7.663
649.17	7.646
649.49	7.621
649.82	7.560
650.14	7.587
650.47	7.589
650.79	7.540
651.11	7.526
651.44	7.520
651.76	7.492
652.09	7.472
652.41	7.437
652.74	7.430
653.06	7.457
653.39	7.491
653.71	7.474
654.04	7.512
654.36	7.552
654.68	7.528
655.01	7.530
655.33	7.565
655.66	7.546
655.98	7.590
656.30	7.619
656.63	7.619
656.95	7.617
657.28	7.636
657.60	7.589
657.92	7.544
658.25	7.515
658.57	7.474
658.90	7.460
659.22	7.436
659.54	7.409
659.87	7.295
660.19	7.253
660.51	7.239
660.84	7.218
661.16	7.178
661.48	7.111
661.81	7.096
662.13	7.112
662.45	7.027
662.78	7.066
663.10	7.089
663.42	7.193
663.75	7.177
664.07	7.128
664.39	7.059
664.72	7.086
665.04	7.129
665.36	7.154
665.69	7.189
666.01	7.235
666.33	7.231
666.65	7.133
666.98	7.048
667.30	7.041
667.62	6.985
667.94	6.996
668.27	6.977
668.59	6.992
668.91	6.932
669.23	6.870
669.56	6.853
669.88	6.823
670.20	6.790
670.52	6.760
670.85	6.769
671.17	6.799
671.49	6.818
671.81	6.758
672.13	6.685
672.46	6.718
672.78	6.655
673.10	6.590
673.42	6.539
673.74	6.572
674.07	6.605
674.39	6.559
674.71	6.583
675.03	6.548
675.35	6.527
675.67	6.565
676.00	6.539
676.32	6.590
676.64	6.669
676.96	6.693
677.28	6.708
677.60	6.748
677.92	6.762
678.25	6.771
678.57	6.794
678.89	6.843
679.21	6.845
679.53	6.907
679.85	6.904
680.17	6.865
680.49	6.884
680.81	6.892
681.13	6.853
681.46	6.881
681.78	6.902
682.10	6.829
682.42	6.831
682.74	6.845
683.06	6.803
683.38	6.851
683.70	6.928
684.02	6.909
684.34	6.890
684.66	6.948
684.98	6.969
685.30	6.987
685.62	7.021
685.94	7.016
686.26	6.954
686.58	6.947
686.90	6.941
687.22	6.898
687.54	6.918
687.86	6.882
688.18	6.835
688.50	6.754
688.82	6.676
689.14	6.650
689.46	6.632
689.78	6.662
690.10	6.660
690.42	6.601
690.74	6.566
691.06	6.538
691.38	6.533
691.70	6.491
692.02	6.484
692.34	6.515
692.66	6.567
692.98	6.582
693.30	6.628
693.62	6.596
693.94	6.606
694.26	6.641
694.57	6.599
694.89	6.675
695.21	6.754
695.53	6.824
695.85	6.858
696.17	6.857
696.49	6.832
696.81	6.843
697.13	6.828
697.44	6.847
697.76	6.851
698.08	6.898
698.40	6.852
698.72	6.787
699.04	6.715
699.36	6.621
699.67	6.575
699.99	6.532
700.31	6.452
700.63	6.389
700.95	6.296
701.27	6.192
701.58	6.107
701.90	6.014
702.22	5.957
702.54	5.903
702.86	5.860
703.17	5.753
703.49	5.714
703.81	5.669
704.13	5.719
704.45	5.685
704.76	5.644
705.08	5.640
705.40	5.581
705.72	5.615
706.03	5.622
706.35	5.685
706.67	5.697
706.99	5.734
707.30	5.662
707.62	5.577
707.94	5.613
708.26	5.608
708.57	5.559
708.89	5.661
709.21	5.644
709.53	5.618
709.84	5.557
710.16	5.586
710.48	5.634
710.79	5.680
711.11	5.775
711.43	5.724
711.74	5.696
712.06	5.704
712.38	5.651
712.69	5.649
713.01	5.783
713.33	5.791
713.64	5.868
713.96	5.880
714.28	6.057
714.59	6.046
714.91	6.189
715.23	6.303
715.54	6.391
715.86	6.514
716.17	6.646
716.49	6.533
716.81	6.574
717.12	6.436
717.44	6.437
717.76	6.284
718.07	6.231
718.39	6.124
718.70	6.091
719.02	5.998
719.33	5.862
719.65	5.602
719.97	5.673
720.28	5.629
720.60	5.741
720.91	5.722
721.23	5.709
721.54	5.773
721.86	5.783
722.17	5.758
722.49	5.753
722.81	5.705
723.12	5.740
723.44	5.656
723.75	5.759
724.07	5.767
724.38	5.714
724.70	5.787
725.01	5.815
725.33	5.812
725.64	5.928
725.96	5.923
726.27	6.010
726.59	6.134
726.90	6.124
727.22	6.011
727.53	5.975
727.84	5.996
728.16	5.799
728.47	5.740
728.79	5.764
729.10	5.668
729.42	5.740
729.73	5.695
730.05	5.632
730.36	5.639
730.67	5.655
730.99	5.614
731.30	5.496
731.62	5.497
731.93	5.410
732.24	5.263
732.56	5.117
732.87	4.930
733.19	4.887
733.50	4.837
733.81	4.720
734.13	4.621
734.44	4.492
734.76	4.492
735.07	4.484
735.38	4.452
735.70	4.501
736.01	4.518
736.32	4.579
736.64	4.589
736.95	4.494
737.26	4.479
737.58	4.367
737.89	4.461
738.20	4.412
738.52	4.325
738.83	4.246
739.14	4.150
739.45	4.169
739.77	4.076
740.08	3.964
740.39	3.818
740.71	3.796
741.02	3.852
741.33	3.893
741.64	3.783
741.96	3.714
742.27	3.643
742.58	3.552
742.90	3.557
743.21	3.513
743.52	3.560
743.83	3.801
744.14	3.732
744.46	3.655
744.77	3.400
745.08	3.386
745.39	3.277
745.71	3.257
746.02	3.210
746.33	3.107
746.64	3.173
746.95	3.026
747.27	2.809
747.58	2.806
747.89	2.851
748.20	2.830
748.51	3.086
748.82	3.347
749.14	3.291
749.45	3.375
749.76	3.266
750.07	3.136
750.38	3.298
750.69	3.458
751.01	3.474
751.32	3.483
751.63	3.503
751.94	3.293
752.25	3.236
752.56	3.299
752.87	3.406
753.18	3.479
753.49	3.588
753.81	3.500
754.12	3.502
754.43	3.701
754.74	3.790
755.05	3.955
755.36	4.241
755.67	4.362
755.98	4.746
756.29	4.816
756.60	4.858
756.91	5.178
757.22	5.562
757.53	5.769
757.84	5.832
758.15	6.052
758.46	6.307
758.77	6.398
759.09	6.412
759.40	6.434
759.71	6.604
760.02	6.699
760.33	6.709
760.64	6.709
760.95	6.737
761.26	6.737
761.57	6.828
761.88	6.669
762.18	6.652
762.49	6.815
762.80	6.770
763.11	6.616
763.42	6.604
763.73	6.515
764.04	6.198
764.35	5.993
764.66	5.810
764.97	5.480
765.28	5.389
765.59	5.023
765.90	4.635
766.21	4.455
766.52	4.242
766.83	4.066
767.14	3.811
767.44	3.912
767.75	3.739
768.06	3.595
768.37	3.318
768.68	3.274
768.99	3.243
769.30	3.074
769.61	2.594
769.91	2.499
770.22	2.406
770.53	2.320
770.84	2.381
771.15	2.478
771.46	2.537
771.77	2.522
772.07	2.476
772.38	2.311
772.69	2.283
773.00	2.282
773.31	2.336
773.61	2.225
773.92	1.979
774.23	1.632
774.54	1.548
774.85	1.366
775.15	1.405
775.46	1.034
775.77	1.166
776.08	1.040
776.39	1.124
776.69	1.222
777.00	1.402
777.31	1.558
777.62	1.718
777.92	1.675
778.23	1.788
778.54	1.744
778.85	2.059
779.15	2.016
779.46	2.258
779.77	2.411
780.07	2.311
780.38	2.002
780.69	2.049
781.00	1.651
781.30	1.680
781.61	1.567
781.92	1.652
782.22	1.302
782.53	1.247
782.84	1.226
783.14	1.146
783.45	0.917
783.76	1.287
784.06	1.262
784.37	1.680
784.68	1.610
784.98	2.188
785.29	2.454
785.60	3.056
785.90	3.257
786.21	3.191
786.51	3.427
786.82	3.630
787.13	3.818
787.43	4.146
787.74	4.075
788.04	4.066
788.35	3.748
788.66	3.594
788.96	3.255
789.27	3.481
789.57	3.585
789.88	3.722
790.19	3.736
790.49	3.571
790.80	3.454
791.10	3.646
791.41	3.602
791.71	3.825
792.02	3.976
792.32	4.038
792.63	3.897
792.93	4.055
793.24	3.562
793.54	3.627
793.85	3.808
794.15	3.686
794.46	3.450
794.76	3.894
795.07	3.705
795.37	3.926
795.68	3.877
795.98	3.928
796.29	3.950
796.59	4.376
796.90	4.083
797.20	3.704
797.51	3.934
797.81	4.074
798.12	4.017
798.42	4.111
798.72	3.817
799.03	4.130
799.33	3.853
799.64	3.566
799.94	3.386
800.25	3.842
800.55	4.125
800.85	3.730
801.16	3.856
801.46	3.682
801.77	3.531
802.07	3.534
802.37	3.233
802.68	3.502
802.98	3.569
803.28	3.651
803.59	3.433
803.89	3.416
804.20	3.660
804.50	3.465
804.80	3.014
805.11	3.105
805.41	3.098
805.71	3.275
806.02	3.244
806.32	3.585
806.62	3.500
806.93	3.890
807.23	4.015
807.53	3.962
807.83	4.349
808.14	4.987
808.44	4.982
808.74	5.414
809.05	5.631
809.35	6.013
809.65	5.762
809.95	6.045
810.26	5.604
810.56	5.620
810.86	5.670
811.16	5.072
811.47	4.971
811.77	5.443
812.07	5.035
812.37	4.871
812.68	4.458
812.98	4.598
813.28	4.062
813.58	4.087
813.88	3.815
814.19	3.766
814.49	3.732
814.79	3.809
815.09	3.410
815.39	3.452
815.70	3.827
816.00	3.883
816.30	3.972
816.60	4.376
816.90	4.913
817.20	5.164
817.50	5.471
817.81	6.040
818.11	6.132
818.41	6.557
818.71	6.669
819.01	6.779
819.31	6.902
819.61	7.136
819.92	7.253
820.22	7.383
820.52	7.575
820.82	7.688
821.12	7.704
821.42	7.819
821.72	7.858
822.02	7.933
822.32	7.938
822.62	8.015
822.92	8.007
823.22	8.050
823.52	7.994
823.83	7.858
824.13	7.855
824.43	7.906
824.73	7.791
825.03	7.692
825.33	7.685
825.63	7.800
825.93	7.814
826.23	7.692
826.53	7.577
826.83	7.689
827.13	7.835
827.43	7.669
827.73	7.758
828.03	8.017
828.33	7.879
828.63	7.976
828.93	7.765
829.23	7.781
829.53	7.722
829.83	7.897
830.13	7.473
830.42	7.145
830.72	7.393
831.02	7.161
831.32	6.877
831.62	7.147
831.92	6.968
832.22	6.917
832.52	6.847
832.82	7.199
833.12	7.125
833.42	7.313
833.72	7.539
834.01	7.333
834.31	7.332
834.61	7.418
834.91	7.589
835.21	7.613
835.51	7.695
835.81	7.706
836.11	7.530
836.40	7.390
836.70	7.200
837.00	7.013
837.30	7.080
837.60	7.078
837.90	6.805
838.19	6.408
838.49	6.474
838.79	6.164
839.09	5.945
839.39	5.876
839.68	5.753
839.98	5.892
840.28	5.253
840.58	4.976
840.88	4.172
841.17	3.970
841.47	3.854
841.77	4.029
842.07	4.481
842.36	4.543
842.66	3.619
842.96	4.650
843.26	3.133
843.55	3.149
843.85	2.583
844.15	2.042
844.45	2.160
844.74	2.530
845.04	1.964
845.34	2.070
845.63	0.876
845.93	1.712
846.23	0.459
846.53	1.168
846.82	1.403
847.12	1.819
847.42	2.779
847.71	2.553
848.01	1.554
848.31	1.356
848.60	-1.193
848.90	-1.310
849.19	-2.692
849.49	-2.753
849.79	-2.261
850.08	-1.257
850.38	-1.352
850.68	-0.647
850.97	-0.392
851.27	-0.851
851.56	-2.085
851.86	-1.158
852.16	0.786
852.45	2.151
852.75	1.550
853.04	1.577
853.34	0.319
853.64	0.343
853.93	0.473
854.23	-0.495
854.52	0.643
854.82	1.409
855.11	0.615
855.41	-0.701
855.70	-1.014
856.00	-0.974
856.30	-0.638
856.59	0.265
856.89	1.197
857.18	2.328
857.48	3.468
857.77	2.047
858.07	2.821
858.36	3.930
858.66	3.431
858.95	4.140
859.25	3.646
859.54	2.178
859.84	1.118
860.13	0.677
860.42	-1.785
860.72	-0.575
861.01	0.481
861.31	0.123
861.60	0.099
861.90	0.360
862.19	-0.783
862.49	-0.677
862.78	1.495
863.07	1.202
863.37	-1.063
863.66	-0.574
863.96	-1.069
864.25	-1.113
864.54	-1.176
864.84	-0.771
865.13	-1.156
865.43	-1.438
865.72	4.034
866.01	4.065
866.31	0.758
866.60	-8.447
866.89	-2.969
>>>>>End Spectral Data<<<<<
