OOIBase32 Version 2.0.0.6 Data File
++++++++++++++++++++++++++++++++++++
Date: 01-22-2012, 21:18:06
User: Valued Ocean Optics Customer
Spectrometer Serial Number: USB2E2917
Spectrometer Channel: Master
Integration Time (msec): 4
Spectra Averaged: 10
Boxcar Smoothing: 5
Correct for Electrical Dark: Enabled
Time Normalized: Disabled
Dual-beam Reference: Disabled
Reference Channel: Master
Temperature: Not acquired
Spectrometer Type: S2000
ADC Type: USB2000
Number of Pixels in File: 2048
Graph Title: 
>>>>>Begin Spectral Data<<<<<
180.30	0.000
180.67	0.000
181.03	-164.846
181.40	105.131
181.77	-193.968
182.14	132.093
182.51	723.656
182.88	82.804
183.25	163.245
183.62	-22.276
183.99	35.702
184.36	337.286
184.73	-95.648
185.10	549.751
185.46	150.597
185.83	37.608
186.20	-56.889
186.57	289.710
186.94	32.713
187.31	-65.853
187.68	-595.903
188.05	-71.984
188.42	202.863
188.78	19.687
189.15	23.658
189.52	10.346
189.89	6.570
190.26	6.389
190.63	-7.509
191.00	7.442
191.37	0.491
191.73	18.106
192.10	-7.121
192.47	-23.196
192.84	-230.763
193.21	-371.730
193.58	-280.366
193.94	-248.084
194.31	-50.945
194.68	-22.421
195.05	-43.900
195.42	-86.998
195.79	-95.127
196.15	-58.157
196.52	-12.317
196.89	8.598
197.26	7.712
197.63	-17.910
198.00	-38.627
198.36	-172.701
198.73	-274.952
199.10	-135.607
199.47	-36.418
199.84	-6.952
200.20	-49.682
200.57	-46.747
200.94	-19.535
201.31	-4.704
201.68	3.017
202.04	13.875
202.41	11.821
202.78	19.870
203.15	23.692
203.51	22.054
203.88	23.003
204.25	30.982
204.62	27.393
204.98	28.127
205.35	10.449
205.72	0.154
206.09	-50.514
206.46	-24.273
206.82	-86.664
207.19	-108.343
207.56	-128.466
207.92	-165.379
208.29	-121.557
208.66	-98.541
209.03	-114.376
209.39	-65.883
209.76	-47.598
210.13	-16.144
210.50	-23.787
210.86	-23.051
211.23	-45.819
211.60	-45.346
211.96	-45.686
212.33	-150.155
212.70	5475.243
213.07	494.420
213.43	465.082
213.80	1462.047
214.17	285.217
214.53	1157.836
214.90	-91.316
215.27	-21.147
215.63	-44.957
216.00	-8.006
216.37	17.881
216.74	21.436
217.10	20.543
217.47	25.293
217.84	19.534
218.20	15.379
218.57	4.408
218.94	-14.021
219.30	-2.639
219.67	13.112
220.04	14.508
220.40	21.685
220.77	17.483
221.13	18.835
221.50	21.978
221.87	29.856
222.23	39.995
222.60	37.714
222.97	34.278
223.33	21.325
223.70	4.147
224.07	1.243
224.43	-3.433
224.80	3.670
225.16	0.775
225.53	-0.630
225.90	-2.420
226.26	-3.607
226.63	-4.548
226.99	-3.353
227.36	-0.860
227.73	2.236
228.09	1.801
228.46	3.356
228.82	0.721
229.19	3.083
229.56	0.997
229.92	2.804
230.29	2.940
230.65	3.627
231.02	2.508
231.38	2.736
231.75	1.338
232.12	2.052
232.48	-0.597
232.85	0.327
233.21	-1.550
233.58	1.641
233.94	0.031
234.31	0.820
234.68	0.929
235.04	2.421
235.41	0.794
235.77	0.677
236.14	1.046
236.50	4.462
236.87	4.538
237.23	5.424
237.60	3.940
237.96	3.504
238.33	1.458
238.69	1.605
239.06	1.032
239.42	1.938
239.79	2.264
240.15	2.355
240.52	1.743
240.88	1.255
241.25	0.254
241.61	0.170
241.98	0.229
242.34	0.776
242.71	0.567
243.07	0.839
243.44	1.074
243.80	1.360
244.17	1.072
244.53	0.985
244.90	1.477
245.26	2.004
245.63	2.296
245.99	2.586
246.36	2.636
246.72	2.706
247.09	2.450
247.45	2.357
247.81	2.227
248.18	2.574
248.54	2.649
248.91	2.083
249.27	1.261
249.64	1.573
250.00	1.473
250.36	1.444
250.73	1.025
251.09	0.838
251.46	0.649
251.82	0.945
252.19	0.653
252.55	0.873
252.91	1.564
253.28	1.952
253.64	1.382
254.01	1.362
254.37	1.832
254.73	2.431
255.10	2.639
255.46	2.783
255.83	2.382
256.19	2.661
256.55	2.596
256.92	2.592
257.28	2.603
257.65	2.584
258.01	2.378
258.37	2.113
258.74	2.102
259.10	2.331
259.46	2.252
259.83	2.387
260.19	2.226
260.55	1.983
260.92	1.612
261.28	1.608
261.64	1.516
262.01	1.493
262.37	1.465
262.73	1.306
263.10	0.591
263.46	0.555
263.82	0.361
264.19	0.237
264.55	0.888
264.91	1.197
265.28	1.494
265.64	1.632
266.00	1.799
266.37	2.213
266.73	2.315
267.09	2.446
267.46	2.252
267.82	2.386
268.18	2.325
268.54	1.797
268.91	2.022
269.27	1.917
269.63	1.739
270.00	1.679
270.36	1.698
270.72	1.539
271.08	1.536
271.45	1.728
271.81	1.863
272.17	2.197
272.53	2.430
272.90	2.190
273.26	1.833
273.62	2.037
273.98	2.310
274.35	2.018
274.71	2.134
275.07	2.330
275.43	2.325
275.80	2.000
276.16	1.678
276.52	1.639
276.88	1.636
277.25	1.766
277.61	1.530
277.97	1.323
278.33	1.406
278.69	1.621
279.06	1.502
279.42	1.578
279.78	1.629
280.14	1.839
280.50	1.792
280.87	1.926
281.23	1.963
281.59	2.140
281.95	2.120
282.31	2.028
282.68	2.086
283.04	2.164
283.40	1.912
283.76	1.938
284.12	1.733
284.48	1.799
284.85	1.815
285.21	1.955
285.57	1.957
285.93	2.090
286.29	2.113
286.65	1.886
287.02	1.974
287.38	2.148
287.74	2.163
288.10	2.264
288.46	2.171
288.82	2.067
289.18	1.754
289.54	1.731
289.91	1.520
290.27	1.547
290.63	1.609
290.99	1.417
291.35	1.373
291.71	1.232
292.07	1.141
292.43	1.200
292.79	1.340
293.16	1.668
293.52	1.602
293.88	1.783
294.24	1.765
294.60	1.934
294.96	2.165
295.32	2.214
295.68	2.317
296.04	2.373
296.40	2.360
296.76	2.280
297.12	2.238
297.49	2.367
297.85	2.502
298.21	2.617
298.57	2.419
298.93	2.381
299.29	2.471
299.65	2.661
300.01	2.701
300.37	2.891
300.73	2.984
301.09	3.098
301.45	3.077
301.81	3.113
302.17	3.092
302.53	3.243
302.89	3.182
303.25	3.108
303.61	2.849
303.97	2.913
304.33	2.918
304.69	3.130
305.05	3.070
305.41	3.039
305.77	2.758
306.13	2.792
306.49	2.798
306.85	2.945
307.21	2.967
307.57	3.038
307.93	3.057
308.29	3.150
308.65	2.873
309.01	2.856
309.37	2.812
309.73	2.981
310.09	2.949
310.45	2.902
310.81	2.827
311.17	2.736
311.53	2.780
311.89	2.672
312.25	2.494
312.61	2.554
312.96	2.633
313.32	2.643
313.68	2.468
314.04	2.507
314.40	2.603
314.76	2.605
315.12	2.773
315.48	2.764
315.84	2.616
316.20	2.513
316.56	2.573
316.92	2.465
317.27	2.593
317.63	2.605
317.99	2.548
318.35	2.466
318.71	2.456
319.07	2.369
319.43	2.306
319.79	2.440
320.15	2.592
320.50	2.638
320.86	2.628
321.22	2.675
321.58	2.561
321.94	2.654
322.30	2.781
322.66	2.832
323.01	2.840
323.37	3.032
323.73	3.072
324.09	3.149
324.45	3.100
324.81	3.225
325.17	3.206
325.52	3.388
325.88	3.265
326.24	3.184
326.60	3.195
326.96	3.308
327.31	3.022
327.67	3.078
328.03	2.940
328.39	2.926
328.75	2.857
329.11	2.813
329.46	2.786
329.82	2.872
330.18	2.950
330.54	2.885
330.90	2.834
331.25	2.971
331.61	2.957
331.97	3.002
332.33	3.099
332.68	3.131
333.04	3.162
333.40	3.207
333.76	3.221
334.11	3.114
334.47	3.162
334.83	3.079
335.19	3.096
335.54	3.034
335.90	2.943
336.26	2.843
336.62	2.933
336.97	2.876
337.33	2.922
337.69	2.861
338.05	3.085
338.40	3.068
338.76	3.179
339.12	3.136
339.48	3.143
339.83	3.186
340.19	3.206
340.55	3.173
340.90	3.296
341.26	3.237
341.62	3.283
341.97	3.141
342.33	3.212
342.69	3.281
343.04	3.367
343.40	3.416
343.76	3.438
344.12	3.528
344.47	3.493
344.83	3.445
345.19	3.483
345.54	3.486
345.90	3.470
346.26	3.429
346.61	3.270
346.97	3.260
347.32	3.203
347.68	3.212
348.04	3.140
348.39	3.156
348.75	3.114
349.11	3.057
349.46	3.052
349.82	3.014
350.18	3.040
350.53	3.152
350.89	3.076
351.24	3.134
351.60	3.153
351.96	3.155
352.31	3.113
352.67	3.157
353.02	3.200
353.38	3.199
353.74	3.263
354.09	3.286
354.45	3.204
354.80	3.241
355.16	3.224
355.52	3.183
355.87	3.179
356.23	3.218
356.58	3.172
356.94	3.113
357.29	3.097
357.65	3.093
358.00	3.065
358.36	3.081
358.72	3.025
359.07	2.999
359.43	3.015
359.78	3.044
360.14	3.038
360.49	3.031
360.85	3.067
361.20	3.112
361.56	3.118
361.91	3.122
362.27	3.147
362.62	3.266
362.98	3.332
363.33	3.377
363.69	3.401
364.04	3.402
364.40	3.496
364.75	3.499
365.11	3.483
365.46	3.456
365.82	3.380
366.17	3.318
366.53	3.249
366.88	3.214
367.24	3.200
367.59	3.187
367.95	3.213
368.30	3.156
368.66	3.138
369.01	3.091
369.37	3.062
369.72	3.112
370.08	3.130
370.43	3.126
370.78	3.154
371.14	3.096
371.49	3.065
371.85	3.081
372.20	3.095
372.56	3.172
372.91	3.214
373.26	3.315
373.62	3.350
373.97	3.423
374.33	3.437
374.68	3.436
375.03	3.505
375.39	3.524
375.74	3.492
376.10	3.543
376.45	3.534
376.80	3.574
377.16	3.502
377.51	3.500
377.87	3.543
378.22	3.590
378.57	3.598
378.93	3.619
379.28	3.627
379.63	3.661
379.99	3.639
380.34	3.602
380.70	3.612
381.05	3.684
381.40	3.684
381.76	3.657
382.11	3.642
382.46	3.647
382.82	3.638
383.17	3.617
383.52	3.610
383.88	3.610
384.23	3.647
384.58	3.647
384.94	3.660
385.29	3.700
385.64	3.687
385.99	3.694
386.35	3.726
386.70	3.724
387.05	3.773
387.41	3.773
387.76	3.738
388.11	3.726
388.47	3.716
388.82	3.717
389.17	3.733
389.52	3.748
389.88	3.780
390.23	3.790
390.58	3.804
390.93	3.847
391.29	3.896
391.64	3.958
391.99	4.027
392.34	4.089
392.70	4.090
393.05	4.073
393.40	4.083
393.75	4.094
394.11	4.120
394.46	4.130
394.81	4.135
395.16	4.155
395.52	4.169
395.87	4.133
396.22	4.118
396.57	4.132
396.92	4.128
397.28	4.138
397.63	4.123
397.98	4.133
398.33	4.166
398.68	4.193
399.04	4.154
399.39	4.158
399.74	4.166
400.09	4.167
400.44	4.192
400.80	4.220
401.15	4.274
401.50	4.336
401.85	4.328
402.20	4.342
402.55	4.320
402.90	4.343
403.26	4.361
403.61	4.381
403.96	4.412
404.31	4.465
404.66	4.488
405.01	4.499
405.36	4.515
405.72	4.544
406.07	4.557
406.42	4.610
406.77	4.659
407.12	4.674
407.47	4.701
407.82	4.692
408.17	4.656
408.53	4.694
408.88	4.712
409.23	4.716
409.58	4.754
409.93	4.796
410.28	4.808
410.63	4.816
410.98	4.824
411.33	4.839
411.68	4.888
412.03	4.881
412.38	4.850
412.73	4.833
413.09	4.806
413.44	4.783
413.79	4.762
414.14	4.770
414.49	4.781
414.84	4.808
415.19	4.821
415.54	4.825
415.89	4.834
416.24	4.868
416.59	4.884
416.94	4.900
417.29	4.901
417.64	4.921
417.99	4.916
418.34	4.914
418.69	4.908
419.04	4.900
419.39	4.905
419.74	4.913
420.09	4.905
420.44	4.907
420.79	4.922
421.14	4.929
421.49	4.942
421.84	4.951
422.19	4.966
422.54	4.985
422.89	4.994
423.24	5.000
423.59	5.039
423.94	5.069
424.29	5.072
424.64	5.102
424.99	5.170
425.34	5.201
425.68	5.228
426.03	5.268
426.38	5.294
426.73	5.341
427.08	5.377
427.43	5.382
427.78	5.398
428.13	5.445
428.48	5.452
428.83	5.427
429.18	5.409
429.53	5.448
429.87	5.454
430.22	5.464
430.57	5.482
430.92	5.499
431.27	5.507
431.62	5.505
431.97	5.495
432.32	5.500
432.67	5.506
433.01	5.532
433.36	5.522
433.71	5.514
434.06	5.536
434.41	5.539
434.76	5.540
435.11	5.576
435.45	5.607
435.80	5.619
436.15	5.625
436.50	5.635
436.85	5.649
437.20	5.649
437.54	5.656
437.89	5.659
438.24	5.659
438.59	5.669
438.94	5.645
439.29	5.647
439.63	5.668
439.98	5.685
440.33	5.702
440.68	5.714
441.03	5.732
441.37	5.747
441.72	5.743
442.07	5.765
442.42	5.769
442.76	5.799
443.11	5.807
443.46	5.811
443.81	5.820
444.16	5.829
444.50	5.824
444.85	5.844
445.20	5.875
445.55	5.899
445.89	5.904
446.24	5.915
446.59	5.924
446.94	5.950
447.28	5.969
447.63	5.986
447.98	5.987
448.32	6.000
448.67	6.003
449.02	5.992
449.37	6.017
449.71	6.044
450.06	6.089
450.41	6.101
450.75	6.091
451.10	6.118
451.45	6.134
451.79	6.185
452.14	6.228
452.49	6.242
452.84	6.265
453.18	6.263
453.53	6.274
453.88	6.277
454.22	6.284
454.57	6.322
454.92	6.315
455.26	6.315
455.61	6.303
455.95	6.279
456.30	6.277
456.65	6.278
456.99	6.267
457.34	6.281
457.69	6.293
458.03	6.305
458.38	6.316
458.73	6.343
459.07	6.357
459.42	6.385
459.76	6.424
460.11	6.459
460.46	6.505
460.80	6.544
461.15	6.556
461.49	6.563
461.84	6.591
462.19	6.611
462.53	6.607
462.88	6.621
463.22	6.617
463.57	6.614
463.91	6.630
464.26	6.636
464.61	6.654
464.95	6.679
465.30	6.710
465.64	6.725
465.99	6.725
466.33	6.759
466.68	6.794
467.02	6.814
467.37	6.840
467.71	6.844
468.06	6.835
468.41	6.830
468.75	6.847
469.10	6.863
469.44	6.878
469.79	6.890
470.13	6.883
470.48	6.886
470.82	6.904
471.17	6.915
471.51	6.909
471.86	6.933
472.20	6.955
472.55	6.969
472.89	6.971
473.23	6.960
473.58	6.958
473.92	6.953
474.27	6.955
474.61	6.954
474.96	6.955
475.30	6.996
475.65	6.989
475.99	7.019
476.34	7.007
476.68	7.000
477.02	7.023
477.37	7.045
477.71	7.072
478.06	7.076
478.40	7.086
478.75	7.114
479.09	7.131
479.43	7.173
479.78	7.207
480.12	7.285
480.47	7.356
480.81	7.427
481.15	7.503
481.50	7.589
481.84	7.685
482.19	7.793
482.53	7.864
482.87	7.895
483.22	7.871
483.56	7.801
483.90	7.695
484.25	7.632
484.59	7.590
484.94	7.537
485.28	7.472
485.62	7.396
485.97	7.288
486.31	7.218
486.65	7.195
487.00	7.230
487.34	7.309
487.68	7.417
488.03	7.476
488.37	7.492
488.71	7.500
489.06	7.507
489.40	7.515
489.74	7.540
490.09	7.551
490.43	7.558
490.77	7.555
491.11	7.575
491.46	7.591
491.80	7.592
492.14	7.606
492.49	7.618
492.83	7.621
493.17	7.627
493.51	7.614
493.86	7.631
494.20	7.630
494.54	7.641
494.88	7.639
495.23	7.627
495.57	7.636
495.91	7.651
496.25	7.673
496.60	7.696
496.94	7.713
497.28	7.741
497.62	7.749
497.97	7.773
498.31	7.815
498.65	7.847
498.99	7.888
499.33	7.929
499.68	7.938
500.02	7.947
500.36	7.969
500.70	7.994
501.04	7.996
501.39	8.025
501.73	8.043
502.07	8.045
502.41	8.063
502.75	8.076
503.09	8.092
503.44	8.120
503.78	8.137
504.12	8.154
504.46	8.153
504.80	8.193
505.14	8.189
505.49	8.203
505.83	8.219
506.17	8.245
506.51	8.263
506.85	8.266
507.19	8.278
507.53	8.310
507.87	8.327
508.22	8.361
508.56	8.382
508.90	8.415
509.24	8.455
509.58	8.488
509.92	8.487
510.26	8.491
510.60	8.518
510.94	8.520
511.28	8.547
511.63	8.573
511.97	8.581
512.31	8.580
512.65	8.607
512.99	8.626
513.33	8.642
513.67	8.662
514.01	8.707
514.35	8.727
514.69	8.771
515.03	8.787
515.37	8.799
515.71	8.830
516.05	8.851
516.39	8.852
516.73	8.859
517.07	8.869
517.41	8.901
517.75	8.919
518.09	8.933
518.43	8.949
518.77	8.981
519.11	8.989
519.45	9.002
519.79	9.037
520.13	9.078
520.47	9.115
520.81	9.139
521.15	9.164
521.49	9.172
521.83	9.200
522.17	9.206
522.51	9.197
522.85	9.231
523.19	9.262
523.53	9.296
523.87	9.353
524.21	9.375
524.55	9.436
524.89	9.477
525.23	9.527
525.57	9.579
525.91	9.623
526.25	9.670
526.58	9.708
526.92	9.742
527.26	9.778
527.60	9.792
527.94	9.820
528.28	9.817
528.62	9.826
528.96	9.832
529.30	9.826
529.64	9.829
529.97	9.823
530.31	9.823
530.65	9.819
530.99	9.816
531.33	9.809
531.67	9.824
532.01	9.846
532.35	9.871
532.68	9.887
533.02	9.907
533.36	9.933
533.70	9.958
534.04	9.984
534.38	10.002
534.71	10.017
535.05	10.036
535.39	10.027
535.73	10.052
536.07	10.050
536.41	10.065
536.74	10.086
537.08	10.115
537.42	10.160
537.76	10.165
538.10	10.210
538.43	10.232
538.77	10.271
539.11	10.322
539.45	10.345
539.79	10.373
540.12	10.402
540.46	10.419
540.80	10.427
541.14	10.426
541.47	10.453
541.81	10.457
542.15	10.476
542.49	10.492
542.82	10.503
543.16	10.504
543.50	10.542
543.84	10.555
544.17	10.572
544.51	10.602
544.85	10.618
545.18	10.623
545.52	10.655
545.86	10.680
546.20	10.707
546.53	10.720
546.87	10.762
547.21	10.766
547.54	10.798
547.88	10.846
548.22	10.858
548.55	10.886
548.89	10.910
549.23	10.921
549.56	10.944
549.90	10.948
550.24	10.980
550.57	10.996
550.91	11.027
551.25	11.038
551.58	11.057
551.92	11.065
552.26	11.125
552.59	11.158
552.93	11.195
553.27	11.208
553.60	11.223
553.94	11.248
554.27	11.279
554.61	11.295
554.95	11.354
555.28	11.362
555.62	11.401
555.95	11.405
556.29	11.460
556.63	11.496
556.96	11.529
557.30	11.575
557.63	11.602
557.97	11.622
558.31	11.643
558.64	11.644
558.98	11.679
559.31	11.694
559.65	11.684
559.98	11.697
560.32	11.711
560.65	11.719
560.99	11.743
561.33	11.738
561.66	11.753
562.00	11.756
562.33	11.765
562.67	11.772
563.00	11.799
563.34	11.836
563.67	11.836
564.01	11.826
564.34	11.838
564.68	11.834
565.01	11.866
565.35	11.888
565.68	11.914
566.02	11.946
566.35	11.969
566.69	11.975
567.02	11.977
567.36	12.020
567.69	12.033
568.03	12.057
568.36	12.094
568.69	12.110
569.03	12.150
569.36	12.151
569.70	12.161
570.03	12.184
570.37	12.215
570.70	12.252
571.04	12.248
571.37	12.293
571.70	12.315
572.04	12.313
572.37	12.342
572.71	12.338
573.04	12.361
573.37	12.386
573.71	12.413
574.04	12.460
574.38	12.489
574.71	12.534
575.04	12.561
575.38	12.616
575.71	12.679
576.05	12.702
576.38	12.776
576.71	12.824
577.05	12.877
577.38	12.912
577.71	12.926
578.05	12.929
578.38	12.939
578.71	12.976
579.05	12.979
579.38	12.973
579.71	12.990
580.05	12.972
580.38	13.012
580.71	12.994
581.05	13.014
581.38	13.042
581.71	13.069
582.05	13.087
582.38	13.040
582.71	13.033
583.04	13.095
583.38	13.117
583.71	13.129
584.04	13.132
584.38	13.182
584.71	13.177
585.04	13.175
585.37	13.186
585.71	13.203
586.04	13.264
586.37	13.279
586.70	13.262
587.04	13.285
587.37	13.306
587.70	13.285
588.03	13.240
588.37	13.236
588.70	13.244
589.03	13.263
589.36	13.265
589.69	13.261
590.03	13.267
590.36	13.268
590.69	13.252
591.02	13.240
591.35	13.285
591.69	13.310
592.02	13.326
592.35	13.316
592.68	13.300
593.01	13.298
593.35	13.304
593.68	13.297
594.01	13.295
594.34	13.302
594.67	13.316
595.00	13.264
595.34	13.279
595.67	13.277
596.00	13.283
596.33	13.288
596.66	13.288
596.99	13.269
597.32	13.316
597.65	13.313
597.99	13.308
598.32	13.269
598.65	13.292
598.98	13.253
599.31	13.244
599.64	13.220
599.97	13.236
600.30	13.246
600.63	13.243
600.96	13.243
601.30	13.237
601.63	13.249
601.96	13.287
602.29	13.304
602.62	13.319
602.95	13.323
603.28	13.345
603.61	13.344
603.94	13.341
604.27	13.385
604.60	13.381
604.93	13.399
605.26	13.398
605.59	13.396
605.92	13.403
606.25	13.447
606.58	13.476
606.91	13.463
607.24	13.456
607.57	13.467
607.90	13.438
608.23	13.440
608.56	13.457
608.89	13.474
609.22	13.460
609.55	13.478
609.88	13.494
610.21	13.491
610.54	13.501
610.87	13.526
611.20	13.508
611.53	13.506
611.86	13.522
612.19	13.504
612.52	13.476
612.85	13.537
613.18	13.501
613.51	13.450
613.84	13.433
614.17	13.489
614.49	13.477
614.82	13.543
615.15	13.605
615.48	13.608
615.81	13.632
616.14	13.670
616.47	13.646
616.80	13.699
617.13	13.724
617.46	13.761
617.78	13.710
618.11	13.729
618.44	13.706
618.77	13.659
619.10	13.629
619.43	13.627
619.76	13.604
620.09	13.599
620.41	13.567
620.74	13.601
621.07	13.617
621.40	13.708
621.73	13.731
622.06	13.786
622.38	13.877
622.71	13.893
623.04	13.923
623.37	13.995
623.70	14.028
624.02	14.070
624.35	14.060
624.68	14.072
625.01	14.069
625.34	14.050
625.66	14.048
625.99	14.020
626.32	14.047
626.65	14.078
626.98	14.080
627.30	14.102
627.63	14.095
627.96	14.109
628.29	14.105
628.61	14.079
628.94	14.136
629.27	14.129
629.60	14.115
629.92	14.172
630.25	14.108
630.58	14.069
630.91	14.068
631.23	14.056
631.56	14.061
631.89	14.064
632.21	14.104
632.54	14.107
632.87	14.126
633.19	14.180
633.52	14.123
633.85	14.156
634.18	14.162
634.50	14.149
634.83	14.198
635.16	14.194
635.48	14.249
635.81	14.223
636.14	14.216
636.46	14.231
636.79	14.230
637.11	14.298
637.44	14.334
637.77	14.392
638.09	14.386
638.42	14.352
638.75	14.323
639.07	14.301
639.40	14.337
639.73	14.282
640.05	14.235
640.38	14.217
640.70	14.157
641.03	14.144
641.36	14.107
641.68	14.143
642.01	14.210
642.33	14.259
642.66	14.237
642.98	14.264
643.31	14.306
643.64	14.353
643.96	14.356
644.29	14.453
644.61	14.449
644.94	14.494
645.26	14.505
645.59	14.514
645.91	14.513
646.24	14.522
646.56	14.514
646.89	14.561
647.22	14.580
647.54	14.600
647.87	14.576
648.19	14.606
648.52	14.615
648.84	14.594
649.17	14.623
649.49	14.616
649.82	14.573
650.14	14.555
650.47	14.549
650.79	14.573
651.11	14.559
651.44	14.515
651.76	14.522
652.09	14.539
652.41	14.598
652.74	14.507
653.06	14.526
653.39	14.571
653.71	14.572
654.04	14.606
654.36	14.583
654.68	14.631
655.01	14.691
655.33	14.712
655.66	14.647
655.98	14.598
656.30	14.654
656.63	14.633
656.95	14.661
657.28	14.690
657.60	14.685
657.92	14.669
658.25	14.634
658.57	14.571
658.90	14.530
659.22	14.603
659.54	14.583
659.87	14.558
660.19	14.586
660.51	14.563
660.84	14.530
661.16	14.489
661.48	14.505
661.81	14.471
662.13	14.482
662.45	14.522
662.78	14.439
663.10	14.460
663.42	14.483
663.75	14.463
664.07	14.536
664.39	14.535
664.72	14.556
665.04	14.582
665.36	14.623
665.69	14.648
666.01	14.611
666.33	14.678
666.65	14.718
666.98	14.669
667.30	14.697
667.62	14.663
667.94	14.636
668.27	14.643
668.59	14.631
668.91	14.689
669.23	14.682
669.56	14.718
669.88	14.625
670.20	14.579
670.52	14.654
670.85	14.670
671.17	14.598
671.49	14.636
671.81	14.613
672.13	14.636
672.46	14.581
672.78	14.593
673.10	14.589
673.42	14.674
673.74	14.725
674.07	14.718
674.39	14.680
674.71	14.731
675.03	14.715
675.35	14.723
675.67	14.702
676.00	14.727
676.32	14.714
676.64	14.781
676.96	14.779
677.28	14.855
677.60	14.863
677.92	14.928
678.25	14.958
678.57	15.047
678.89	15.063
679.21	15.072
679.53	15.077
679.85	15.081
680.17	15.067
680.49	15.037
680.81	15.012
681.13	15.015
681.46	14.960
681.78	14.940
682.10	14.923
682.42	15.000
682.74	15.014
683.06	15.047
683.38	15.150
683.70	15.193
684.02	15.287
684.34	15.278
684.66	15.314
684.98	15.435
685.30	15.496
685.62	15.520
685.94	15.465
686.26	15.467
686.58	15.446
686.90	15.370
687.22	15.351
687.54	15.380
687.86	15.360
688.18	15.362
688.50	15.296
688.82	15.281
689.14	15.233
689.46	15.227
689.78	15.181
690.10	15.168
690.42	15.185
690.74	15.071
691.06	15.073
691.38	15.060
691.70	15.027
692.02	15.001
692.34	14.967
692.66	14.965
692.98	15.017
693.30	15.092
693.62	15.073
693.94	15.121
694.26	15.173
694.57	15.099
694.89	15.118
695.21	15.080
695.53	15.144
695.85	15.186
696.17	15.238
696.49	15.182
696.81	15.199
697.13	15.283
697.44	15.221
697.76	15.283
698.08	15.278
698.40	15.294
698.72	15.296
699.04	15.200
699.36	15.126
699.67	14.991
699.99	14.933
700.31	14.818
700.63	14.690
700.95	14.667
701.27	14.563
701.58	14.518
701.90	14.363
702.22	14.297
702.54	14.433
702.86	14.470
703.17	14.517
703.49	14.573
703.81	14.649
704.13	14.606
704.45	14.588
704.76	14.529
705.08	14.533
705.40	14.566
705.72	14.592
706.03	14.552
706.35	14.607
706.67	14.527
706.99	14.550
707.30	14.479
707.62	14.565
707.94	14.582
708.26	14.658
708.57	14.698
708.89	14.765
709.21	14.838
709.53	14.775
709.84	14.741
710.16	14.817
710.48	14.811
710.79	14.824
711.11	14.751
711.43	14.808
711.74	14.822
712.06	14.903
712.38	14.990
712.69	14.953
713.01	15.047
713.33	15.055
713.64	15.141
713.96	15.243
714.28	15.407
714.59	15.503
714.91	15.582
715.23	15.605
715.54	15.573
715.86	15.507
716.17	15.620
716.49	15.522
716.81	15.521
717.12	15.572
717.44	15.506
717.76	15.451
718.07	15.423
718.39	15.357
718.70	15.310
719.02	15.206
719.33	15.165
719.65	15.097
719.97	15.181
720.28	15.165
720.60	15.094
720.91	15.091
721.23	14.933
721.54	14.933
721.86	14.915
722.17	15.029
722.49	15.108
722.81	15.228
723.12	15.272
723.44	15.286
723.75	15.427
724.07	15.402
724.38	15.373
724.70	15.433
725.01	15.516
725.33	15.581
725.64	15.540
725.96	15.559
726.27	15.619
726.59	15.657
726.90	15.612
727.22	15.632
727.53	15.624
727.84	15.587
728.16	15.523
728.47	15.555
728.79	15.481
729.10	15.442
729.42	15.391
729.73	15.287
730.05	15.133
730.36	15.052
730.67	14.885
730.99	14.761
731.30	14.704
731.62	14.768
731.93	14.617
732.24	14.494
732.56	14.477
732.87	14.532
733.19	14.537
733.50	14.622
733.81	14.527
734.13	14.413
734.44	14.512
734.76	14.539
735.07	14.355
735.38	14.235
735.70	14.143
736.01	14.093
736.32	13.930
736.64	13.706
736.95	13.563
737.26	13.607
737.58	13.629
737.89	13.600
738.20	13.600
738.52	13.545
738.83	13.557
739.14	13.616
739.45	13.432
739.77	13.270
740.08	13.259
740.39	13.158
740.71	13.114
741.02	12.929
741.33	12.818
741.64	12.568
741.96	12.523
742.27	12.502
742.58	12.455
742.90	12.491
743.21	12.473
743.52	12.582
743.83	12.438
744.14	12.194
744.46	12.299
744.77	12.396
745.08	12.606
745.39	12.722
745.71	12.754
746.02	12.759
746.33	12.861
746.64	12.989
746.95	12.757
747.27	12.839
747.58	12.995
747.89	13.036
748.20	12.979
748.51	12.714
748.82	12.558
749.14	12.538
749.45	12.490
749.76	12.423
750.07	12.454
750.38	12.464
750.69	12.603
751.01	12.721
751.32	12.564
751.63	12.439
751.94	12.712
752.25	12.902
752.56	12.723
752.87	12.900
753.18	12.808
753.49	12.646
753.81	12.722
754.12	12.652
754.43	12.543
754.74	12.621
755.05	12.788
755.36	12.689
755.67	12.846
755.98	13.283
756.29	13.382
756.60	13.596
756.91	13.921
757.22	14.272
757.53	14.586
757.84	14.966
758.15	15.360
758.46	15.663
758.77	16.060
759.09	16.207
759.40	16.342
759.71	16.418
760.02	16.471
760.33	16.493
760.64	16.471
760.95	16.553
761.26	16.505
761.57	16.429
761.88	16.324
762.18	16.197
762.49	16.148
762.80	16.064
763.11	16.036
763.42	15.922
763.73	15.792
764.04	15.639
764.35	15.402
764.66	15.300
764.97	15.048
765.28	14.703
765.59	14.410
765.90	14.087
766.21	13.735
766.52	13.277
766.83	13.063
767.14	12.768
767.44	12.482
767.75	12.126
768.06	11.594
768.37	11.437
768.68	11.588
768.99	11.637
769.30	11.560
769.61	11.300
769.91	11.250
770.22	11.228
770.53	11.282
770.84	11.188
771.15	11.201
771.46	11.559
771.77	11.589
772.07	11.283
772.38	11.213
772.69	11.000
773.00	10.919
773.31	11.018
773.61	10.686
773.92	10.817
774.23	11.108
774.54	11.079
774.85	10.973
775.15	10.849
775.46	10.783
775.77	10.431
776.08	10.535
776.39	10.555
776.69	10.536
777.00	10.870
777.31	10.722
777.62	10.473
777.92	10.618
778.23	10.439
778.54	10.428
778.85	10.568
779.15	10.817
779.46	10.683
779.77	10.875
780.07	10.909
780.38	10.873
780.69	10.827
781.00	10.912
781.30	10.723
781.61	10.486
781.92	10.696
782.22	10.686
782.53	10.536
782.84	10.769
783.14	10.562
783.45	10.507
783.76	10.625
784.06	10.570
784.37	10.719
784.68	11.038
784.98	11.328
785.29	11.462
785.60	11.578
785.90	11.720
786.21	11.852
786.51	12.336
786.82	12.378
787.13	12.643
787.43	12.786
787.74	12.830
788.04	12.704
788.35	12.696
788.66	12.585
788.96	12.637
789.27	12.648
789.57	12.442
789.88	12.194
790.19	12.234
790.49	12.118
790.80	12.126
791.10	12.345
791.41	12.488
791.71	12.581
792.02	12.644
792.32	12.549
792.63	12.735
792.93	12.736
793.24	12.673
793.54	12.857
793.85	12.609
794.15	12.658
794.46	12.437
794.76	12.568
795.07	12.552
795.37	12.678
795.68	12.828
795.98	12.771
796.29	12.959
796.59	13.104
796.90	13.143
797.20	13.303
797.51	13.265
797.81	13.221
798.12	12.937
798.42	13.186
798.72	12.922
799.03	13.039
799.33	13.178
799.64	13.140
799.94	13.108
800.25	12.896
800.55	12.976
800.85	12.772
801.16	12.743
801.46	12.825
801.77	12.683
802.07	12.919
802.37	12.962
802.68	13.256
802.98	13.668
803.28	13.610
803.59	13.983
803.89	13.913
804.20	14.308
804.50	14.183
804.80	14.064
805.11	13.884
805.41	13.934
805.71	13.683
806.02	13.280
806.32	12.831
806.62	12.939
806.93	12.653
807.23	12.986
807.53	13.198
807.83	13.318
808.14	13.538
808.44	13.767
808.74	13.753
809.05	13.673
809.35	13.821
809.65	14.250
809.95	14.559
810.26	14.764
810.56	14.921
810.86	14.815
811.16	14.634
811.47	15.131
811.77	15.421
812.07	15.729
812.37	15.832
812.68	16.153
812.98	15.865
813.28	15.929
813.58	16.215
813.88	15.704
814.19	16.247
814.49	17.305
814.79	17.199
815.09	17.121
815.39	16.683
815.70	16.972
816.00	16.649
816.30	16.760
816.60	16.565
816.90	16.498
817.20	16.636
817.50	16.267
817.81	16.240
818.11	16.346
818.41	16.466
818.71	16.791
819.01	16.979
819.31	17.017
819.61	17.187
819.92	17.423
820.22	17.564
820.52	17.611
820.82	17.698
821.12	17.709
821.42	17.684
821.72	17.732
822.02	17.726
822.32	17.735
822.62	17.787
822.92	17.711
823.22	17.558
823.52	17.466
823.83	17.456
824.13	17.446
824.43	17.308
824.73	17.320
825.03	17.282
825.33	17.366
825.63	17.166
825.93	17.174
826.23	17.082
826.53	17.296
826.83	17.256
827.13	17.265
827.43	17.071
827.73	17.125
828.03	17.219
828.33	17.291
828.63	16.928
828.93	17.178
829.23	17.256
829.53	17.556
829.83	17.011
830.13	17.114
830.42	17.059
830.72	17.370
831.02	17.352
831.32	17.085
831.62	16.706
831.92	16.842
832.22	16.924
832.52	16.582
832.82	16.739
833.12	16.929
833.42	16.815
833.72	16.686
834.01	16.514
834.31	16.557
834.61	16.675
834.91	16.771
835.21	16.665
835.51	16.322
835.81	16.307
836.11	16.093
836.40	16.084
836.70	15.742
837.00	15.609
837.30	16.159
837.60	16.087
837.90	15.988
838.19	15.634
838.49	15.958
838.79	16.129
839.09	16.246
839.39	15.959
839.68	15.396
839.98	15.314
840.28	15.695
840.58	14.517
840.88	14.300
841.17	13.865
841.47	14.815
841.77	13.999
842.07	14.252
842.36	14.464
842.66	14.573
842.96	14.673
843.26	14.627
843.55	13.568
843.85	13.301
844.15	12.584
844.45	11.919
844.74	11.361
845.04	13.115
845.34	12.273
845.63	12.191
845.93	13.026
846.23	14.653
846.53	14.614
846.82	15.396
847.12	15.486
847.42	15.867
847.71	16.909
848.01	16.388
848.31	16.362
848.60	17.372
848.90	16.315
849.19	14.791
849.49	12.348
849.79	12.823
850.08	13.411
850.38	13.613
850.68	13.502
850.97	14.594
851.27	15.541
851.56	14.115
851.86	11.812
852.16	13.228
852.45	14.297
852.75	16.537
853.04	15.699
853.34	15.284
853.64	15.008
853.93	15.727
854.23	14.362
854.52	13.420
854.82	13.185
855.11	14.857
855.41	12.592
855.70	11.828
856.00	10.136
856.30	10.644
856.59	9.715
856.89	8.634
857.18	8.281
857.48	7.923
857.77	7.552
858.07	8.430
858.36	7.617
858.66	9.972
858.95	9.194
859.25	10.573
859.54	10.985
859.84	11.804
860.13	13.271
860.42	14.336
860.72	15.502
861.01	15.254
861.31	15.766
861.60	17.017
861.90	16.785
862.19	16.527
862.49	15.630
862.78	15.971
863.07	14.041
863.37	15.099
863.66	14.614
863.96	13.621
864.25	14.264
864.54	13.470
864.84	12.841
865.13	12.372
865.43	12.570
865.72	15.206
866.01	13.596
866.31	17.431
866.60	11.684
866.89	5.197
>>>>>End Spectral Data<<<<<
