OOIBase32 Version 2.0.0.6 Data File
++++++++++++++++++++++++++++++++++++
Date: 01-22-2012, 21:33:20
User: Valued Ocean Optics Customer
Spectrometer Serial Number: USB2E2917
Spectrometer Channel: Master
Integration Time (msec): 4
Spectra Averaged: 10
Boxcar Smoothing: 5
Correct for Electrical Dark: Enabled
Time Normalized: Disabled
Dual-beam Reference: Disabled
Reference Channel: Master
Temperature: Not acquired
Spectrometer Type: S2000
ADC Type: USB2000
Number of Pixels in File: 2048
Graph Title: 
>>>>>Begin Spectral Data<<<<<
180.30	0.000
180.67	0.000
181.03	6.980
181.40	153.815
181.77	131.865
182.14	-48.408
182.51	569.858
182.88	78.676
183.25	211.678
183.62	-67.250
183.99	83.744
184.36	403.962
184.73	61.795
185.10	-413.649
185.46	-11.481
185.83	119.404
186.20	109.695
186.57	235.633
186.94	133.723
187.31	68.057
187.68	-5153.444
188.05	-94.690
188.42	-77.149
188.78	193.611
189.15	133.616
189.52	117.225
189.89	93.897
190.26	75.869
190.63	78.982
191.00	62.055
191.37	36.415
191.73	1.655
192.10	-13.575
192.47	-19.748
192.84	-152.177
193.21	-258.234
193.58	-276.306
193.94	-333.297
194.31	-110.813
194.68	-55.361
195.05	-54.491
195.42	-83.997
195.79	-47.227
196.15	-30.752
196.52	-7.063
196.89	-12.376
197.26	-22.165
197.63	-43.486
198.00	-41.771
198.36	-125.549
198.73	-154.952
199.10	-29.979
199.47	39.629
199.84	28.057
200.20	1.320
200.57	4.745
200.94	39.552
201.31	42.235
201.68	44.726
202.04	43.561
202.41	47.653
202.78	54.067
203.15	48.068
203.51	42.077
203.88	51.705
204.25	39.457
204.62	21.796
204.98	9.398
205.35	-13.694
205.72	-30.847
206.09	-109.386
206.46	-101.684
206.82	-207.452
207.19	-207.515
207.56	-254.367
207.92	-301.353
208.29	-180.820
208.66	-131.037
209.03	-155.713
209.39	-78.408
209.76	-58.626
210.13	-19.784
210.50	-21.321
210.86	-33.289
211.23	-71.189
211.60	-80.840
211.96	-87.788
212.33	-245.986
212.70	8345.735
213.07	665.009
213.43	685.085
213.80	1957.701
214.17	382.928
214.53	1997.261
214.90	-193.103
215.27	-51.343
215.63	-64.226
216.00	-46.415
216.37	-6.334
216.74	6.353
217.10	7.162
217.47	12.776
217.84	1.337
218.20	-0.801
218.57	13.190
218.94	-12.935
219.30	-17.509
219.67	-9.792
220.04	-4.231
220.40	1.882
220.77	2.635
221.13	0.991
221.50	4.035
221.87	10.109
222.23	9.082
222.60	3.038
222.97	4.487
223.33	-1.589
223.70	-6.783
224.07	-10.021
224.43	-11.818
224.80	-10.986
225.16	-12.078
225.53	-12.239
225.90	-10.747
226.26	-7.538
226.63	-8.713
226.99	-7.738
227.36	-4.960
227.73	-5.122
228.09	-3.913
228.46	-1.909
228.82	-0.966
229.19	0.234
229.56	-0.628
229.92	0.608
230.29	-0.012
230.65	2.201
231.02	1.513
231.38	-0.025
231.75	0.489
232.12	0.280
232.48	-1.588
232.85	-1.387
233.21	-0.014
233.58	3.128
233.94	2.635
234.31	5.222
234.68	3.980
235.04	8.743
235.41	10.018
235.77	8.714
236.14	8.500
236.50	10.363
236.87	11.192
237.23	10.658
237.60	8.396
237.96	7.363
238.33	5.089
238.69	5.275
239.06	4.008
239.42	3.145
239.79	4.581
240.15	5.338
240.52	4.572
240.88	3.411
241.25	2.809
241.61	2.341
241.98	2.381
242.34	2.547
242.71	2.677
243.07	2.345
243.44	3.075
243.80	2.822
244.17	2.448
244.53	2.300
244.90	2.732
245.26	3.061
245.63	3.399
245.99	3.481
246.36	3.877
246.72	3.567
247.09	3.535
247.45	3.457
247.81	3.218
248.18	3.622
248.54	4.002
248.91	3.858
249.27	3.669
249.64	3.954
250.00	3.831
250.36	3.886
250.73	3.596
251.09	3.387
251.46	2.835
251.82	2.987
252.19	2.805
252.55	2.779
252.91	3.075
253.28	3.053
253.64	2.990
254.01	2.833
254.37	2.537
254.73	3.062
255.10	3.479
255.46	4.130
255.83	4.196
256.19	4.145
256.55	4.101
256.92	4.197
257.28	4.135
257.65	3.978
258.01	3.946
258.37	4.001
258.74	3.935
259.10	3.998
259.46	3.972
259.83	4.171
260.19	4.267
260.55	4.223
260.92	3.884
261.28	3.713
261.64	3.578
262.01	3.265
262.37	2.863
262.73	2.792
263.10	2.514
263.46	2.480
263.82	2.125
264.19	1.499
264.55	1.762
264.91	2.160
265.28	2.829
265.64	2.918
266.00	3.206
266.37	3.496
266.73	3.701
267.09	3.775
267.46	3.432
267.82	3.471
268.18	3.624
268.54	3.360
268.91	3.365
269.27	2.935
269.63	2.851
270.00	2.829
270.36	2.831
270.72	2.811
271.08	2.697
271.45	2.789
271.81	3.122
272.17	3.464
272.53	3.583
272.90	3.435
273.26	3.437
273.62	3.691
273.98	4.001
274.35	4.072
274.71	3.922
275.07	4.195
275.43	4.326
275.80	4.096
276.16	4.001
276.52	3.821
276.88	3.900
277.25	3.788
277.61	3.833
277.97	3.444
278.33	3.367
278.69	3.555
279.06	3.434
279.42	3.230
279.78	2.997
280.14	2.985
280.50	3.172
280.87	3.135
281.23	3.145
281.59	3.309
281.95	3.549
282.31	3.485
282.68	3.509
283.04	3.324
283.40	3.255
283.76	3.419
284.12	3.285
284.48	3.181
284.85	3.234
285.21	3.386
285.57	3.180
285.93	3.122
286.29	3.174
286.65	3.105
287.02	3.378
287.38	3.583
287.74	3.631
288.10	3.612
288.46	3.651
288.82	3.511
289.18	3.105
289.54	2.874
289.91	2.699
290.27	2.625
290.63	2.828
290.99	2.776
291.35	2.760
291.71	2.545
292.07	2.477
292.43	2.289
292.79	2.411
293.16	2.956
293.52	3.255
293.88	3.503
294.24	3.570
294.60	3.349
294.96	3.357
295.32	3.412
295.68	3.315
296.04	3.414
296.40	3.474
296.76	3.400
297.12	3.430
297.49	3.417
297.85	3.461
298.21	3.432
298.57	3.550
298.93	3.616
299.29	3.590
299.65	3.906
300.01	3.947
300.37	3.987
300.73	4.152
301.09	3.994
301.45	3.866
301.81	3.818
302.17	3.972
302.53	3.842
302.89	3.618
303.25	3.491
303.61	3.292
303.97	3.295
304.33	3.497
304.69	3.576
305.05	3.656
305.41	3.880
305.77	3.736
306.13	3.604
306.49	3.703
306.85	3.825
307.21	3.882
307.57	3.943
307.93	4.098
308.29	3.994
308.65	3.736
309.01	3.566
309.37	3.458
309.73	3.508
310.09	3.556
310.45	3.549
310.81	3.542
311.17	3.457
311.53	3.469
311.89	3.278
312.25	3.245
312.61	3.366
312.96	3.705
313.32	3.760
313.68	3.765
314.04	3.696
314.40	3.677
314.76	3.672
315.12	3.753
315.48	3.847
315.84	3.724
316.20	3.598
316.56	3.697
316.92	3.318
317.27	3.383
317.63	3.420
317.99	3.439
318.35	3.485
318.71	3.545
319.07	3.671
319.43	3.521
319.79	3.577
320.15	3.749
320.50	3.805
320.86	3.908
321.22	3.794
321.58	3.739
321.94	3.755
322.30	3.868
322.66	3.836
323.01	3.670
323.37	3.875
323.73	3.887
324.09	4.082
324.45	4.023
324.81	4.070
325.17	4.130
325.52	4.278
325.88	4.327
326.24	4.150
326.60	4.137
326.96	4.254
327.31	4.116
327.67	4.283
328.03	4.070
328.39	3.876
328.75	3.940
329.11	3.908
329.46	3.868
329.82	3.805
330.18	3.993
330.54	4.031
330.90	4.058
331.25	4.028
331.61	3.913
331.97	3.939
332.33	4.072
332.68	4.094
333.04	4.053
333.40	4.014
333.76	4.191
334.11	4.119
334.47	4.183
334.83	4.169
335.19	4.190
335.54	4.080
335.90	4.030
336.26	4.039
336.62	4.088
336.97	4.179
337.33	4.225
337.69	4.045
338.05	4.149
338.40	4.116
338.76	4.137
339.12	4.118
339.48	4.266
339.83	4.369
340.19	4.489
340.55	4.418
340.90	4.327
341.26	4.352
341.62	4.381
341.97	4.308
342.33	4.324
342.69	4.363
343.04	4.406
343.40	4.397
343.76	4.373
344.12	4.299
344.47	4.310
344.83	4.380
345.19	4.353
345.54	4.339
345.90	4.295
346.26	4.317
346.61	4.241
346.97	4.313
347.32	4.273
347.68	4.287
348.04	4.338
348.39	4.362
348.75	4.412
349.11	4.386
349.46	4.436
349.82	4.523
350.18	4.543
350.53	4.669
350.89	4.607
351.24	4.635
351.60	4.616
351.96	4.597
352.31	4.580
352.67	4.477
353.02	4.531
353.38	4.584
353.74	4.534
354.09	4.493
354.45	4.378
354.80	4.382
355.16	4.468
355.52	4.495
355.87	4.456
356.23	4.514
356.58	4.587
356.94	4.573
357.29	4.529
357.65	4.520
358.00	4.512
358.36	4.570
358.72	4.532
359.07	4.427
359.43	4.474
359.78	4.491
360.14	4.442
360.49	4.446
360.85	4.435
361.20	4.393
361.56	4.413
361.91	4.472
362.27	4.468
362.62	4.568
362.98	4.678
363.33	4.659
363.69	4.698
364.04	4.720
364.40	4.750
364.75	4.755
365.11	4.778
365.46	4.775
365.82	4.687
366.17	4.689
366.53	4.643
366.88	4.615
367.24	4.608
367.59	4.611
367.95	4.655
368.30	4.608
368.66	4.664
369.01	4.729
369.37	4.751
369.72	4.829
370.08	4.849
370.43	4.879
370.78	4.953
371.14	4.997
371.49	4.993
371.85	4.945
372.20	5.010
372.56	5.023
372.91	5.008
373.26	5.069
373.62	5.039
373.97	5.056
374.33	5.019
374.68	4.978
375.03	4.962
375.39	4.954
375.74	5.018
376.10	5.055
376.45	5.092
376.80	5.145
377.16	5.137
377.51	5.202
377.87	5.245
378.22	5.279
378.57	5.285
378.93	5.316
379.28	5.322
379.63	5.339
379.99	5.365
380.34	5.344
380.70	5.357
381.05	5.381
381.40	5.372
381.76	5.397
382.11	5.391
382.46	5.393
382.82	5.425
383.17	5.459
383.52	5.482
383.88	5.505
384.23	5.546
384.58	5.532
384.94	5.573
385.29	5.609
385.64	5.594
385.99	5.648
386.35	5.683
386.70	5.694
387.05	5.725
387.41	5.709
387.76	5.652
388.11	5.654
388.47	5.678
388.82	5.636
389.17	5.650
389.52	5.648
389.88	5.710
390.23	5.755
390.58	5.726
390.93	5.802
391.29	5.845
391.64	5.920
391.99	5.965
392.34	6.029
392.70	6.095
393.05	6.114
393.40	6.154
393.75	6.166
394.11	6.156
394.46	6.180
394.81	6.146
395.16	6.131
395.52	6.178
395.87	6.149
396.22	6.122
396.57	6.124
396.92	6.117
397.28	6.138
397.63	6.098
397.98	6.132
398.33	6.189
398.68	6.222
399.04	6.226
399.39	6.194
399.74	6.213
400.09	6.234
400.44	6.241
400.80	6.260
401.15	6.241
401.50	6.299
401.85	6.301
402.20	6.294
402.55	6.284
402.90	6.337
403.26	6.352
403.61	6.351
403.96	6.328
404.31	6.374
404.66	6.397
405.01	6.412
405.36	6.384
405.72	6.427
406.07	6.437
406.42	6.463
406.77	6.454
407.12	6.482
407.47	6.525
407.82	6.568
408.17	6.532
408.53	6.574
408.88	6.613
409.23	6.618
409.58	6.586
409.93	6.614
410.28	6.625
410.63	6.663
410.98	6.651
411.33	6.647
411.68	6.651
412.03	6.651
412.38	6.604
412.73	6.608
413.09	6.619
413.44	6.595
413.79	6.607
414.14	6.614
414.49	6.583
414.84	6.606
415.19	6.591
415.54	6.593
415.89	6.577
416.24	6.600
416.59	6.603
416.94	6.603
417.29	6.608
417.64	6.601
417.99	6.591
418.34	6.600
418.69	6.567
419.04	6.572
419.39	6.574
419.74	6.609
420.09	6.597
420.44	6.584
420.79	6.607
421.14	6.636
421.49	6.648
421.84	6.648
422.19	6.656
422.54	6.680
422.89	6.698
423.24	6.704
423.59	6.721
423.94	6.752
424.29	6.789
424.64	6.808
424.99	6.850
425.34	6.890
425.68	6.935
426.03	6.980
426.38	7.038
426.73	7.077
427.08	7.103
427.43	7.107
427.78	7.118
428.13	7.127
428.48	7.161
428.83	7.139
429.18	7.126
429.53	7.155
429.87	7.150
430.22	7.138
430.57	7.153
430.92	7.174
431.27	7.183
431.62	7.186
431.97	7.190
432.32	7.184
432.67	7.186
433.01	7.202
433.36	7.190
433.71	7.210
434.06	7.236
434.41	7.248
434.76	7.286
435.11	7.322
435.45	7.339
435.80	7.356
436.15	7.361
436.50	7.366
436.85	7.378
437.20	7.369
437.54	7.356
437.89	7.359
438.24	7.335
438.59	7.327
438.94	7.303
439.29	7.315
439.63	7.316
439.98	7.320
440.33	7.347
440.68	7.347
441.03	7.383
441.37	7.395
441.72	7.397
442.07	7.422
442.42	7.417
442.76	7.430
443.11	7.402
443.46	7.401
443.81	7.403
444.16	7.401
444.50	7.395
444.85	7.395
445.20	7.423
445.55	7.421
445.89	7.427
446.24	7.435
446.59	7.464
446.94	7.510
447.28	7.552
447.63	7.583
447.98	7.596
448.32	7.636
448.67	7.640
449.02	7.635
449.37	7.667
449.71	7.680
450.06	7.740
450.41	7.734
450.75	7.741
451.10	7.743
451.45	7.753
451.79	7.769
452.14	7.768
452.49	7.800
452.84	7.823
453.18	7.812
453.53	7.825
453.88	7.796
454.22	7.797
454.57	7.777
454.92	7.768
455.26	7.747
455.61	7.738
455.95	7.716
456.30	7.714
456.65	7.702
456.99	7.709
457.34	7.706
457.69	7.718
458.03	7.726
458.38	7.742
458.73	7.769
459.07	7.811
459.42	7.836
459.76	7.881
460.11	7.902
460.46	7.916
460.80	7.936
461.15	7.966
461.49	7.971
461.84	7.987
462.19	8.032
462.53	8.027
462.88	8.022
463.22	8.030
463.57	8.037
463.91	8.053
464.26	8.096
464.61	8.114
464.95	8.144
465.30	8.178
465.64	8.210
465.99	8.213
466.33	8.229
466.68	8.225
467.02	8.246
467.37	8.254
467.71	8.248
468.06	8.230
468.41	8.237
468.75	8.231
469.10	8.226
469.44	8.228
469.79	8.239
470.13	8.251
470.48	8.265
470.82	8.287
471.17	8.293
471.51	8.297
471.86	8.305
472.20	8.292
472.55	8.297
472.89	8.295
473.23	8.278
473.58	8.274
473.92	8.253
474.27	8.252
474.61	8.232
474.96	8.257
475.30	8.264
475.65	8.277
475.99	8.299
476.34	8.283
476.68	8.285
477.02	8.317
477.37	8.320
477.71	8.338
478.06	8.349
478.40	8.372
478.75	8.385
479.09	8.433
479.43	8.468
479.78	8.529
480.12	8.611
480.47	8.699
480.81	8.770
481.15	8.855
481.50	8.944
481.84	9.054
482.19	9.174
482.53	9.255
482.87	9.284
483.22	9.250
483.56	9.150
483.90	9.033
484.25	8.947
484.59	8.907
484.94	8.847
485.28	8.780
485.62	8.688
485.97	8.568
486.31	8.480
486.65	8.454
487.00	8.501
487.34	8.617
487.68	8.739
488.03	8.820
488.37	8.837
488.71	8.857
489.06	8.874
489.40	8.888
489.74	8.905
490.09	8.937
490.43	8.947
490.77	8.963
491.11	8.979
491.46	9.004
491.80	9.014
492.14	9.023
492.49	9.035
492.83	9.036
493.17	9.049
493.51	9.058
493.86	9.073
494.20	9.083
494.54	9.095
494.88	9.117
495.23	9.123
495.57	9.141
495.91	9.155
496.25	9.189
496.60	9.212
496.94	9.231
497.28	9.265
497.62	9.275
497.97	9.288
498.31	9.316
498.65	9.328
498.99	9.359
499.33	9.391
499.68	9.422
500.02	9.433
500.36	9.475
500.70	9.506
501.04	9.512
501.39	9.536
501.73	9.558
502.07	9.575
502.41	9.594
502.75	9.604
503.09	9.623
503.44	9.639
503.78	9.669
504.12	9.677
504.46	9.682
504.80	9.712
505.14	9.717
505.49	9.759
505.83	9.777
506.17	9.820
506.51	9.842
506.85	9.822
507.19	9.844
507.53	9.849
507.87	9.871
508.22	9.913
508.56	9.950
508.90	9.988
509.24	10.003
509.58	10.033
509.92	10.027
510.26	10.021
510.60	10.071
510.94	10.087
511.28	10.126
511.63	10.157
511.97	10.169
512.31	10.186
512.65	10.228
512.99	10.254
513.33	10.273
513.67	10.292
514.01	10.344
514.35	10.375
514.69	10.419
515.03	10.432
515.37	10.445
515.71	10.453
516.05	10.459
516.39	10.442
516.73	10.433
517.07	10.449
517.41	10.481
517.75	10.503
518.09	10.503
518.43	10.503
518.77	10.528
519.11	10.536
519.45	10.551
519.79	10.572
520.13	10.605
520.47	10.649
520.81	10.683
521.15	10.704
521.49	10.705
521.83	10.719
522.17	10.722
522.51	10.710
522.85	10.749
523.19	10.767
523.53	10.800
523.87	10.848
524.21	10.899
524.55	10.954
524.89	10.998
525.23	11.061
525.57	11.115
525.91	11.174
526.25	11.237
526.58	11.266
526.92	11.325
527.26	11.362
527.60	11.383
527.94	11.393
528.28	11.400
528.62	11.407
528.96	11.403
529.30	11.400
529.64	11.399
529.97	11.382
530.31	11.388
530.65	11.369
530.99	11.361
531.33	11.360
531.67	11.380
532.01	11.387
532.35	11.417
532.68	11.442
533.02	11.472
533.36	11.471
533.70	11.497
534.04	11.527
534.38	11.544
534.71	11.566
535.05	11.571
535.39	11.569
535.73	11.588
536.07	11.591
536.41	11.602
536.74	11.609
537.08	11.636
537.42	11.671
537.76	11.686
538.10	11.716
538.43	11.749
538.77	11.794
539.11	11.852
539.45	11.888
539.79	11.911
540.12	11.934
540.46	11.973
540.80	12.001
541.14	11.999
541.47	12.020
541.81	12.040
542.15	12.059
542.49	12.083
542.82	12.079
543.16	12.082
543.50	12.106
543.84	12.131
544.17	12.126
544.51	12.155
544.85	12.191
545.18	12.205
545.52	12.249
545.86	12.269
546.20	12.305
546.53	12.331
546.87	12.365
547.21	12.413
547.54	12.464
547.88	12.509
548.22	12.538
548.55	12.565
548.89	12.588
549.23	12.588
549.56	12.612
549.90	12.626
550.24	12.639
550.57	12.653
550.91	12.661
551.25	12.660
551.58	12.683
551.92	12.695
552.26	12.730
552.59	12.753
552.93	12.785
553.27	12.814
553.60	12.812
553.94	12.847
554.27	12.876
554.61	12.907
554.95	12.950
555.28	12.981
555.62	12.990
555.95	13.015
556.29	13.052
556.63	13.090
556.96	13.099
557.30	13.133
557.63	13.132
557.97	13.166
558.31	13.166
558.64	13.178
558.98	13.186
559.31	13.210
559.65	13.219
559.98	13.219
560.32	13.195
560.65	13.200
560.99	13.217
561.33	13.237
561.66	13.215
562.00	13.217
562.33	13.206
562.67	13.223
563.00	13.223
563.34	13.224
563.67	13.248
564.01	13.240
564.34	13.268
564.68	13.279
565.01	13.288
565.35	13.300
565.68	13.307
566.02	13.332
566.35	13.335
566.69	13.369
567.02	13.374
567.36	13.384
567.69	13.398
568.03	13.388
568.36	13.385
568.69	13.399
569.03	13.434
569.36	13.442
569.70	13.429
570.03	13.439
570.37	13.442
570.70	13.453
571.04	13.454
571.37	13.473
571.70	13.496
572.04	13.514
572.37	13.515
572.71	13.501
573.04	13.500
573.37	13.529
573.71	13.527
574.04	13.532
574.38	13.573
574.71	13.581
575.04	13.618
575.38	13.644
575.71	13.696
576.05	13.722
576.38	13.765
576.71	13.807
577.05	13.859
577.38	13.902
577.71	13.947
578.05	13.954
578.38	13.992
578.71	13.997
579.05	14.002
579.38	13.986
579.71	14.001
580.05	14.016
580.38	14.052
580.71	14.041
581.05	14.046
581.38	14.019
581.71	14.014
582.05	13.993
582.38	13.981
582.71	13.970
583.04	13.963
583.38	13.976
583.71	13.954
584.04	13.917
584.38	13.890
584.71	13.861
585.04	13.863
585.37	13.841
585.71	13.814
586.04	13.809
586.37	13.834
586.70	13.835
587.04	13.811
587.37	13.815
587.70	13.804
588.03	13.759
588.37	13.753
588.70	13.733
589.03	13.733
589.36	13.750
589.69	13.741
590.03	13.691
590.36	13.672
590.69	13.634
591.02	13.620
591.35	13.602
591.69	13.604
592.02	13.570
592.35	13.577
592.68	13.552
593.01	13.543
593.35	13.509
593.68	13.492
594.01	13.439
594.34	13.460
594.67	13.456
595.00	13.410
595.34	13.383
595.67	13.375
596.00	13.347
596.33	13.323
596.66	13.318
596.99	13.314
597.32	13.287
597.65	13.276
597.99	13.224
598.32	13.176
598.65	13.160
598.98	13.149
599.31	13.135
599.64	13.098
599.97	13.083
600.30	13.017
600.63	12.975
600.96	12.995
601.30	12.977
601.63	12.961
601.96	12.950
602.29	12.962
602.62	12.972
602.95	12.937
603.28	12.936
603.61	12.894
603.94	12.886
604.27	12.895
604.60	12.878
604.93	12.894
605.26	12.890
605.59	12.852
605.92	12.829
606.25	12.813
606.58	12.827
606.91	12.781
607.24	12.781
607.57	12.772
607.90	12.749
608.23	12.699
608.56	12.675
608.89	12.671
609.22	12.671
609.55	12.655
609.88	12.628
610.21	12.615
610.54	12.615
610.87	12.605
611.20	12.568
611.53	12.533
611.86	12.528
612.19	12.468
612.52	12.404
612.85	12.392
613.18	12.375
613.51	12.346
613.84	12.261
614.17	12.247
614.49	12.217
614.82	12.245
615.15	12.249
615.48	12.241
615.81	12.257
616.14	12.256
616.47	12.223
616.80	12.237
617.13	12.242
617.46	12.284
617.78	12.255
618.11	12.272
618.44	12.258
618.77	12.237
619.10	12.198
619.43	12.186
619.76	12.179
620.09	12.163
620.41	12.142
620.74	12.149
621.07	12.107
621.40	12.119
621.73	12.079
622.06	12.066
622.38	12.083
622.71	12.075
623.04	12.041
623.37	12.046
623.70	12.031
624.02	11.991
624.35	11.957
624.68	11.973
625.01	11.936
625.34	11.940
625.66	11.912
625.99	11.884
626.32	11.900
626.65	11.916
626.98	11.882
627.30	11.925
627.63	11.939
627.96	11.914
628.29	11.890
628.61	11.865
628.94	11.855
629.27	11.868
629.60	11.850
629.92	11.817
630.25	11.797
630.58	11.764
630.91	11.671
631.23	11.613
631.56	11.603
631.89	11.563
632.21	11.611
632.54	11.586
632.87	11.531
633.19	11.531
633.52	11.505
633.85	11.484
634.18	11.487
634.50	11.478
634.83	11.478
635.16	11.433
635.48	11.448
635.81	11.393
636.14	11.373
636.46	11.366
636.79	11.277
637.11	11.277
637.44	11.228
637.77	11.184
638.09	11.139
638.42	11.125
638.75	11.069
639.07	10.987
639.40	10.937
639.73	10.902
640.05	10.814
640.38	10.844
640.70	10.767
641.03	10.736
641.36	10.747
641.68	10.753
642.01	10.737
642.33	10.802
642.66	10.839
642.98	10.829
643.31	10.798
643.64	10.841
643.96	10.805
644.29	10.806
644.61	10.805
644.94	10.788
645.26	10.831
645.59	10.801
645.91	10.801
646.24	10.801
646.56	10.793
646.89	10.844
647.22	10.863
647.54	10.852
647.87	10.843
648.19	10.823
648.52	10.817
648.84	10.740
649.17	10.780
649.49	10.667
649.82	10.622
650.14	10.651
650.47	10.616
650.79	10.578
651.11	10.519
651.44	10.502
651.76	10.557
652.09	10.583
652.41	10.584
652.74	10.497
653.06	10.500
653.39	10.503
653.71	10.427
654.04	10.431
654.36	10.439
654.68	10.471
655.01	10.481
655.33	10.482
655.66	10.406
655.98	10.451
656.30	10.468
656.63	10.481
656.95	10.475
657.28	10.480
657.60	10.421
657.92	10.377
658.25	10.385
658.57	10.330
658.90	10.223
659.22	10.208
659.54	10.066
659.87	9.952
660.19	9.913
660.51	9.849
660.84	9.804
661.16	9.753
661.48	9.729
661.81	9.648
662.13	9.613
662.45	9.609
662.78	9.614
663.10	9.662
663.42	9.689
663.75	9.757
664.07	9.838
664.39	9.768
664.72	9.832
665.04	9.880
665.36	9.862
665.69	9.879
666.01	9.866
666.33	9.820
666.65	9.805
666.98	9.844
667.30	9.796
667.62	9.688
667.94	9.741
668.27	9.681
668.59	9.622
668.91	9.657
669.23	9.616
669.56	9.568
669.88	9.515
670.20	9.452
670.52	9.414
670.85	9.343
671.17	9.295
671.49	9.277
671.81	9.256
672.13	9.167
672.46	9.129
672.78	9.130
673.10	9.163
673.42	9.175
673.74	9.166
674.07	9.181
674.39	9.215
674.71	9.214
675.03	9.207
675.35	9.171
675.67	9.184
676.00	9.180
676.32	9.234
676.64	9.265
676.96	9.326
677.28	9.411
677.60	9.399
677.92	9.329
678.25	9.355
678.57	9.356
678.89	9.377
679.21	9.423
679.53	9.402
679.85	9.398
680.17	9.413
680.49	9.383
680.81	9.376
681.13	9.426
681.46	9.424
681.78	9.424
682.10	9.443
682.42	9.487
682.74	9.442
683.06	9.478
683.38	9.473
683.70	9.530
684.02	9.550
684.34	9.548
684.66	9.600
684.98	9.655
685.30	9.747
685.62	9.749
685.94	9.698
686.26	9.740
686.58	9.733
686.90	9.686
687.22	9.621
687.54	9.634
687.86	9.639
688.18	9.547
688.50	9.575
688.82	9.511
689.14	9.472
689.46	9.471
689.78	9.457
690.10	9.515
690.42	9.473
690.74	9.444
691.06	9.388
691.38	9.257
691.70	9.235
692.02	9.175
692.34	9.101
692.66	9.087
692.98	9.110
693.30	9.089
693.62	9.007
693.94	9.101
694.26	9.108
694.57	9.151
694.89	9.216
695.21	9.185
695.53	9.249
695.85	9.247
696.17	9.321
696.49	9.290
696.81	9.305
697.13	9.358
697.44	9.342
697.76	9.351
698.08	9.277
698.40	9.245
698.72	9.199
699.04	9.099
699.36	9.074
699.67	8.851
699.99	8.741
700.31	8.603
700.63	8.455
700.95	8.345
701.27	8.154
701.58	8.052
701.90	7.971
702.22	7.904
702.54	7.876
702.86	7.804
703.17	7.762
703.49	7.750
703.81	7.843
704.13	7.777
704.45	7.745
704.76	7.752
705.08	7.757
705.40	7.768
705.72	7.827
706.03	7.890
706.35	7.931
706.67	8.100
706.99	8.147
707.30	8.055
707.62	8.260
707.94	8.318
708.26	8.395
708.57	8.437
708.89	8.458
709.21	8.470
709.53	8.434
709.84	8.491
710.16	8.481
710.48	8.514
710.79	8.511
711.11	8.357
711.43	8.389
711.74	8.432
712.06	8.510
712.38	8.568
712.69	8.572
713.01	8.515
713.33	8.498
713.64	8.603
713.96	8.690
714.28	8.838
714.59	9.001
714.91	9.119
715.23	9.217
715.54	9.190
715.86	9.196
716.17	9.271
716.49	9.378
716.81	9.432
717.12	9.458
717.44	9.400
717.76	9.314
718.07	9.163
718.39	8.939
718.70	8.778
719.02	8.815
719.33	8.767
719.65	8.735
719.97	8.751
720.28	8.728
720.60	8.622
720.91	8.607
721.23	8.589
721.54	8.667
721.86	8.803
722.17	8.796
722.49	8.743
722.81	8.733
723.12	8.801
723.44	8.880
723.75	8.918
724.07	8.954
724.38	8.963
724.70	8.995
725.01	8.937
725.33	8.973
725.64	9.020
725.96	9.072
726.27	9.196
726.59	9.240
726.90	9.094
727.22	9.059
727.53	9.012
727.84	8.983
728.16	8.917
728.47	9.024
728.79	8.892
729.10	8.798
729.42	8.752
729.73	8.665
730.05	8.509
730.36	8.506
730.67	8.454
730.99	8.384
731.30	8.295
731.62	8.331
731.93	8.155
732.24	8.062
732.56	8.134
732.87	8.045
733.19	7.957
733.50	7.980
733.81	7.911
734.13	7.786
734.44	7.866
734.76	7.949
735.07	7.850
735.38	7.764
735.70	7.797
736.01	7.744
736.32	7.733
736.64	7.632
736.95	7.492
737.26	7.635
737.58	7.695
737.89	7.540
738.20	7.398
738.52	7.235
738.83	7.279
739.14	7.177
739.45	7.071
739.77	6.908
740.08	6.967
740.39	6.917
740.71	6.652
741.02	6.386
741.33	6.350
741.64	6.387
741.96	6.443
742.27	6.458
742.58	6.423
742.90	6.334
743.21	6.295
743.52	6.392
743.83	6.292
744.14	6.313
744.46	6.356
744.77	6.409
745.08	6.416
745.39	6.450
745.71	6.476
746.02	6.486
746.33	6.546
746.64	6.690
746.95	6.484
747.27	6.566
747.58	6.636
747.89	6.900
748.20	6.761
748.51	6.615
748.82	6.584
749.14	6.479
749.45	6.509
749.76	6.547
750.07	6.552
750.38	6.563
750.69	6.675
751.01	6.626
751.32	6.368
751.63	6.316
751.94	6.394
752.25	6.483
752.56	6.349
752.87	6.387
753.18	6.172
753.49	6.101
753.81	6.250
754.12	6.267
754.43	6.296
754.74	6.545
755.05	6.754
755.36	6.854
755.67	7.056
755.98	7.498
756.29	7.693
756.60	8.021
756.91	8.292
757.22	8.633
757.53	8.806
757.84	9.092
758.15	9.496
758.46	9.751
758.77	10.135
759.09	10.384
759.40	10.547
759.71	10.823
760.02	10.941
760.33	10.999
760.64	10.971
760.95	11.143
761.26	11.147
761.57	11.049
761.88	10.961
762.18	10.864
762.49	10.719
762.80	10.604
763.11	10.409
763.42	10.295
763.73	10.067
764.04	9.749
764.35	9.470
764.66	9.255
764.97	8.931
765.28	8.672
765.59	8.341
765.90	8.076
766.21	7.717
766.52	7.315
766.83	6.924
767.14	6.684
767.44	6.556
767.75	6.251
768.06	5.857
768.37	5.668
768.68	5.623
768.99	5.526
769.30	5.272
769.61	5.021
769.91	4.905
770.22	4.792
770.53	4.924
770.84	4.858
771.15	4.795
771.46	5.037
771.77	4.853
772.07	4.707
772.38	4.512
772.69	4.458
773.00	4.343
773.31	4.498
773.61	4.541
773.92	4.454
774.23	4.361
774.54	4.178
774.85	4.074
775.15	4.386
775.46	4.494
775.77	4.400
776.08	4.413
776.39	4.313
776.69	4.454
777.00	4.609
777.31	4.607
777.62	4.665
777.92	5.042
778.23	4.893
778.54	4.732
778.85	4.624
779.15	4.987
779.46	5.117
779.77	5.652
780.07	5.397
780.38	5.411
780.69	5.494
781.00	5.531
781.30	5.398
781.61	5.394
781.92	5.276
782.22	5.252
782.53	5.107
782.84	5.100
783.14	4.801
783.45	4.896
783.76	4.933
784.06	4.976
784.37	5.135
784.68	5.180
784.98	5.425
785.29	5.886
785.60	6.132
785.90	6.379
786.21	6.358
786.51	6.632
786.82	6.779
787.13	6.995
787.43	7.109
787.74	7.242
788.04	7.416
788.35	7.532
788.66	7.518
788.96	7.544
789.27	7.456
789.57	7.703
789.88	7.682
790.19	7.651
790.49	7.554
790.80	7.537
791.10	7.501
791.41	7.602
791.71	7.458
792.02	7.294
792.32	7.184
792.63	7.045
792.93	6.678
793.24	6.663
793.54	6.844
793.85	6.938
794.15	6.898
794.46	7.096
794.76	7.079
795.07	7.328
795.37	7.412
795.68	7.532
795.98	7.706
796.29	8.138
796.59	8.241
796.90	8.296
797.20	8.411
797.51	8.548
797.81	8.544
798.12	8.443
798.42	8.687
798.72	8.834
799.03	9.098
799.33	9.095
799.64	8.990
799.94	9.108
800.25	8.900
800.55	8.749
800.85	8.614
801.16	8.327
801.46	8.458
801.77	8.042
802.07	8.028
802.37	7.659
802.68	7.796
802.98	8.224
803.28	8.199
803.59	8.317
803.89	8.340
804.20	8.641
804.50	8.983
804.80	8.811
805.11	9.114
805.41	8.845
805.71	9.117
806.02	8.764
806.32	8.142
806.62	8.135
806.93	8.271
807.23	8.508
807.53	8.429
807.83	8.478
808.14	8.711
808.44	8.452
808.74	8.935
809.05	9.082
809.35	9.488
809.65	9.688
809.95	9.923
810.26	9.708
810.56	9.675
810.86	9.672
811.16	9.642
811.47	9.502
811.77	9.811
812.07	9.563
812.37	9.459
812.68	9.811
812.98	10.227
813.28	10.223
813.58	10.578
813.88	10.371
814.19	11.225
814.49	11.853
814.79	12.183
815.09	12.290
815.39	12.645
815.70	12.886
816.00	12.897
816.30	12.988
816.60	13.122
816.90	13.056
817.20	13.406
817.50	13.210
817.81	13.033
818.11	13.209
818.41	13.354
818.71	13.549
819.01	13.619
819.31	13.606
819.61	13.731
819.92	13.806
820.22	13.903
820.52	13.953
820.82	13.997
821.12	14.073
821.42	14.035
821.72	14.088
822.02	14.046
822.32	14.054
822.62	14.123
822.92	14.100
823.22	14.002
823.52	14.033
823.83	13.994
824.13	14.011
824.43	13.926
824.73	14.024
825.03	13.930
825.33	13.892
825.63	13.831
825.93	13.731
826.23	13.630
826.53	13.768
826.83	13.729
827.13	13.717
827.43	13.605
827.73	13.653
828.03	13.541
828.33	13.659
828.63	13.660
828.93	13.735
829.23	13.836
829.53	13.800
829.83	13.659
830.13	13.714
830.42	13.563
830.72	13.509
831.02	13.087
831.32	12.863
831.62	12.684
831.92	12.976
832.22	12.971
832.52	12.838
832.82	13.096
833.12	13.161
833.42	13.148
833.72	13.076
834.01	12.852
834.31	13.067
834.61	13.270
834.91	13.209
835.21	12.835
835.51	12.525
835.81	12.226
836.11	11.958
836.40	11.953
836.70	11.107
837.00	11.146
837.30	11.762
837.60	11.936
837.90	12.095
838.19	12.288
838.49	12.273
838.79	13.104
839.09	13.459
839.39	13.356
839.68	12.974
839.98	13.857
840.28	13.920
840.58	13.157
840.88	12.647
841.17	12.096
841.47	12.460
841.77	12.332
842.07	11.861
842.36	11.732
842.66	11.099
842.96	10.694
843.26	9.469
843.55	8.355
843.85	8.106
844.15	7.605
844.45	6.853
844.74	5.920
845.04	6.730
845.34	6.171
845.63	5.981
845.93	6.747
846.23	8.152
846.53	8.611
846.82	8.321
847.12	8.530
847.42	8.278
847.71	8.854
848.01	7.787
848.31	7.432
848.60	8.153
848.90	8.222
849.19	7.959
849.49	6.431
849.79	6.046
850.08	8.093
850.38	8.086
850.68	8.516
850.97	8.847
851.27	8.926
851.56	8.374
851.86	6.915
852.16	7.008
852.45	7.549
852.75	8.334
853.04	8.510
853.34	8.163
853.64	8.365
853.93	8.606
854.23	8.894
854.52	9.302
854.82	9.782
855.11	10.666
855.41	9.785
855.70	9.289
856.00	7.888
856.30	7.472
856.59	6.822
856.89	6.609
857.18	7.570
857.48	7.334
857.77	8.474
858.07	8.839
858.36	8.887
858.66	10.499
858.95	11.172
859.25	11.870
859.54	12.330
859.84	12.612
860.13	11.654
860.42	12.132
860.72	13.166
861.01	11.434
861.31	10.452
861.60	11.833
861.90	11.582
862.19	11.334
862.49	12.259
862.78	12.884
863.07	12.977
863.37	14.508
863.66	13.335
863.96	11.186
864.25	12.245
864.54	12.769
864.84	11.041
865.13	10.624
865.43	9.608
865.72	11.529
866.01	11.018
866.31	7.325
866.60	8.557
866.89	1.869
>>>>>End Spectral Data<<<<<
