OOIBase32 Version 2.0.0.6 Data File
++++++++++++++++++++++++++++++++++++
Date: 01-22-2012, 21:33:34
User: Valued Ocean Optics Customer
Spectrometer Serial Number: USB2E2917
Spectrometer Channel: Master
Integration Time (msec): 4
Spectra Averaged: 10
Boxcar Smoothing: 5
Correct for Electrical Dark: Enabled
Time Normalized: Disabled
Dual-beam Reference: Disabled
Reference Channel: Master
Temperature: Not acquired
Spectrometer Type: S2000
ADC Type: USB2000
Number of Pixels in File: 2048
Graph Title: 
>>>>>Begin Spectral Data<<<<<
180.30	0.000
180.67	0.000
181.03	-334.430
181.40	-179.778
181.77	65.771
182.14	-44.958
182.51	1006.872
182.88	102.630
183.25	126.403
183.62	-130.220
183.99	95.231
184.36	172.197
184.73	-91.613
185.10	229.185
185.46	-70.298
185.83	36.744
186.20	67.078
186.57	264.063
186.94	80.963
187.31	17.682
187.68	-4049.392
188.05	-112.542
188.42	-6.135
188.78	132.342
189.15	84.991
189.52	72.612
189.89	49.042
190.26	43.820
190.63	37.765
191.00	53.738
191.37	29.659
191.73	31.227
192.10	-19.509
192.47	-27.701
192.84	-198.858
193.21	-434.716
193.58	-495.452
193.94	-497.576
194.31	-247.963
194.68	-114.716
195.05	-135.482
195.42	-159.590
195.79	-133.814
196.15	-59.567
196.52	-22.320
196.89	-10.842
197.26	-5.347
197.63	-16.675
198.00	5.733
198.36	13.900
198.73	77.795
199.10	32.431
199.47	24.522
199.84	21.253
200.20	-34.003
200.57	-34.211
200.94	0.621
201.31	12.824
201.68	26.349
202.04	31.064
202.41	23.647
202.78	26.066
203.15	28.789
203.51	34.715
203.88	26.675
204.25	38.296
204.62	29.593
204.98	28.694
205.35	29.394
205.72	23.222
206.09	-37.631
206.46	-10.974
206.82	-49.958
207.19	-65.108
207.56	-64.292
207.92	-39.203
208.29	-45.776
208.66	-34.823
209.03	-67.404
209.39	-35.196
209.76	-24.268
210.13	12.858
210.50	18.907
210.86	28.108
211.23	47.262
211.60	28.862
211.96	28.066
212.33	41.847
212.70	-1385.717
213.07	-122.047
213.43	-109.381
213.80	-215.072
214.17	52.333
214.53	342.837
214.90	-6.632
215.27	-8.190
215.63	-76.196
216.00	-72.251
216.37	-43.775
216.74	-36.090
217.10	-33.653
217.47	-42.473
217.84	-38.894
218.20	-35.687
218.57	-30.986
218.94	-36.933
219.30	-26.082
219.67	-7.244
220.04	1.217
220.40	3.024
220.77	4.127
221.13	6.262
221.50	16.208
221.87	16.185
222.23	21.024
222.60	17.661
222.97	7.540
223.33	7.098
223.70	5.265
224.07	2.716
224.43	1.912
224.80	4.053
225.16	4.431
225.53	1.954
225.90	4.875
226.26	4.660
226.63	2.777
226.99	4.237
227.36	4.910
227.73	3.524
228.09	2.095
228.46	3.689
228.82	3.351
229.19	3.841
229.56	2.963
229.92	1.803
230.29	2.423
230.65	4.636
231.02	4.541
231.38	5.547
231.75	7.100
232.12	9.075
232.48	7.203
232.85	8.894
233.21	9.245
233.58	10.684
233.94	10.962
234.31	10.094
234.68	6.850
235.04	8.962
235.41	6.556
235.77	4.655
236.14	5.147
236.50	8.379
236.87	6.901
237.23	6.393
237.60	5.031
237.96	5.503
238.33	4.654
238.69	6.062
239.06	4.656
239.42	4.525
239.79	5.436
240.15	5.795
240.52	4.948
240.88	4.782
241.25	4.607
241.61	4.501
241.98	3.912
242.34	3.891
242.71	3.870
243.07	3.998
243.44	4.548
243.80	4.525
244.17	3.892
244.53	3.328
244.90	3.425
245.26	3.589
245.63	3.673
245.99	3.826
246.36	3.839
246.72	3.623
247.09	3.548
247.45	3.283
247.81	3.177
248.18	3.378
248.54	3.676
248.91	3.588
249.27	3.551
249.64	3.890
250.00	3.996
250.36	4.222
250.73	4.216
251.09	4.067
251.46	4.025
251.82	3.993
252.19	3.793
252.55	4.315
252.91	4.501
253.28	4.237
253.64	4.011
254.01	3.273
254.37	3.306
254.73	3.377
255.10	3.266
255.46	3.575
255.83	3.597
256.19	3.653
256.55	3.384
256.92	3.269
257.28	3.434
257.65	3.376
258.01	3.664
258.37	3.641
258.74	3.600
259.10	4.024
259.46	3.922
259.83	4.028
260.19	4.024
260.55	3.936
260.92	3.922
261.28	3.717
261.64	3.956
262.01	3.506
262.37	3.183
262.73	3.251
263.10	2.626
263.46	2.860
263.82	2.652
264.19	2.422
264.55	2.525
264.91	2.669
265.28	3.042
265.64	2.463
266.00	2.408
266.37	3.149
266.73	3.156
267.09	2.959
267.46	2.431
267.82	2.774
268.18	3.113
268.54	3.334
268.91	3.658
269.27	3.407
269.63	3.651
270.00	3.791
270.36	3.438
270.72	3.363
271.08	3.398
271.45	3.682
271.81	3.658
272.17	3.682
272.53	3.674
272.90	3.411
273.26	3.557
273.62	3.764
273.98	3.870
274.35	3.975
274.71	3.918
275.07	4.361
275.43	4.352
275.80	4.100
276.16	4.177
276.52	4.063
276.88	4.326
277.25	4.174
277.61	3.989
277.97	4.051
278.33	4.058
278.69	4.284
279.06	4.090
279.42	4.109
279.78	4.275
280.14	4.128
280.50	4.164
280.87	4.082
281.23	4.068
281.59	4.163
281.95	4.095
282.31	3.978
282.68	3.939
283.04	4.017
283.40	3.895
283.76	4.022
284.12	4.027
284.48	3.776
284.85	3.687
285.21	3.794
285.57	3.782
285.93	3.943
286.29	3.878
286.65	3.818
287.02	3.871
287.38	3.902
287.74	3.716
288.10	3.595
288.46	3.659
288.82	3.553
289.18	3.305
289.54	3.051
289.91	2.822
290.27	2.996
290.63	3.091
290.99	2.768
291.35	2.779
291.71	2.462
292.07	2.517
292.43	2.706
292.79	2.878
293.16	3.141
293.52	3.371
293.88	3.496
294.24	3.353
294.60	3.343
294.96	3.364
295.32	3.466
295.68	3.557
296.04	3.748
296.40	3.693
296.76	3.550
297.12	3.552
297.49	3.754
297.85	3.797
298.21	3.988
298.57	4.007
298.93	4.206
299.29	4.211
299.65	4.340
300.01	4.135
300.37	4.108
300.73	4.113
301.09	3.978
301.45	3.774
301.81	3.821
302.17	3.711
302.53	3.570
302.89	3.608
303.25	3.669
303.61	3.570
303.97	3.839
304.33	3.991
304.69	4.269
305.05	4.269
305.41	4.296
305.77	4.150
306.13	4.186
306.49	4.474
306.85	4.555
307.21	4.415
307.57	4.516
307.93	4.395
308.29	4.391
308.65	4.121
309.01	4.114
309.37	4.157
309.73	4.350
310.09	4.293
310.45	4.181
310.81	4.103
311.17	4.097
311.53	4.059
311.89	4.157
312.25	4.106
312.61	4.306
312.96	4.352
313.32	4.293
313.68	4.094
314.04	4.235
314.40	4.188
314.76	4.205
315.12	4.401
315.48	4.544
315.84	4.216
316.20	4.151
316.56	4.106
316.92	4.080
317.27	4.008
317.63	4.066
317.99	3.935
318.35	4.009
318.71	4.062
319.07	4.060
319.43	3.919
319.79	4.052
320.15	4.160
320.50	4.235
320.86	4.229
321.22	4.313
321.58	4.184
321.94	4.247
322.30	4.402
322.66	4.385
323.01	4.221
323.37	4.311
323.73	4.255
324.09	4.438
324.45	4.356
324.81	4.392
325.17	4.424
325.52	4.614
325.88	4.590
326.24	4.412
326.60	4.348
326.96	4.474
327.31	4.407
327.67	4.596
328.03	4.429
328.39	4.334
328.75	4.448
329.11	4.431
329.46	4.423
329.82	4.485
330.18	4.589
330.54	4.633
330.90	4.588
331.25	4.626
331.61	4.468
331.97	4.396
332.33	4.528
332.68	4.498
333.04	4.471
333.40	4.486
333.76	4.559
334.11	4.551
334.47	4.594
334.83	4.640
335.19	4.692
335.54	4.687
335.90	4.693
336.26	4.639
336.62	4.683
336.97	4.590
337.33	4.554
337.69	4.426
338.05	4.475
338.40	4.452
338.76	4.447
339.12	4.359
339.48	4.423
339.83	4.489
340.19	4.527
340.55	4.526
340.90	4.655
341.26	4.689
341.62	4.703
341.97	4.643
342.33	4.635
342.69	4.614
343.04	4.670
343.40	4.743
343.76	4.745
344.12	4.825
344.47	4.751
344.83	4.713
345.19	4.707
345.54	4.695
345.90	4.626
346.26	4.649
346.61	4.600
346.97	4.712
347.32	4.621
347.68	4.699
348.04	4.688
348.39	4.741
348.75	4.785
349.11	4.756
349.46	4.848
349.82	4.872
350.18	4.963
350.53	5.077
350.89	4.970
351.24	5.025
351.60	4.942
351.96	4.898
352.31	4.852
352.67	4.837
353.02	4.889
353.38	4.916
353.74	4.967
354.09	4.821
354.45	4.723
354.80	4.736
355.16	4.765
355.52	4.816
355.87	4.789
356.23	4.872
356.58	4.872
356.94	4.866
357.29	4.803
357.65	4.814
358.00	4.900
358.36	4.953
358.72	4.845
359.07	4.783
359.43	4.772
359.78	4.915
360.14	4.881
360.49	4.894
360.85	4.870
361.20	4.901
361.56	4.885
361.91	4.931
362.27	4.972
362.62	5.045
362.98	5.130
363.33	5.178
363.69	5.116
364.04	5.131
364.40	5.162
364.75	5.189
365.11	5.176
365.46	5.210
365.82	5.150
366.17	5.117
366.53	5.154
366.88	5.103
367.24	5.100
367.59	5.077
367.95	5.072
368.30	5.042
368.66	5.091
369.01	5.125
369.37	5.116
369.72	5.146
370.08	5.170
370.43	5.199
370.78	5.231
371.14	5.192
371.49	5.224
371.85	5.298
372.20	5.376
372.56	5.364
372.91	5.349
373.26	5.414
373.62	5.396
373.97	5.415
374.33	5.406
374.68	5.423
375.03	5.428
375.39	5.387
375.74	5.317
376.10	5.312
376.45	5.358
376.80	5.393
377.16	5.353
377.51	5.390
377.87	5.422
378.22	5.417
378.57	5.412
378.93	5.469
379.28	5.525
379.63	5.611
379.99	5.630
380.34	5.608
380.70	5.682
381.05	5.718
381.40	5.741
381.76	5.734
382.11	5.782
382.46	5.813
382.82	5.787
383.17	5.787
383.52	5.784
383.88	5.800
384.23	5.810
384.58	5.816
384.94	5.810
385.29	5.854
385.64	5.889
385.99	5.890
386.35	5.944
386.70	5.947
387.05	5.992
387.41	6.031
387.76	6.008
388.11	6.024
388.47	5.982
388.82	6.044
389.17	6.036
389.52	6.038
389.88	6.106
390.23	6.099
390.58	6.142
390.93	6.189
391.29	6.251
391.64	6.304
391.99	6.348
392.34	6.408
392.70	6.465
393.05	6.524
393.40	6.576
393.75	6.546
394.11	6.538
394.46	6.540
394.81	6.545
395.16	6.522
395.52	6.552
395.87	6.572
396.22	6.601
396.57	6.561
396.92	6.550
397.28	6.566
397.63	6.602
397.98	6.673
398.33	6.751
398.68	6.788
399.04	6.758
399.39	6.773
399.74	6.790
400.09	6.802
400.44	6.815
400.80	6.835
401.15	6.849
401.50	6.891
401.85	6.880
402.20	6.886
402.55	6.895
402.90	6.963
403.26	6.995
403.61	7.020
403.96	7.013
404.31	7.095
404.66	7.137
405.01	7.189
405.36	7.220
405.72	7.300
406.07	7.342
406.42	7.409
406.77	7.460
407.12	7.492
407.47	7.510
407.82	7.572
408.17	7.561
408.53	7.598
408.88	7.612
409.23	7.610
409.58	7.626
409.93	7.669
410.28	7.653
410.63	7.648
410.98	7.667
411.33	7.691
411.68	7.694
412.03	7.698
412.38	7.701
412.73	7.712
413.09	7.702
413.44	7.692
413.79	7.698
414.14	7.720
414.49	7.716
414.84	7.729
415.19	7.722
415.54	7.737
415.89	7.706
416.24	7.694
416.59	7.680
416.94	7.700
417.29	7.683
417.64	7.674
417.99	7.660
418.34	7.676
418.69	7.649
419.04	7.636
419.39	7.640
419.74	7.667
420.09	7.680
420.44	7.671
420.79	7.689
421.14	7.713
421.49	7.728
421.84	7.734
422.19	7.736
422.54	7.765
422.89	7.798
423.24	7.804
423.59	7.841
423.94	7.874
424.29	7.926
424.64	7.951
424.99	7.995
425.34	8.023
425.68	8.084
426.03	8.135
426.38	8.187
426.73	8.230
427.08	8.272
427.43	8.272
427.78	8.259
428.13	8.294
428.48	8.327
428.83	8.327
429.18	8.319
429.53	8.339
429.87	8.331
430.22	8.324
430.57	8.354
430.92	8.350
431.27	8.364
431.62	8.395
431.97	8.381
432.32	8.385
432.67	8.407
433.01	8.439
433.36	8.422
433.71	8.441
434.06	8.475
434.41	8.482
434.76	8.510
435.11	8.545
435.45	8.560
435.80	8.567
436.15	8.570
436.50	8.559
436.85	8.556
437.20	8.558
437.54	8.559
437.89	8.546
438.24	8.530
438.59	8.531
438.94	8.520
439.29	8.525
439.63	8.515
439.98	8.517
440.33	8.519
440.68	8.533
441.03	8.554
441.37	8.559
441.72	8.579
442.07	8.600
442.42	8.605
442.76	8.606
443.11	8.583
443.46	8.588
443.81	8.587
444.16	8.583
444.50	8.578
444.85	8.573
445.20	8.581
445.55	8.572
445.89	8.557
446.24	8.559
446.59	8.574
446.94	8.607
447.28	8.644
447.63	8.651
447.98	8.672
448.32	8.707
448.67	8.725
449.02	8.741
449.37	8.770
449.71	8.823
450.06	8.866
450.41	8.870
450.75	8.874
451.10	8.879
451.45	8.904
451.79	8.941
452.14	8.941
452.49	8.965
452.84	8.966
453.18	8.975
453.53	8.966
453.88	8.968
454.22	8.971
454.57	8.971
454.92	8.965
455.26	8.954
455.61	8.934
455.95	8.923
456.30	8.915
456.65	8.911
456.99	8.906
457.34	8.916
457.69	8.922
458.03	8.941
458.38	8.965
458.73	9.007
459.07	9.039
459.42	9.095
459.76	9.139
460.11	9.186
460.46	9.246
460.80	9.299
461.15	9.352
461.49	9.380
461.84	9.430
462.19	9.473
462.53	9.510
462.88	9.545
463.22	9.561
463.57	9.618
463.91	9.650
464.26	9.695
464.61	9.702
464.95	9.743
465.30	9.791
465.64	9.820
465.99	9.861
466.33	9.874
466.68	9.895
467.02	9.899
467.37	9.880
467.71	9.883
468.06	9.862
468.41	9.893
468.75	9.888
469.10	9.919
469.44	9.943
469.79	9.946
470.13	9.953
470.48	10.007
470.82	10.065
471.17	10.074
471.51	10.089
471.86	10.146
472.20	10.142
472.55	10.164
472.89	10.134
473.23	10.138
473.58	10.114
473.92	10.109
474.27	10.082
474.61	10.049
474.96	10.043
475.30	10.036
475.65	10.006
475.99	10.016
476.34	9.991
476.68	9.992
477.02	9.982
477.37	9.994
477.71	9.994
478.06	9.951
478.40	9.941
478.75	9.966
479.09	9.998
479.43	10.043
479.78	10.075
480.12	10.135
480.47	10.211
480.81	10.292
481.15	10.366
481.50	10.447
481.84	10.581
482.19	10.707
482.53	10.797
482.87	10.811
483.22	10.749
483.56	10.630
483.90	10.494
484.25	10.389
484.59	10.328
484.94	10.266
485.28	10.187
485.62	10.068
485.97	9.940
486.31	9.843
486.65	9.817
487.00	9.877
487.34	10.019
487.68	10.173
488.03	10.273
488.37	10.303
488.71	10.343
489.06	10.373
489.40	10.401
489.74	10.431
490.09	10.471
490.43	10.516
490.77	10.547
491.11	10.588
491.46	10.632
491.80	10.677
492.14	10.717
492.49	10.760
492.83	10.817
493.17	10.881
493.51	10.941
493.86	11.003
494.20	11.053
494.54	11.116
494.88	11.178
495.23	11.233
495.57	11.277
495.91	11.341
496.25	11.384
496.60	11.455
496.94	11.513
497.28	11.585
497.62	11.634
497.97	11.730
498.31	11.825
498.65	11.907
498.99	12.004
499.33	12.132
499.68	12.243
500.02	12.335
500.36	12.437
500.70	12.548
501.04	12.641
501.39	12.760
501.73	12.827
502.07	12.915
502.41	13.010
502.75	13.089
503.09	13.166
503.44	13.228
503.78	13.345
504.12	13.436
504.46	13.528
504.80	13.632
505.14	13.711
505.49	13.826
505.83	13.921
506.17	14.001
506.51	14.098
506.85	14.166
507.19	14.269
507.53	14.339
507.87	14.418
508.22	14.502
508.56	14.594
508.90	14.686
509.24	14.770
509.58	14.859
509.92	14.973
510.26	15.046
510.60	15.171
510.94	15.260
511.28	15.356
511.63	15.461
511.97	15.548
512.31	15.636
512.65	15.736
512.99	15.848
513.33	15.949
513.67	16.002
514.01	16.099
514.35	16.146
514.69	16.226
515.03	16.304
515.37	16.374
515.71	16.431
516.05	16.474
516.39	16.521
516.73	16.541
517.07	16.580
517.41	16.653
517.75	16.718
518.09	16.782
518.43	16.842
518.77	16.897
519.11	16.932
519.45	16.996
519.79	17.075
520.13	17.142
520.47	17.203
520.81	17.269
521.15	17.313
521.49	17.332
521.83	17.359
522.17	17.372
522.51	17.377
522.85	17.399
523.19	17.422
523.53	17.461
523.87	17.510
524.21	17.571
524.55	17.625
524.89	17.674
525.23	17.732
525.57	17.791
525.91	17.840
526.25	17.893
526.58	17.949
526.92	17.987
527.26	18.013
527.60	18.023
527.94	18.024
528.28	18.006
528.62	17.997
528.96	17.991
529.30	17.977
529.64	17.974
529.97	17.948
530.31	17.914
530.65	17.884
530.99	17.857
531.33	17.850
531.67	17.856
532.01	17.876
532.35	17.894
532.68	17.900
533.02	17.906
533.36	17.897
533.70	17.913
534.04	17.928
534.38	17.954
534.71	17.980
535.05	17.978
535.39	17.972
535.73	17.973
536.07	17.961
536.41	17.967
536.74	17.954
537.08	17.964
537.42	17.978
537.76	17.981
538.10	17.983
538.43	17.980
538.77	17.992
539.11	18.001
539.45	18.000
539.79	18.001
540.12	17.978
540.46	17.979
540.80	17.953
541.14	17.946
541.47	17.922
541.81	17.907
542.15	17.892
542.49	17.890
542.82	17.890
543.16	17.885
543.50	17.898
543.84	17.914
544.17	17.910
544.51	17.941
544.85	17.955
545.18	17.976
545.52	17.994
545.86	18.033
546.20	18.047
546.53	18.068
546.87	18.088
547.21	18.085
547.54	18.112
547.88	18.161
548.22	18.187
548.55	18.172
548.89	18.177
549.23	18.183
549.56	18.185
549.90	18.178
550.24	18.159
550.57	18.132
550.91	18.142
551.25	18.145
551.58	18.134
551.92	18.117
552.26	18.138
552.59	18.144
552.93	18.171
553.27	18.169
553.60	18.172
553.94	18.170
554.27	18.196
554.61	18.176
554.95	18.200
555.28	18.198
555.62	18.183
555.95	18.181
556.29	18.181
556.63	18.168
556.96	18.134
557.30	18.121
557.63	18.097
557.97	18.087
558.31	18.086
558.64	18.034
558.98	17.982
559.31	17.968
559.65	17.940
559.98	17.919
560.32	17.876
560.65	17.856
560.99	17.809
561.33	17.792
561.66	17.748
562.00	17.701
562.33	17.645
562.67	17.644
563.00	17.611
563.34	17.593
563.67	17.568
564.01	17.553
564.34	17.530
564.68	17.519
565.01	17.500
565.35	17.508
565.68	17.497
566.02	17.488
566.35	17.479
566.69	17.468
567.02	17.426
567.36	17.416
567.69	17.347
568.03	17.304
568.36	17.271
568.69	17.261
569.03	17.207
569.36	17.184
569.70	17.160
570.03	17.123
570.37	17.108
570.70	17.090
571.04	17.065
571.37	17.046
571.70	17.048
572.04	17.004
572.37	16.973
572.71	16.973
573.04	16.948
573.37	16.951
573.71	16.935
574.04	16.920
574.38	16.922
574.71	16.923
575.04	16.977
575.38	16.977
575.71	17.023
576.05	17.053
576.38	17.047
576.71	17.041
577.05	17.072
577.38	17.074
577.71	17.097
578.05	17.093
578.38	17.097
578.71	17.052
579.05	17.021
579.38	17.012
579.71	16.968
580.05	16.955
580.38	16.990
580.71	16.953
581.05	16.917
581.38	16.881
581.71	16.869
582.05	16.824
582.38	16.801
582.71	16.788
583.04	16.751
583.38	16.724
583.71	16.696
584.04	16.657
584.38	16.617
584.71	16.619
585.04	16.594
585.37	16.547
585.71	16.546
586.04	16.539
586.37	16.539
586.70	16.500
587.04	16.482
587.37	16.472
587.70	16.439
588.03	16.379
588.37	16.364
588.70	16.342
589.03	16.321
589.36	16.282
589.69	16.232
590.03	16.174
590.36	16.176
590.69	16.117
591.02	16.071
591.35	16.019
591.69	15.998
592.02	15.919
592.35	15.868
592.68	15.810
593.01	15.749
593.35	15.705
593.68	15.633
594.01	15.568
594.34	15.558
594.67	15.496
595.00	15.443
595.34	15.415
595.67	15.383
596.00	15.340
596.33	15.346
596.66	15.329
596.99	15.342
597.32	15.372
597.65	15.346
597.99	15.295
598.32	15.317
598.65	15.286
598.98	15.248
599.31	15.218
599.64	15.193
599.97	15.129
600.30	15.089
600.63	15.004
600.96	14.963
601.30	14.936
601.63	14.908
601.96	14.836
602.29	14.819
602.62	14.799
602.95	14.796
603.28	14.757
603.61	14.730
603.94	14.690
604.27	14.684
604.60	14.667
604.93	14.652
605.26	14.630
605.59	14.604
605.92	14.607
606.25	14.601
606.58	14.573
606.91	14.537
607.24	14.512
607.57	14.480
607.90	14.446
608.23	14.389
608.56	14.376
608.89	14.356
609.22	14.356
609.55	14.350
609.88	14.335
610.21	14.291
610.54	14.297
610.87	14.292
611.20	14.313
611.53	14.305
611.86	14.320
612.19	14.303
612.52	14.280
612.85	14.286
613.18	14.260
613.51	14.206
613.84	14.202
614.17	14.219
614.49	14.231
614.82	14.261
615.15	14.279
615.48	14.268
615.81	14.232
616.14	14.242
616.47	14.217
616.80	14.189
617.13	14.207
617.46	14.190
617.78	14.114
618.11	14.092
618.44	14.026
618.77	13.996
619.10	13.962
619.43	13.967
619.76	13.920
620.09	13.889
620.41	13.838
620.74	13.816
621.07	13.790
621.40	13.794
621.73	13.751
622.06	13.740
622.38	13.719
622.71	13.691
623.04	13.652
623.37	13.689
623.70	13.652
624.02	13.664
624.35	13.610
624.68	13.610
625.01	13.569
625.34	13.594
625.66	13.575
625.99	13.566
626.32	13.555
626.65	13.566
626.98	13.532
627.30	13.560
627.63	13.531
627.96	13.546
628.29	13.551
628.61	13.579
628.94	13.519
629.27	13.504
629.60	13.464
629.92	13.459
630.25	13.404
630.58	13.371
630.91	13.344
631.23	13.306
631.56	13.309
631.89	13.268
632.21	13.281
632.54	13.277
632.87	13.263
633.19	13.253
633.52	13.205
633.85	13.219
634.18	13.217
634.50	13.195
634.83	13.203
635.16	13.150
635.48	13.130
635.81	13.080
636.14	13.032
636.46	13.003
636.79	12.998
637.11	13.029
637.44	13.006
637.77	12.962
638.09	12.909
638.42	12.880
638.75	12.843
639.07	12.790
639.40	12.767
639.73	12.788
640.05	12.773
640.38	12.767
640.70	12.726
641.03	12.713
641.36	12.723
641.68	12.751
642.01	12.785
642.33	12.859
642.66	12.884
642.98	12.890
643.31	12.860
643.64	12.937
643.96	12.927
644.29	12.950
644.61	12.918
644.94	12.924
645.26	12.968
645.59	13.007
645.91	12.984
646.24	13.020
646.56	13.003
646.89	13.023
647.22	12.948
647.54	12.906
647.87	12.909
648.19	12.919
648.52	12.933
648.84	12.848
649.17	12.834
649.49	12.767
649.82	12.733
650.14	12.726
650.47	12.669
650.79	12.651
651.11	12.650
651.44	12.590
651.76	12.632
652.09	12.582
652.41	12.622
652.74	12.547
653.06	12.569
653.39	12.557
653.71	12.580
654.04	12.650
654.36	12.688
654.68	12.708
655.01	12.718
655.33	12.725
655.66	12.734
655.98	12.737
656.30	12.757
656.63	12.749
656.95	12.731
657.28	12.660
657.60	12.626
657.92	12.563
658.25	12.550
658.57	12.524
658.90	12.463
659.22	12.427
659.54	12.360
659.87	12.311
660.19	12.266
660.51	12.260
660.84	12.269
661.16	12.218
661.48	12.245
661.81	12.210
662.13	12.232
662.45	12.237
662.78	12.195
663.10	12.177
663.42	12.171
663.75	12.190
664.07	12.209
664.39	12.243
664.72	12.270
665.04	12.261
665.36	12.227
665.69	12.205
666.01	12.204
666.33	12.232
666.65	12.291
666.98	12.275
667.30	12.284
667.62	12.234
667.94	12.225
668.27	12.200
668.59	12.188
668.91	12.271
669.23	12.299
669.56	12.268
669.88	12.212
670.20	12.170
670.52	12.183
670.85	12.172
671.17	12.186
671.49	12.163
671.81	12.170
672.13	12.143
672.46	12.060
672.78	12.028
673.10	12.029
673.42	12.090
673.74	12.087
674.07	12.127
674.39	12.180
674.71	12.184
675.03	12.237
675.35	12.270
675.67	12.259
676.00	12.310
676.32	12.339
676.64	12.353
676.96	12.426
677.28	12.472
677.60	12.462
677.92	12.440
678.25	12.452
678.57	12.404
678.89	12.390
679.21	12.406
679.53	12.409
679.85	12.385
680.17	12.418
680.49	12.340
680.81	12.306
681.13	12.343
681.46	12.308
681.78	12.335
682.10	12.389
682.42	12.395
682.74	12.398
683.06	12.416
683.38	12.472
683.70	12.501
684.02	12.528
684.34	12.587
684.66	12.600
684.98	12.666
685.30	12.717
685.62	12.785
685.94	12.785
686.26	12.821
686.58	12.846
686.90	12.870
687.22	12.831
687.54	12.890
687.86	12.814
688.18	12.850
688.50	12.843
688.82	12.812
689.14	12.756
689.46	12.761
689.78	12.791
690.10	12.844
690.42	12.773
690.74	12.794
691.06	12.778
691.38	12.791
691.70	12.653
692.02	12.546
692.34	12.501
692.66	12.439
692.98	12.472
693.30	12.483
693.62	12.416
693.94	12.501
694.26	12.485
694.57	12.449
694.89	12.477
695.21	12.528
695.53	12.603
695.85	12.589
696.17	12.580
696.49	12.497
696.81	12.486
697.13	12.531
697.44	12.511
697.76	12.531
698.08	12.537
698.40	12.497
698.72	12.423
699.04	12.364
699.36	12.334
699.67	12.263
699.99	12.311
700.31	12.195
700.63	12.019
700.95	11.911
701.27	11.725
701.58	11.632
701.90	11.596
702.22	11.591
702.54	11.690
702.86	11.711
703.17	11.775
703.49	11.759
703.81	11.861
704.13	11.913
704.45	11.928
704.76	12.046
705.08	12.081
705.40	12.119
705.72	12.227
706.03	12.175
706.35	12.175
706.67	12.218
706.99	12.129
707.30	12.093
707.62	12.150
707.94	12.259
708.26	12.199
708.57	12.260
708.89	12.315
709.21	12.230
709.53	12.242
709.84	12.320
710.16	12.302
710.48	12.375
710.79	12.370
711.11	12.318
711.43	12.293
711.74	12.308
712.06	12.326
712.38	12.312
712.69	12.415
713.01	12.479
713.33	12.478
713.64	12.557
713.96	12.680
714.28	12.694
714.59	12.808
714.91	12.886
715.23	13.024
715.54	12.988
715.86	13.127
716.17	13.131
716.49	13.096
716.81	13.152
717.12	13.083
717.44	13.042
717.76	13.156
718.07	13.067
718.39	12.945
718.70	12.936
719.02	13.021
719.33	12.876
719.65	12.822
719.97	12.943
720.28	12.881
720.60	13.001
720.91	13.000
721.23	12.972
721.54	13.016
721.86	13.078
722.17	13.113
722.49	13.196
722.81	13.257
723.12	13.271
723.44	13.322
723.75	13.340
724.07	13.300
724.38	13.417
724.70	13.380
725.01	13.400
725.33	13.447
725.64	13.460
725.96	13.281
726.27	13.379
726.59	13.472
726.90	13.314
727.22	13.339
727.53	13.322
727.84	13.180
728.16	13.219
728.47	13.263
728.79	13.185
729.10	13.005
729.42	13.100
729.73	13.012
730.05	12.971
730.36	12.932
730.67	12.859
730.99	12.796
731.30	12.683
731.62	12.657
731.93	12.672
732.24	12.565
732.56	12.670
732.87	12.513
733.19	12.438
733.50	12.364
733.81	12.320
734.13	12.225
734.44	12.204
734.76	12.302
735.07	12.250
735.38	12.068
735.70	12.070
736.01	12.073
736.32	12.123
736.64	12.092
736.95	11.961
737.26	12.029
737.58	12.007
737.89	12.014
738.20	11.964
738.52	11.791
738.83	11.773
739.14	11.822
739.45	11.656
739.77	11.588
740.08	11.624
740.39	11.575
740.71	11.448
741.02	11.450
741.33	11.444
741.64	11.154
741.96	11.204
742.27	11.152
742.58	11.034
742.90	11.101
743.21	11.047
743.52	10.961
743.83	10.996
744.14	10.929
744.46	10.792
744.77	10.752
745.08	11.076
745.39	11.172
745.71	11.310
746.02	11.291
746.33	11.233
746.64	11.418
746.95	11.427
747.27	11.383
747.58	11.533
747.89	11.628
748.20	11.609
748.51	11.553
748.82	11.390
749.14	11.156
749.45	11.247
749.76	11.105
750.07	11.038
750.38	11.046
750.69	11.165
751.01	11.022
751.32	10.955
751.63	10.896
751.94	11.032
752.25	11.321
752.56	11.309
752.87	11.456
753.18	11.554
753.49	11.448
753.81	11.468
754.12	11.564
754.43	11.752
754.74	11.956
755.05	12.163
755.36	12.029
755.67	12.055
755.98	12.539
756.29	12.580
756.60	12.790
756.91	13.120
757.22	13.519
757.53	13.697
757.84	13.922
758.15	14.193
758.46	14.251
758.77	14.675
759.09	14.794
759.40	14.793
759.71	14.872
760.02	15.086
760.33	15.212
760.64	15.040
760.95	15.187
761.26	15.086
761.57	14.970
761.88	15.083
762.18	15.052
762.49	15.021
762.80	14.985
763.11	14.947
763.42	14.825
763.73	14.524
764.04	14.451
764.35	14.152
764.66	14.025
764.97	13.990
765.28	13.670
765.59	13.317
765.90	13.077
766.21	12.782
766.52	12.409
766.83	12.253
767.14	12.215
767.44	11.920
767.75	11.633
768.06	11.397
768.37	11.222
768.68	11.200
768.99	11.118
769.30	10.900
769.61	10.745
769.91	10.682
770.22	10.366
770.53	10.271
770.84	10.177
771.15	10.248
771.46	10.338
771.77	10.254
772.07	10.089
772.38	10.081
772.69	10.126
773.00	9.983
773.31	10.183
773.61	10.062
773.92	10.183
774.23	10.517
774.54	10.490
774.85	10.541
775.15	10.440
775.46	10.482
775.77	10.289
776.08	10.191
776.39	10.476
776.69	10.451
777.00	10.800
777.31	10.794
777.62	10.540
777.92	10.890
778.23	10.686
778.54	10.895
778.85	10.998
779.15	11.223
779.46	11.476
779.77	11.310
780.07	11.132
780.38	11.049
780.69	10.887
781.00	11.124
781.30	10.999
781.61	11.364
781.92	11.288
782.22	11.137
782.53	11.311
782.84	11.225
783.14	11.389
783.45	11.721
783.76	11.722
784.06	11.919
784.37	11.911
784.68	11.905
784.98	11.790
785.29	11.924
785.60	12.351
785.90	12.357
786.21	12.465
786.51	12.808
786.82	12.584
787.13	12.747
787.43	12.695
787.74	12.881
788.04	12.928
788.35	13.129
788.66	12.911
788.96	12.538
789.27	12.410
789.57	12.574
789.88	12.310
790.19	12.745
790.49	12.816
790.80	13.063
791.10	13.169
791.41	13.234
791.71	13.167
792.02	13.374
792.32	13.264
792.63	13.593
792.93	13.405
793.24	13.516
793.54	13.274
793.85	13.106
794.15	13.072
794.46	12.892
794.76	12.870
795.07	13.049
795.37	12.966
795.68	13.311
795.98	13.047
796.29	13.230
796.59	12.941
796.90	13.010
797.20	13.210
797.51	13.179
797.81	13.078
798.12	13.221
798.42	13.253
798.72	13.426
799.03	13.721
799.33	13.822
799.64	13.900
799.94	14.254
800.25	14.102
800.55	13.942
800.85	13.974
801.16	14.126
801.46	14.031
801.77	14.032
802.07	14.032
802.37	13.881
802.68	14.269
802.98	14.178
803.28	14.114
803.59	14.439
803.89	14.377
804.20	14.638
804.50	14.607
804.80	14.352
805.11	13.932
805.41	13.683
805.71	13.482
806.02	13.129
806.32	12.986
806.62	12.542
806.93	12.351
807.23	12.938
807.53	13.016
807.83	13.269
808.14	13.816
808.44	14.169
808.74	14.359
809.05	14.883
809.35	14.994
809.65	15.358
809.95	15.750
810.26	16.058
810.56	15.640
810.86	15.222
811.16	15.033
811.47	14.871
811.77	14.997
812.07	15.208
812.37	14.985
812.68	15.350
812.98	15.311
813.28	15.508
813.58	15.699
813.88	15.719
814.19	16.715
814.49	17.202
814.79	17.423
815.09	17.136
815.39	17.225
815.70	17.192
816.00	17.131
816.30	17.396
816.60	17.436
816.90	17.413
817.20	17.814
817.50	17.335
817.81	17.435
818.11	17.666
818.41	17.852
818.71	18.003
819.01	18.113
819.31	18.142
819.61	18.167
819.92	18.361
820.22	18.372
820.52	18.343
820.82	18.321
821.12	18.254
821.42	18.197
821.72	18.206
822.02	18.197
822.32	18.203
822.62	18.220
822.92	18.178
823.22	18.034
823.52	18.009
823.83	17.985
824.13	17.973
824.43	17.948
824.73	18.019
825.03	18.073
825.33	18.148
825.63	18.044
825.93	17.993
826.23	17.890
826.53	18.003
826.83	17.997
827.13	17.913
827.43	18.019
827.73	17.937
828.03	17.938
828.33	17.871
828.63	17.667
828.93	17.835
829.23	17.544
829.53	17.601
829.83	17.507
830.13	17.360
830.42	17.371
830.72	17.315
831.02	17.504
831.32	17.053
831.62	16.811
831.92	16.900
832.22	16.927
832.52	17.118
832.82	17.232
833.12	17.044
833.42	17.175
833.72	17.207
834.01	17.223
834.31	17.111
834.61	17.384
834.91	17.358
835.21	17.249
835.51	16.990
835.81	16.794
836.11	16.722
836.40	16.892
836.70	16.643
837.00	16.239
837.30	16.028
837.60	16.404
837.90	16.492
838.19	16.428
838.49	16.442
838.79	16.499
839.09	16.524
839.39	16.401
839.68	16.280
839.98	16.248
840.28	16.564
840.58	16.394
840.88	16.185
841.17	15.427
841.47	16.170
841.77	15.606
842.07	15.688
842.36	16.234
842.66	16.250
842.96	16.053
843.26	15.762
843.55	15.533
843.85	15.540
844.15	14.564
844.45	14.660
844.74	14.775
845.04	16.060
845.34	15.645
845.63	15.504
845.93	16.865
846.23	17.815
846.53	17.824
846.82	18.458
847.12	17.830
847.42	19.106
847.71	18.739
848.01	17.058
848.31	16.483
848.60	16.953
848.90	16.332
849.19	15.208
849.49	13.020
849.79	12.602
850.08	13.057
850.38	14.454
850.68	13.681
850.97	15.345
851.27	15.504
851.56	15.034
851.86	13.879
852.16	14.758
852.45	14.259
852.75	15.978
853.04	17.127
853.34	16.640
853.64	16.383
853.93	16.340
854.23	15.684
854.52	16.612
854.82	16.180
855.11	17.763
855.41	16.434
855.70	16.561
856.00	15.535
856.30	15.272
856.59	15.223
856.89	13.689
857.18	13.519
857.48	12.627
857.77	11.560
858.07	13.005
858.36	11.838
858.66	13.083
858.95	13.223
859.25	13.867
859.54	14.103
859.84	13.339
860.13	14.821
860.42	15.804
860.72	16.791
861.01	16.182
861.31	15.373
861.60	15.720
861.90	15.686
862.19	14.500
862.49	14.182
862.78	13.651
863.07	12.963
863.37	13.726
863.66	13.777
863.96	13.385
864.25	14.681
864.54	15.217
864.84	15.607
865.13	15.586
865.43	16.215
865.72	15.293
866.01	19.655
866.31	19.598
866.60	18.346
866.89	11.787
>>>>>End Spectral Data<<<<<
