OOIBase32 Version 2.0.0.6 Data File
++++++++++++++++++++++++++++++++++++
Date: 01-22-2012, 21:34:52
User: Valued Ocean Optics Customer
Spectrometer Serial Number: USB2E2917
Spectrometer Channel: Master
Integration Time (msec): 4
Spectra Averaged: 10
Boxcar Smoothing: 5
Correct for Electrical Dark: Enabled
Time Normalized: Disabled
Dual-beam Reference: Disabled
Reference Channel: Master
Temperature: Not acquired
Spectrometer Type: S2000
ADC Type: USB2000
Number of Pixels in File: 2048
Graph Title: 
>>>>>Begin Spectral Data<<<<<
180.30	0.000
180.67	0.000
181.03	64.166
181.40	36.632
181.77	-65.817
182.14	-138.626
182.51	678.778
182.88	113.800
183.25	105.273
183.62	35.808
183.99	-34.210
184.36	-299.541
184.73	-85.492
185.10	-294.813
185.46	306.236
185.83	56.540
186.20	-2.221
186.57	197.330
186.94	69.010
187.31	135.036
187.68	-3326.700
188.05	-225.507
188.42	-59.487
188.78	151.515
189.15	79.639
189.52	113.328
189.89	68.152
190.26	57.425
190.63	64.732
191.00	39.284
191.37	43.101
191.73	69.205
192.10	58.379
192.47	21.456
192.84	-50.165
193.21	-232.487
193.58	-361.821
193.94	-230.708
194.31	-48.481
194.68	-41.922
195.05	-1.533
195.42	-11.027
195.79	-20.270
196.15	25.430
196.52	47.313
196.89	48.334
197.26	59.984
197.63	54.340
198.00	89.666
198.36	59.069
198.73	128.016
199.10	26.097
199.47	26.648
199.84	21.297
200.20	-18.134
200.57	-20.210
200.94	10.980
201.31	28.074
201.68	29.459
202.04	37.416
202.41	42.531
202.78	45.893
203.15	52.553
203.51	50.358
203.88	68.417
204.25	57.804
204.62	55.084
204.98	52.307
205.35	46.746
205.72	45.260
206.09	-21.008
206.46	-19.470
206.82	-65.678
207.19	-103.445
207.56	-122.813
207.92	-167.706
208.29	-113.599
208.66	-108.801
209.03	-143.796
209.39	-89.065
209.76	-55.791
210.13	-21.599
210.50	-49.068
210.86	-76.871
211.23	-97.117
211.60	-118.310
211.96	-138.427
212.33	-278.552
212.70	8662.584
213.07	700.710
213.43	624.568
213.80	2068.703
214.17	370.282
214.53	1845.079
214.90	-237.241
215.27	-109.959
215.63	-177.927
216.00	-116.529
216.37	-52.616
216.74	-27.028
217.10	-13.739
217.47	-19.399
217.84	-14.973
218.20	-1.875
218.57	13.310
218.94	8.100
219.30	6.225
219.67	15.013
220.04	21.347
220.40	22.656
220.77	21.681
221.13	17.090
221.50	18.684
221.87	13.223
222.23	13.317
222.60	3.162
222.97	5.951
223.33	2.262
223.70	-5.705
224.07	-6.310
224.43	-5.500
224.80	-1.810
225.16	0.192
225.53	1.473
225.90	2.329
226.26	1.690
226.63	2.359
226.99	2.613
227.36	3.271
227.73	7.050
228.09	6.833
228.46	8.582
228.82	7.032
229.19	8.197
229.56	8.201
229.92	10.547
230.29	11.018
230.65	12.240
231.02	10.304
231.38	11.972
231.75	11.366
232.12	12.546
232.48	10.502
232.85	12.560
233.21	10.874
233.58	12.215
233.94	10.905
234.31	12.419
234.68	10.588
235.04	14.265
235.41	14.813
235.77	13.112
236.14	11.664
236.50	14.492
236.87	13.867
237.23	14.216
237.60	12.329
237.96	11.914
238.33	10.317
238.69	11.354
239.06	10.269
239.42	9.428
239.79	9.307
240.15	9.849
240.52	8.619
240.88	8.204
241.25	7.158
241.61	7.183
241.98	7.379
242.34	7.427
242.71	7.093
243.07	7.370
243.44	7.612
243.80	8.146
244.17	7.930
244.53	8.101
244.90	8.525
245.26	9.271
245.63	9.373
245.99	9.369
246.36	9.379
246.72	9.372
247.09	9.244
247.45	9.457
247.81	9.219
248.18	9.405
248.54	9.431
248.91	9.023
249.27	8.240
249.64	8.507
250.00	8.549
250.36	8.799
250.73	9.079
251.09	8.863
251.46	8.463
251.82	8.956
252.19	8.692
252.55	8.810
252.91	9.667
253.28	10.299
253.64	9.513
254.01	8.832
254.37	8.998
254.73	8.233
255.10	8.127
255.46	8.366
255.83	8.165
256.19	8.569
256.55	8.764
256.92	8.561
257.28	8.666
257.65	9.039
258.01	9.166
258.37	9.077
258.74	9.556
259.10	9.920
259.46	9.769
259.83	9.883
260.19	9.939
260.55	9.523
260.92	9.547
261.28	9.338
261.64	9.437
262.01	9.554
262.37	9.264
262.73	9.015
263.10	8.351
263.46	8.639
263.82	8.611
264.19	8.204
264.55	8.805
264.91	8.960
265.28	9.003
265.64	8.363
266.00	8.522
266.37	9.229
266.73	9.325
267.09	9.488
267.46	9.148
267.82	9.163
268.18	9.189
268.54	8.962
268.91	9.048
269.27	8.964
269.63	9.191
270.00	9.091
270.36	8.707
270.72	8.484
271.08	8.571
271.45	8.768
271.81	8.875
272.17	9.212
272.53	9.447
272.90	9.554
273.26	9.518
273.62	9.662
273.98	9.788
274.35	9.866
274.71	9.745
275.07	9.812
275.43	9.951
275.80	9.797
276.16	9.665
276.52	9.422
276.88	9.169
277.25	9.216
277.61	9.080
277.97	8.906
278.33	9.104
278.69	9.434
279.06	9.373
279.42	9.323
279.78	9.393
280.14	9.291
280.50	9.194
280.87	9.169
281.23	9.334
281.59	9.626
281.95	9.733
282.31	9.526
282.68	9.399
283.04	9.270
283.40	8.975
283.76	8.958
284.12	8.942
284.48	8.911
284.85	8.929
285.21	8.834
285.57	8.602
285.93	8.554
286.29	8.489
286.65	8.555
287.02	8.836
287.38	9.155
287.74	9.144
288.10	9.129
288.46	9.216
288.82	9.253
289.18	9.077
289.54	9.029
289.91	8.986
290.27	9.293
290.63	9.456
290.99	9.291
291.35	9.105
291.71	9.092
292.07	9.207
292.43	9.391
292.79	9.461
293.16	9.628
293.52	9.662
293.88	9.790
294.24	9.614
294.60	9.595
294.96	9.522
295.32	9.763
295.68	9.789
296.04	9.976
296.40	9.809
296.76	9.739
297.12	9.956
297.49	10.159
297.85	10.337
298.21	10.405
298.57	10.438
298.93	10.705
299.29	10.693
299.65	10.945
300.01	11.003
300.37	11.442
300.73	11.806
301.09	11.825
301.45	11.837
301.81	11.983
302.17	12.179
302.53	12.287
302.89	12.445
303.25	12.498
303.61	12.649
303.97	12.847
304.33	13.017
304.69	13.267
305.05	13.542
305.41	13.975
305.77	13.942
306.13	14.116
306.49	14.442
306.85	14.635
307.21	14.924
307.57	14.974
307.93	14.884
308.29	14.941
308.65	14.747
309.01	14.725
309.37	14.765
309.73	14.978
310.09	15.089
310.45	15.046
310.81	15.006
311.17	14.910
311.53	15.043
311.89	15.255
312.25	15.247
312.61	15.430
312.96	15.550
313.32	15.607
313.68	15.504
314.04	15.575
314.40	15.532
314.76	15.603
315.12	15.710
315.48	15.715
315.84	15.379
316.20	15.428
316.56	15.446
316.92	15.435
317.27	15.503
317.63	15.562
317.99	15.449
318.35	15.550
318.71	15.569
319.07	15.748
319.43	15.616
319.79	15.741
320.15	15.695
320.50	15.743
320.86	15.689
321.22	15.608
321.58	15.421
321.94	15.433
322.30	15.554
322.66	15.509
323.01	15.206
323.37	15.310
323.73	15.333
324.09	15.388
324.45	15.283
324.81	15.392
325.17	15.302
325.52	15.481
325.88	15.413
326.24	15.202
326.60	15.166
326.96	15.462
327.31	15.389
327.67	15.484
328.03	15.386
328.39	15.386
328.75	15.188
329.11	15.194
329.46	15.108
329.82	15.088
330.18	15.032
330.54	15.013
330.90	14.780
331.25	14.716
331.61	14.525
331.97	14.408
332.33	14.347
332.68	14.386
333.04	14.285
333.40	14.247
333.76	14.258
334.11	14.247
334.47	14.351
334.83	14.270
335.19	14.198
335.54	14.220
335.90	14.259
336.26	14.053
336.62	14.025
336.97	14.102
337.33	14.090
337.69	14.074
338.05	14.181
338.40	14.019
338.76	14.041
339.12	14.005
339.48	13.930
339.83	13.844
340.19	14.011
340.55	13.921
340.90	13.771
341.26	13.792
341.62	13.693
341.97	13.591
342.33	13.552
342.69	13.556
343.04	13.615
343.40	13.701
343.76	13.690
344.12	13.585
344.47	13.562
344.83	13.572
345.19	13.499
345.54	13.479
345.90	13.387
346.26	13.402
346.61	13.264
346.97	13.191
347.32	13.091
347.68	13.127
348.04	13.173
348.39	13.278
348.75	13.281
349.11	13.272
349.46	13.382
349.82	13.439
350.18	13.439
350.53	13.532
350.89	13.533
351.24	13.566
351.60	13.523
351.96	13.486
352.31	13.328
352.67	13.286
353.02	13.213
353.38	13.095
353.74	13.047
354.09	12.985
354.45	12.938
354.80	12.843
355.16	12.797
355.52	12.818
355.87	12.726
356.23	12.769
356.58	12.698
356.94	12.699
357.29	12.620
357.65	12.540
358.00	12.472
358.36	12.493
358.72	12.419
359.07	12.352
359.43	12.283
359.78	12.345
360.14	12.231
360.49	12.204
360.85	12.128
361.20	12.108
361.56	12.109
361.91	12.105
362.27	12.046
362.62	12.068
362.98	12.071
363.33	12.070
363.69	12.059
364.04	12.048
364.40	12.028
364.75	11.980
365.11	12.003
365.46	11.962
365.82	11.899
366.17	11.833
366.53	11.796
366.88	11.800
367.24	11.748
367.59	11.641
367.95	11.667
368.30	11.624
368.66	11.638
369.01	11.611
369.37	11.516
369.72	11.492
370.08	11.527
370.43	11.545
370.78	11.492
371.14	11.467
371.49	11.454
371.85	11.371
372.20	11.405
372.56	11.398
372.91	11.331
373.26	11.424
373.62	11.405
373.97	11.372
374.33	11.303
374.68	11.296
375.03	11.239
375.39	11.206
375.74	11.226
376.10	11.157
376.45	11.101
376.80	11.121
377.16	11.004
377.51	10.984
377.87	10.938
378.22	10.899
378.57	10.840
378.93	10.843
379.28	10.804
379.63	10.795
379.99	10.761
380.34	10.794
380.70	10.754
381.05	10.780
381.40	10.751
381.76	10.729
382.11	10.742
382.46	10.746
382.82	10.673
383.17	10.640
383.52	10.576
383.88	10.555
384.23	10.476
384.58	10.439
384.94	10.412
385.29	10.416
385.64	10.400
385.99	10.393
386.35	10.343
386.70	10.355
387.05	10.340
387.41	10.287
387.76	10.238
388.11	10.197
388.47	10.133
388.82	10.085
389.17	10.047
389.52	10.004
389.88	9.961
390.23	9.950
390.58	9.890
390.93	9.881
391.29	9.893
391.64	9.874
391.99	9.884
392.34	9.909
392.70	9.921
393.05	9.910
393.40	9.889
393.75	9.868
394.11	9.854
394.46	9.851
394.81	9.813
395.16	9.779
395.52	9.792
395.87	9.782
396.22	9.755
396.57	9.741
396.92	9.691
397.28	9.646
397.63	9.614
397.98	9.607
398.33	9.623
398.68	9.621
399.04	9.624
399.39	9.579
399.74	9.557
400.09	9.537
400.44	9.484
400.80	9.477
401.15	9.454
401.50	9.436
401.85	9.379
402.20	9.340
402.55	9.312
402.90	9.286
403.26	9.278
403.61	9.261
403.96	9.231
404.31	9.228
404.66	9.223
405.01	9.197
405.36	9.178
405.72	9.191
406.07	9.164
406.42	9.190
406.77	9.166
407.12	9.158
407.47	9.121
407.82	9.094
408.17	9.074
408.53	9.053
408.88	9.073
409.23	9.051
409.58	9.051
409.93	9.048
410.28	9.001
410.63	9.012
410.98	8.989
411.33	8.980
411.68	8.996
412.03	8.964
412.38	8.939
412.73	8.896
413.09	8.855
413.44	8.785
413.79	8.744
414.14	8.726
414.49	8.661
414.84	8.643
415.19	8.602
415.54	8.559
415.89	8.492
416.24	8.460
416.59	8.444
416.94	8.441
417.29	8.416
417.64	8.391
417.99	8.339
418.34	8.324
418.69	8.260
419.04	8.236
419.39	8.227
419.74	8.239
420.09	8.227
420.44	8.201
420.79	8.170
421.14	8.160
421.49	8.163
421.84	8.165
422.19	8.143
422.54	8.165
422.89	8.162
423.24	8.153
423.59	8.150
423.94	8.147
424.29	8.162
424.64	8.193
424.99	8.245
425.34	8.253
425.68	8.291
426.03	8.369
426.38	8.412
426.73	8.466
427.08	8.475
427.43	8.501
427.78	8.499
428.13	8.521
428.48	8.528
428.83	8.468
429.18	8.461
429.53	8.458
429.87	8.435
430.22	8.395
430.57	8.370
430.92	8.348
431.27	8.329
431.62	8.320
431.97	8.288
432.32	8.268
432.67	8.282
433.01	8.294
433.36	8.290
433.71	8.266
434.06	8.302
434.41	8.305
434.76	8.347
435.11	8.375
435.45	8.382
435.80	8.365
436.15	8.369
436.50	8.345
436.85	8.335
437.20	8.310
437.54	8.312
437.89	8.292
438.24	8.272
438.59	8.257
438.94	8.221
439.29	8.217
439.63	8.218
439.98	8.210
440.33	8.234
440.68	8.217
441.03	8.231
441.37	8.210
441.72	8.214
442.07	8.225
442.42	8.229
442.76	8.233
443.11	8.219
443.46	8.223
443.81	8.222
444.16	8.204
444.50	8.203
444.85	8.191
445.20	8.213
445.55	8.202
445.89	8.197
446.24	8.187
446.59	8.207
446.94	8.241
447.28	8.277
447.63	8.301
447.98	8.312
448.32	8.335
448.67	8.358
449.02	8.356
449.37	8.399
449.71	8.410
450.06	8.451
450.41	8.457
450.75	8.444
451.10	8.426
451.45	8.419
451.79	8.443
452.14	8.453
452.49	8.449
452.84	8.441
453.18	8.430
453.53	8.446
453.88	8.416
454.22	8.401
454.57	8.400
454.92	8.404
455.26	8.398
455.61	8.393
455.95	8.382
456.30	8.379
456.65	8.387
456.99	8.376
457.34	8.351
457.69	8.356
458.03	8.347
458.38	8.349
458.73	8.358
459.07	8.361
459.42	8.363
459.76	8.355
460.11	8.382
460.46	8.401
460.80	8.405
461.15	8.430
461.49	8.428
461.84	8.465
462.19	8.491
462.53	8.502
462.88	8.531
463.22	8.534
463.57	8.563
463.91	8.562
464.26	8.578
464.61	8.600
464.95	8.643
465.30	8.668
465.64	8.685
465.99	8.691
466.33	8.685
466.68	8.670
467.02	8.671
467.37	8.686
467.71	8.678
468.06	8.655
468.41	8.648
468.75	8.612
469.10	8.612
469.44	8.609
469.79	8.597
470.13	8.597
470.48	8.611
470.82	8.631
471.17	8.611
471.51	8.617
471.86	8.632
472.20	8.607
472.55	8.619
472.89	8.605
473.23	8.576
473.58	8.562
473.92	8.531
474.27	8.501
474.61	8.483
474.96	8.474
475.30	8.472
475.65	8.447
475.99	8.462
476.34	8.419
476.68	8.409
477.02	8.409
477.37	8.403
477.71	8.398
478.06	8.396
478.40	8.377
478.75	8.403
479.09	8.425
479.43	8.475
479.78	8.511
480.12	8.560
480.47	8.604
480.81	8.646
481.15	8.707
481.50	8.778
481.84	8.866
482.19	8.974
482.53	9.026
482.87	9.025
483.22	8.940
483.56	8.816
483.90	8.688
484.25	8.594
484.59	8.539
484.94	8.459
485.28	8.376
485.62	8.260
485.97	8.121
486.31	8.012
486.65	7.965
487.00	8.008
487.34	8.099
487.68	8.204
488.03	8.272
488.37	8.283
488.71	8.300
489.06	8.298
489.40	8.307
489.74	8.310
490.09	8.336
490.43	8.333
490.77	8.329
491.11	8.348
491.46	8.359
491.80	8.350
492.14	8.355
492.49	8.346
492.83	8.355
493.17	8.353
493.51	8.353
493.86	8.338
494.20	8.350
494.54	8.366
494.88	8.373
495.23	8.378
495.57	8.388
495.91	8.394
496.25	8.419
496.60	8.432
496.94	8.443
497.28	8.477
497.62	8.489
497.97	8.508
498.31	8.517
498.65	8.532
498.99	8.557
499.33	8.595
499.68	8.610
500.02	8.626
500.36	8.668
500.70	8.695
501.04	8.714
501.39	8.763
501.73	8.785
502.07	8.812
502.41	8.833
502.75	8.843
503.09	8.853
503.44	8.888
503.78	8.895
504.12	8.912
504.46	8.934
504.80	8.954
505.14	8.971
505.49	9.002
505.83	9.028
506.17	9.043
506.51	9.072
506.85	9.086
507.19	9.103
507.53	9.133
507.87	9.151
508.22	9.190
508.56	9.199
508.90	9.218
509.24	9.255
509.58	9.283
509.92	9.307
510.26	9.330
510.60	9.376
510.94	9.410
511.28	9.454
511.63	9.505
511.97	9.534
512.31	9.593
512.65	9.624
512.99	9.659
513.33	9.702
513.67	9.730
514.01	9.779
514.35	9.795
514.69	9.826
515.03	9.858
515.37	9.865
515.71	9.879
516.05	9.870
516.39	9.895
516.73	9.900
517.07	9.911
517.41	9.930
517.75	9.932
518.09	9.960
518.43	9.963
518.77	9.984
519.11	10.003
519.45	10.025
519.79	10.061
520.13	10.102
520.47	10.137
520.81	10.170
521.15	10.208
521.49	10.236
521.83	10.237
522.17	10.254
522.51	10.233
522.85	10.238
523.19	10.276
523.53	10.341
523.87	10.382
524.21	10.418
524.55	10.459
524.89	10.497
525.23	10.519
525.57	10.558
525.91	10.584
526.25	10.615
526.58	10.651
526.92	10.666
527.26	10.658
527.60	10.644
527.94	10.626
528.28	10.613
528.62	10.595
528.96	10.594
529.30	10.579
529.64	10.576
529.97	10.566
530.31	10.539
530.65	10.519
530.99	10.496
531.33	10.494
531.67	10.501
532.01	10.502
532.35	10.502
532.68	10.504
533.02	10.505
533.36	10.503
533.70	10.510
534.04	10.522
534.38	10.514
534.71	10.529
535.05	10.534
535.39	10.531
535.73	10.529
536.07	10.548
536.41	10.567
536.74	10.585
537.08	10.604
537.42	10.619
537.76	10.616
538.10	10.637
538.43	10.640
538.77	10.645
539.11	10.642
539.45	10.633
539.79	10.617
540.12	10.598
540.46	10.585
540.80	10.549
541.14	10.536
541.47	10.536
541.81	10.516
542.15	10.511
542.49	10.504
542.82	10.511
543.16	10.515
543.50	10.520
543.84	10.524
544.17	10.510
544.51	10.542
544.85	10.551
545.18	10.535
545.52	10.528
545.86	10.535
546.20	10.527
546.53	10.529
546.87	10.559
547.21	10.581
547.54	10.605
547.88	10.648
548.22	10.647
548.55	10.637
548.89	10.645
549.23	10.696
549.56	10.712
549.90	10.722
550.24	10.733
550.57	10.710
550.91	10.708
551.25	10.692
551.58	10.672
551.92	10.683
552.26	10.722
552.59	10.732
552.93	10.736
553.27	10.740
553.60	10.761
553.94	10.772
554.27	10.788
554.61	10.800
554.95	10.843
555.28	10.876
555.62	10.880
555.95	10.866
556.29	10.909
556.63	10.917
556.96	10.917
557.30	10.931
557.63	10.931
557.97	10.958
558.31	10.947
558.64	10.931
558.98	10.929
559.31	10.948
559.65	10.959
559.98	10.921
560.32	10.909
560.65	10.897
560.99	10.875
561.33	10.878
561.66	10.852
562.00	10.844
562.33	10.832
562.67	10.803
563.00	10.781
563.34	10.776
563.67	10.810
564.01	10.806
564.34	10.823
564.68	10.821
565.01	10.826
565.35	10.830
565.68	10.832
566.02	10.824
566.35	10.844
566.69	10.831
567.02	10.815
567.36	10.817
567.69	10.795
568.03	10.762
568.36	10.752
568.69	10.737
569.03	10.738
569.36	10.716
569.70	10.713
570.03	10.703
570.37	10.736
570.70	10.755
571.04	10.730
571.37	10.726
571.70	10.753
572.04	10.750
572.37	10.768
572.71	10.759
573.04	10.788
573.37	10.808
573.71	10.825
574.04	10.827
574.38	10.840
574.71	10.858
575.04	10.909
575.38	10.932
575.71	10.977
576.05	10.993
576.38	11.044
576.71	11.074
577.05	11.139
577.38	11.161
577.71	11.201
578.05	11.214
578.38	11.249
578.71	11.284
579.05	11.272
579.38	11.299
579.71	11.334
580.05	11.345
580.38	11.364
580.71	11.361
581.05	11.392
581.38	11.416
581.71	11.457
582.05	11.479
582.38	11.463
582.71	11.520
583.04	11.541
583.38	11.565
583.71	11.585
584.04	11.618
584.38	11.643
584.71	11.655
585.04	11.645
585.37	11.652
585.71	11.698
586.04	11.712
586.37	11.735
586.70	11.747
587.04	11.758
587.37	11.768
587.70	11.776
588.03	11.774
588.37	11.802
588.70	11.871
589.03	11.906
589.36	11.922
589.69	11.992
590.03	12.013
590.36	12.068
590.69	12.091
591.02	12.136
591.35	12.154
591.69	12.189
592.02	12.216
592.35	12.244
592.68	12.239
593.01	12.229
593.35	12.250
593.68	12.252
594.01	12.236
594.34	12.255
594.67	12.273
595.00	12.311
595.34	12.321
595.67	12.338
596.00	12.328
596.33	12.376
596.66	12.450
596.99	12.485
597.32	12.549
597.65	12.604
597.99	12.660
598.32	12.690
598.65	12.737
598.98	12.791
599.31	12.841
599.64	12.907
599.97	12.945
600.30	12.932
600.63	12.943
600.96	12.955
601.30	12.940
601.63	12.916
601.96	12.916
602.29	12.924
602.62	12.940
602.95	12.976
603.28	12.968
603.61	12.967
603.94	12.984
604.27	13.003
604.60	13.030
604.93	13.085
605.26	13.150
605.59	13.195
605.92	13.202
606.25	13.235
606.58	13.220
606.91	13.228
607.24	13.251
607.57	13.277
607.90	13.281
608.23	13.303
608.56	13.299
608.89	13.326
609.22	13.340
609.55	13.390
609.88	13.430
610.21	13.484
610.54	13.516
610.87	13.542
611.20	13.577
611.53	13.633
611.86	13.650
612.19	13.722
612.52	13.722
612.85	13.775
613.18	13.786
613.51	13.737
613.84	13.725
614.17	13.760
614.49	13.764
614.82	13.799
615.15	13.823
615.48	13.812
615.81	13.836
616.14	13.853
616.47	13.844
616.80	13.873
617.13	13.913
617.46	13.950
617.78	13.902
618.11	13.962
618.44	13.989
618.77	13.992
619.10	14.003
619.43	13.985
619.76	13.977
620.09	13.979
620.41	13.966
620.74	13.964
621.07	13.977
621.40	14.033
621.73	14.003
622.06	13.979
622.38	13.961
622.71	13.986
623.04	13.914
623.37	13.905
623.70	13.896
624.02	13.863
624.35	13.849
624.68	13.834
625.01	13.831
625.34	13.805
625.66	13.794
625.99	13.771
626.32	13.758
626.65	13.818
626.98	13.827
627.30	13.849
627.63	13.862
627.96	13.886
628.29	13.883
628.61	13.890
628.94	13.924
629.27	13.876
629.60	13.896
629.92	13.927
630.25	13.922
630.58	13.887
630.91	13.858
631.23	13.834
631.56	13.797
631.89	13.772
632.21	13.785
632.54	13.768
632.87	13.823
633.19	13.814
633.52	13.736
633.85	13.708
634.18	13.749
634.50	13.796
634.83	13.837
635.16	13.892
635.48	13.907
635.81	13.901
636.14	13.885
636.46	13.888
636.79	13.900
637.11	13.966
637.44	14.013
637.77	14.000
638.09	13.965
638.42	13.942
638.75	13.926
639.07	13.980
639.40	13.981
639.73	14.051
640.05	14.040
640.38	13.993
640.70	13.937
641.03	13.965
641.36	13.930
641.68	13.943
642.01	13.974
642.33	13.986
642.66	13.920
642.98	13.883
643.31	13.833
643.64	13.842
643.96	13.874
644.29	13.935
644.61	13.858
644.94	13.932
645.26	13.921
645.59	13.939
645.91	13.933
646.24	13.939
646.56	13.918
646.89	13.897
647.22	13.876
647.54	13.876
647.87	13.847
648.19	13.887
648.52	13.828
648.84	13.809
649.17	13.830
649.49	13.801
649.82	13.777
650.14	13.802
650.47	13.810
650.79	13.841
651.11	13.792
651.44	13.772
651.76	13.771
652.09	13.828
652.41	13.838
652.74	13.782
653.06	13.769
653.39	13.788
653.71	13.821
654.04	13.841
654.36	13.765
654.68	13.805
655.01	13.800
655.33	13.811
655.66	13.771
655.98	13.763
656.30	13.678
656.63	13.634
656.95	13.577
657.28	13.501
657.60	13.464
657.92	13.459
658.25	13.422
658.57	13.360
658.90	13.279
659.22	13.262
659.54	13.216
659.87	13.281
660.19	13.299
660.51	13.359
660.84	13.370
661.16	13.376
661.48	13.425
661.81	13.458
662.13	13.527
662.45	13.551
662.78	13.557
663.10	13.554
663.42	13.557
663.75	13.633
664.07	13.590
664.39	13.651
664.72	13.625
665.04	13.666
665.36	13.626
665.69	13.648
666.01	13.656
666.33	13.590
666.65	13.595
666.98	13.580
667.30	13.541
667.62	13.519
667.94	13.492
668.27	13.522
668.59	13.423
668.91	13.472
669.23	13.436
669.56	13.401
669.88	13.436
670.20	13.376
670.52	13.381
670.85	13.376
671.17	13.403
671.49	13.405
671.81	13.367
672.13	13.407
672.46	13.354
672.78	13.391
673.10	13.381
673.42	13.392
673.74	13.416
674.07	13.407
674.39	13.397
674.71	13.370
675.03	13.366
675.35	13.343
675.67	13.242
676.00	13.246
676.32	13.190
676.64	13.257
676.96	13.281
677.28	13.372
677.60	13.332
677.92	13.275
678.25	13.288
678.57	13.275
678.89	13.328
679.21	13.390
679.53	13.379
679.85	13.338
680.17	13.364
680.49	13.331
680.81	13.308
681.13	13.369
681.46	13.387
681.78	13.360
682.10	13.374
682.42	13.356
682.74	13.352
683.06	13.356
683.38	13.459
683.70	13.399
684.02	13.381
684.34	13.353
684.66	13.347
684.98	13.390
685.30	13.420
685.62	13.479
685.94	13.461
686.26	13.495
686.58	13.500
686.90	13.485
687.22	13.525
687.54	13.631
687.86	13.626
688.18	13.611
688.50	13.597
688.82	13.650
689.14	13.547
689.46	13.586
689.78	13.603
690.10	13.648
690.42	13.645
690.74	13.621
691.06	13.505
691.38	13.497
691.70	13.506
692.02	13.421
692.34	13.415
692.66	13.413
692.98	13.343
693.30	13.293
693.62	13.188
693.94	13.186
694.26	13.105
694.57	13.162
694.89	13.068
695.21	13.031
695.53	13.053
695.85	12.969
696.17	12.915
696.49	12.888
696.81	12.880
697.13	12.935
697.44	12.924
697.76	12.972
698.08	12.924
698.40	12.966
698.72	12.933
699.04	12.949
699.36	12.929
699.67	12.908
699.99	12.930
700.31	12.909
700.63	12.842
700.95	12.819
701.27	12.723
701.58	12.693
701.90	12.775
702.22	12.721
702.54	12.799
702.86	12.844
703.17	12.912
703.49	12.941
703.81	13.018
704.13	12.973
704.45	12.968
704.76	12.987
705.08	12.947
705.40	12.916
705.72	13.031
706.03	13.043
706.35	13.099
706.67	13.057
706.99	13.036
707.30	12.989
707.62	13.102
707.94	13.083
708.26	13.114
708.57	13.193
708.89	13.259
709.21	13.243
709.53	13.144
709.84	13.247
710.16	13.257
710.48	13.318
710.79	13.254
711.11	13.170
711.43	13.229
711.74	13.237
712.06	13.168
712.38	13.051
712.69	13.029
713.01	13.082
713.33	12.863
713.64	12.915
713.96	12.889
714.28	12.991
714.59	13.011
714.91	13.025
715.23	13.025
715.54	13.041
715.86	13.056
716.17	13.017
716.49	12.925
716.81	12.983
717.12	12.983
717.44	12.910
717.76	12.888
718.07	12.838
718.39	12.756
718.70	12.781
719.02	12.804
719.33	12.761
719.65	12.747
719.97	12.848
720.28	12.856
720.60	12.873
720.91	12.909
721.23	12.721
721.54	12.869
721.86	12.933
722.17	13.064
722.49	13.084
722.81	13.179
723.12	13.206
723.44	13.244
723.75	13.256
724.07	13.204
724.38	13.255
724.70	13.359
725.01	13.323
725.33	13.376
725.64	13.234
725.96	13.220
726.27	13.241
726.59	13.390
726.90	13.195
727.22	13.253
727.53	13.300
727.84	13.242
728.16	13.271
728.47	13.248
728.79	13.095
729.10	13.080
729.42	13.143
729.73	13.167
730.05	13.014
730.36	13.059
730.67	13.087
730.99	13.018
731.30	12.967
731.62	13.019
731.93	13.059
732.24	12.941
732.56	12.939
732.87	12.854
733.19	12.783
733.50	12.799
733.81	12.813
734.13	12.669
734.44	12.728
734.76	12.773
735.07	12.554
735.38	12.440
735.70	12.537
736.01	12.573
736.32	12.623
736.64	12.533
736.95	12.488
737.26	12.453
737.58	12.524
737.89	12.427
738.20	12.440
738.52	12.493
738.83	12.541
739.14	12.474
739.45	12.388
739.77	12.240
740.08	12.273
740.39	12.226
740.71	12.202
741.02	12.064
741.33	12.102
741.64	11.855
741.96	11.867
742.27	11.834
742.58	12.025
742.90	11.994
743.21	12.047
743.52	12.103
743.83	11.964
744.14	11.874
744.46	11.852
744.77	11.822
745.08	12.040
745.39	12.182
745.71	12.154
746.02	12.005
746.33	12.061
746.64	12.211
746.95	12.196
747.27	12.347
747.58	12.525
747.89	12.733
748.20	12.623
748.51	12.548
748.82	12.360
749.14	12.284
749.45	12.401
749.76	12.313
750.07	12.182
750.38	12.109
750.69	12.046
751.01	12.082
751.32	11.865
751.63	11.895
751.94	12.000
752.25	11.994
752.56	12.013
752.87	12.013
753.18	12.137
753.49	12.197
753.81	12.356
754.12	12.441
754.43	12.448
754.74	12.552
755.05	12.774
755.36	12.695
755.67	12.873
755.98	12.991
756.29	13.073
756.60	12.989
756.91	13.068
757.22	13.124
757.53	13.082
757.84	13.080
758.15	13.293
758.46	13.293
758.77	13.555
759.09	13.570
759.40	13.617
759.71	13.596
760.02	13.645
760.33	13.575
760.64	13.474
760.95	13.558
761.26	13.677
761.57	13.449
761.88	13.422
762.18	13.287
762.49	13.228
762.80	13.234
763.11	13.185
763.42	13.165
763.73	13.028
764.04	13.057
764.35	13.017
764.66	12.836
764.97	12.870
765.28	12.768
765.59	12.600
765.90	12.444
766.21	12.278
766.52	12.075
766.83	11.959
767.14	11.983
767.44	11.854
767.75	11.621
768.06	11.617
768.37	11.596
768.68	11.538
768.99	11.719
769.30	11.791
769.61	11.646
769.91	11.799
770.22	11.676
770.53	11.691
770.84	11.333
771.15	11.536
771.46	11.472
771.77	11.578
772.07	11.522
772.38	11.388
772.69	11.568
773.00	11.495
773.31	11.584
773.61	11.710
773.92	11.868
774.23	12.246
774.54	12.252
774.85	12.334
775.15	12.186
775.46	12.198
775.77	12.355
776.08	12.207
776.39	12.279
776.69	12.209
777.00	12.335
777.31	12.233
777.62	12.188
777.92	12.439
778.23	12.142
778.54	12.108
778.85	12.359
779.15	12.233
779.46	12.206
779.77	12.356
780.07	12.188
780.38	12.090
780.69	11.973
781.00	11.989
781.30	11.594
781.61	11.843
781.92	11.892
782.22	11.776
782.53	11.807
782.84	11.892
783.14	11.960
783.45	11.863
783.76	11.974
784.06	12.025
784.37	12.254
784.68	12.391
784.98	12.369
785.29	12.625
785.60	12.523
785.90	12.666
786.21	12.579
786.51	12.766
786.82	12.909
787.13	12.801
787.43	12.804
787.74	12.745
788.04	12.965
788.35	13.003
788.66	12.819
788.96	12.885
789.27	13.007
789.57	13.073
789.88	12.721
790.19	12.905
790.49	13.156
790.80	13.439
791.10	13.674
791.41	13.403
791.71	13.258
792.02	13.363
792.32	13.330
792.63	13.078
792.93	12.832
793.24	13.161
793.54	13.304
793.85	13.276
794.15	13.005
794.46	12.676
794.76	12.947
795.07	13.073
795.37	12.995
795.68	13.406
795.98	13.301
796.29	13.490
796.59	13.517
796.90	13.202
797.20	13.119
797.51	13.423
797.81	13.390
798.12	13.036
798.42	13.396
798.72	13.591
799.03	13.445
799.33	13.577
799.64	13.944
799.94	13.595
800.25	13.440
800.55	13.257
800.85	13.231
801.16	13.154
801.46	13.222
801.77	12.849
802.07	12.845
802.37	12.891
802.68	13.124
802.98	13.339
803.28	13.535
803.59	14.326
803.89	14.671
804.20	14.768
804.50	15.178
804.80	15.310
805.11	14.990
805.41	14.622
805.71	14.327
806.02	13.919
806.32	13.038
806.62	12.922
806.93	12.419
807.23	12.430
807.53	12.492
807.83	12.369
808.14	12.526
808.44	13.314
808.74	13.602
809.05	13.868
809.35	14.278
809.65	14.879
809.95	15.006
810.26	15.150
810.56	15.274
810.86	15.053
811.16	14.767
811.47	14.837
811.77	14.471
812.07	14.448
812.37	14.002
812.68	14.394
812.98	14.200
813.28	14.302
813.58	14.352
813.88	13.800
814.19	14.361
814.49	14.997
814.79	15.128
815.09	15.190
815.39	15.249
815.70	15.864
816.00	15.505
816.30	15.795
816.60	15.951
816.90	15.891
817.20	16.133
817.50	15.815
817.81	15.646
818.11	15.507
818.41	15.504
818.71	15.483
819.01	15.472
819.31	15.489
819.61	15.446
819.92	15.456
820.22	15.453
820.52	15.356
820.82	15.240
821.12	15.150
821.42	15.096
821.72	15.056
822.02	15.007
822.32	14.857
822.62	14.721
822.92	14.641
823.22	14.488
823.52	14.409
823.83	14.403
824.13	14.452
824.43	14.479
824.73	14.512
825.03	14.488
825.33	14.574
825.63	14.609
825.93	14.652
826.23	14.624
826.53	14.827
826.83	14.860
827.13	14.804
827.43	14.724
827.73	14.625
828.03	14.466
828.33	14.553
828.63	14.413
828.93	14.636
829.23	14.945
829.53	15.156
829.83	15.138
830.13	15.441
830.42	15.592
830.72	15.655
831.02	15.667
831.32	15.724
831.62	15.408
831.92	15.403
832.22	15.367
832.52	15.118
832.82	14.985
833.12	14.746
833.42	14.593
833.72	14.572
834.01	14.467
834.31	14.360
834.61	14.379
834.91	14.398
835.21	14.196
835.51	13.785
835.81	13.676
836.11	13.554
836.40	13.847
836.70	13.660
837.00	13.698
837.30	14.240
837.60	14.624
837.90	14.894
838.19	15.318
838.49	15.576
838.79	15.824
839.09	15.706
839.39	15.823
839.68	15.284
839.98	15.037
840.28	14.890
840.58	14.251
840.88	13.979
841.17	13.196
841.47	13.001
841.77	13.067
842.07	13.545
842.36	14.117
842.66	14.340
842.96	14.174
843.26	14.404
843.55	13.754
843.85	14.073
844.15	14.326
844.45	15.061
844.74	14.750
845.04	15.359
845.34	14.158
845.63	13.525
845.93	13.808
846.23	15.590
846.53	15.920
846.82	16.466
847.12	15.732
847.42	15.503
847.71	15.446
848.01	15.345
848.31	14.672
848.60	15.921
848.90	15.617
849.19	15.368
849.49	12.607
849.79	12.551
850.08	13.187
850.38	13.715
850.68	14.191
850.97	14.969
851.27	14.439
851.56	13.893
851.86	12.297
852.16	13.827
852.45	14.505
852.75	15.925
853.04	14.726
853.34	14.201
853.64	13.693
853.93	13.525
854.23	13.384
854.52	14.595
854.82	14.144
855.11	15.367
855.41	13.505
855.70	11.414
856.00	10.882
856.30	11.234
856.59	11.286
856.89	10.567
857.18	9.508
857.48	8.421
857.77	8.803
858.07	10.778
858.36	9.826
858.66	10.762
858.95	11.792
859.25	12.069
859.54	12.640
859.84	12.690
860.13	13.669
860.42	15.806
860.72	16.297
861.01	15.250
861.31	13.930
861.60	14.726
861.90	15.712
862.19	15.810
862.49	16.849
862.78	17.818
863.07	17.201
863.37	18.000
863.66	16.881
863.96	16.547
864.25	16.473
864.54	16.520
864.84	15.575
865.13	14.265
865.43	13.707
865.72	11.982
866.01	12.042
866.31	6.420
866.60	6.367
866.89	6.698
>>>>>End Spectral Data<<<<<
