OOIBase32 Version 2.0.0.6 Data File
++++++++++++++++++++++++++++++++++++
Date: 01-20-2012, 22:16:07
User: Valued Ocean Optics Customer
Spectrometer Serial Number: USB2E2917
Spectrometer Channel: Master
Integration Time (msec): 4
Spectra Averaged: 10
Boxcar Smoothing: 5
Correct for Electrical Dark: Enabled
Time Normalized: Disabled
Dual-beam Reference: Disabled
Reference Channel: Master
Temperature: Not acquired
Spectrometer Type: S2000
ADC Type: USB2000
Number of Pixels in File: 2048
Graph Title: 
>>>>>Begin Spectral Data<<<<<
180.30	0.000
180.67	0.000
181.03	-3.411
181.40	101.733
181.77	199.665
182.14	-140.533
182.51	256.418
182.88	-3.909
183.25	180.316
183.62	-8.961
183.99	-272.312
184.36	51.097
184.73	57.723
185.10	-225.608
185.46	108.938
185.83	22.664
186.20	141.104
186.57	239.749
186.94	-189.699
187.31	51.374
187.68	138.073
188.05	139.260
188.42	105.334
188.78	91.982
189.15	62.392
189.52	69.666
189.89	53.432
190.26	42.339
190.63	45.384
191.00	41.061
191.37	39.445
191.73	39.216
192.10	33.655
192.47	43.190
192.84	35.729
193.21	38.027
193.58	33.990
193.94	42.635
194.31	48.939
194.68	48.959
195.05	37.704
195.42	34.181
195.79	38.419
196.15	42.536
196.52	41.965
196.89	37.134
197.26	38.153
197.63	27.688
198.00	25.002
198.36	19.841
198.73	14.021
199.10	24.449
199.47	24.406
199.84	18.135
200.20	20.619
200.57	20.011
200.94	27.284
201.31	18.050
201.68	20.554
202.04	21.820
202.41	25.001
202.78	26.095
203.15	17.670
203.51	16.716
203.88	17.269
204.25	18.951
204.62	22.814
204.98	22.658
205.35	31.433
205.72	33.105
206.09	27.036
206.46	30.437
206.82	32.786
207.19	27.836
207.56	31.333
207.92	31.789
208.29	23.805
208.66	12.989
209.03	15.069
209.39	12.532
209.76	8.931
210.13	20.742
210.50	28.524
210.86	29.913
211.23	38.049
211.60	33.678
211.96	30.762
212.33	25.071
212.70	18.388
213.07	17.071
213.43	17.755
213.80	19.474
214.17	11.912
214.53	6.848
214.90	0.331
215.27	1.012
215.63	0.636
216.00	2.435
216.37	5.792
216.74	9.224
217.10	8.366
217.47	7.344
217.84	6.625
218.20	3.432
218.57	-2.533
218.94	4.745
219.30	1.718
219.67	7.380
220.04	4.786
220.40	8.101
220.77	7.525
221.13	8.974
221.50	7.866
221.87	9.647
222.23	11.246
222.60	10.712
222.97	9.290
223.33	13.647
223.70	11.068
224.07	12.350
224.43	9.810
224.80	9.405
225.16	8.197
225.53	8.483
225.90	7.986
226.26	7.423
226.63	7.342
226.99	6.737
227.36	5.121
227.73	6.228
228.09	5.542
228.46	5.657
228.82	4.554
229.19	3.870
229.56	3.044
229.92	2.996
230.29	2.796
230.65	3.440
231.02	3.980
231.38	4.881
231.75	3.387
232.12	3.122
232.48	2.755
232.85	3.279
233.21	4.105
233.58	3.707
233.94	3.025
234.31	2.701
234.68	2.416
235.04	2.073
235.41	1.596
235.77	2.017
236.14	2.088
236.50	2.552
236.87	3.373
237.23	3.566
237.60	4.741
237.96	4.647
238.33	4.989
238.69	4.720
239.06	4.498
239.42	4.425
239.79	4.350
240.15	4.398
240.52	4.344
240.88	4.547
241.25	4.668
241.61	4.405
241.98	4.324
242.34	3.970
242.71	3.813
243.07	3.754
243.44	3.903
243.80	3.945
244.17	4.060
244.53	3.903
244.90	3.798
245.26	3.784
245.63	3.810
245.99	3.946
246.36	4.013
246.72	4.066
247.09	4.145
247.45	4.189
247.81	4.025
248.18	3.977
248.54	4.249
248.91	4.143
249.27	4.150
249.64	4.060
250.00	4.031
250.36	4.216
250.73	4.061
251.09	3.705
251.46	3.508
251.82	3.351
252.19	2.862
252.55	2.619
252.91	2.798
253.28	2.601
253.64	2.516
254.01	2.690
254.37	2.633
254.73	3.062
255.10	3.431
255.46	3.294
255.83	3.805
256.19	3.990
256.55	3.952
256.92	3.949
257.28	3.885
257.65	3.833
258.01	3.731
258.37	3.743
258.74	3.778
259.10	3.755
259.46	3.833
259.83	3.664
260.19	3.644
260.55	3.679
260.92	3.582
261.28	3.632
261.64	3.830
262.01	3.790
262.37	3.622
262.73	3.348
263.10	3.328
263.46	3.410
263.82	3.285
264.19	3.487
264.55	3.490
264.91	3.249
265.28	3.127
265.64	3.117
266.00	3.238
266.37	3.471
266.73	3.579
267.09	3.657
267.46	3.578
267.82	3.778
268.18	3.617
268.54	3.501
268.91	3.652
269.27	3.688
269.63	3.581
270.00	3.459
270.36	3.321
270.72	3.292
271.08	3.348
271.45	3.383
271.81	3.090
272.17	3.194
272.53	3.197
272.90	3.214
273.26	3.282
273.62	3.382
273.98	3.205
274.35	3.184
274.71	3.022
275.07	2.986
275.43	2.927
275.80	3.072
276.16	2.947
276.52	3.040
276.88	3.097
277.25	2.724
277.61	2.582
277.97	2.830
278.33	2.745
278.69	2.886
279.06	2.661
279.42	2.586
279.78	2.607
280.14	2.440
280.50	2.367
280.87	2.389
281.23	2.558
281.59	2.558
281.95	2.446
282.31	2.601
282.68	2.567
283.04	2.580
283.40	2.666
283.76	2.781
284.12	2.855
284.48	2.925
284.85	2.860
285.21	2.904
285.57	2.942
285.93	2.985
286.29	2.937
286.65	2.966
287.02	3.131
287.38	3.056
287.74	3.016
288.10	3.087
288.46	3.096
288.82	3.081
289.18	3.098
289.54	3.068
289.91	3.043
290.27	2.994
290.63	3.059
290.99	2.965
291.35	3.084
291.71	3.130
292.07	3.075
292.43	2.905
292.79	2.971
293.16	3.025
293.52	3.144
293.88	3.332
294.24	3.461
294.60	3.338
294.96	3.382
295.32	3.417
295.68	3.380
296.04	3.459
296.40	3.605
296.76	3.789
297.12	3.806
297.49	3.829
297.85	3.796
298.21	3.677
298.57	3.755
298.93	3.711
299.29	3.676
299.65	3.890
300.01	3.936
300.37	3.879
300.73	3.806
301.09	3.850
301.45	3.834
301.81	3.844
302.17	3.990
302.53	4.060
302.89	4.110
303.25	4.089
303.61	3.938
303.97	3.930
304.33	4.047
304.69	3.964
305.05	4.014
305.41	3.966
305.77	3.959
306.13	4.021
306.49	4.047
306.85	4.125
307.21	4.262
307.57	4.329
307.93	4.460
308.29	4.462
308.65	4.488
309.01	4.498
309.37	4.549
309.73	4.567
310.09	4.569
310.45	4.568
310.81	4.500
311.17	4.508
311.53	4.531
311.89	4.463
312.25	4.507
312.61	4.533
312.96	4.428
313.32	4.453
313.68	4.546
314.04	4.517
314.40	4.529
314.76	4.583
315.12	4.552
315.48	4.603
315.84	4.665
316.20	4.730
316.56	4.742
316.92	4.885
317.27	5.008
317.63	4.975
317.99	5.032
318.35	5.159
318.71	5.276
319.07	5.275
319.43	5.298
319.79	5.322
320.15	5.305
320.50	5.498
320.86	5.645
321.22	5.703
321.58	5.763
321.94	5.852
322.30	5.944
322.66	6.083
323.01	6.225
323.37	6.422
323.73	6.565
324.09	6.675
324.45	6.771
324.81	6.864
325.17	6.903
325.52	7.051
325.88	7.238
326.24	7.324
326.60	7.475
326.96	7.672
327.31	7.804
327.67	7.876
328.03	8.082
328.39	8.240
328.75	8.381
329.11	8.640
329.46	8.809
329.82	8.907
330.18	9.107
330.54	9.193
330.90	9.340
331.25	9.508
331.61	9.591
331.97	9.613
332.33	9.694
332.68	9.748
333.04	9.716
333.40	9.695
333.76	9.820
334.11	9.887
334.47	9.941
334.83	9.921
335.19	9.921
335.54	10.037
335.90	10.213
336.26	10.295
336.62	10.370
336.97	10.470
337.33	10.593
337.69	10.602
338.05	10.632
338.40	10.640
338.76	10.678
339.12	10.626
339.48	10.683
339.83	10.565
340.19	10.534
340.55	10.532
340.90	10.567
341.26	10.609
341.62	10.618
341.97	10.661
342.33	10.748
342.69	10.733
343.04	10.770
343.40	10.745
343.76	10.801
344.12	10.858
344.47	10.890
344.83	10.890
345.19	10.906
345.54	10.932
345.90	10.953
346.26	10.959
346.61	11.027
346.97	11.036
347.32	11.115
347.68	11.112
348.04	11.122
348.39	11.170
348.75	11.164
349.11	11.170
349.46	11.158
349.82	11.148
350.18	11.159
350.53	11.193
350.89	11.244
351.24	11.210
351.60	11.254
351.96	11.233
352.31	11.187
352.67	11.257
353.02	11.252
353.38	11.209
353.74	11.151
354.09	11.084
354.45	11.037
354.80	11.000
355.16	10.998
355.52	10.979
355.87	10.975
356.23	10.950
356.58	10.887
356.94	10.862
357.29	10.878
357.65	10.883
358.00	10.913
358.36	10.920
358.72	10.938
359.07	10.957
359.43	11.020
359.78	11.022
360.14	11.057
360.49	11.124
360.85	11.181
361.20	11.194
361.56	11.224
361.91	11.238
362.27	11.276
362.62	11.287
362.98	11.325
363.33	11.363
363.69	11.368
364.04	11.440
364.40	11.434
364.75	11.461
365.11	11.526
365.46	11.597
365.82	11.653
366.17	11.700
366.53	11.728
366.88	11.760
367.24	11.757
367.59	11.901
367.95	11.892
368.30	11.913
368.66	11.958
369.01	11.958
369.37	11.927
369.72	11.934
370.08	11.940
370.43	12.004
370.78	12.072
371.14	12.092
371.49	12.029
371.85	12.043
372.20	12.129
372.56	12.164
372.91	12.220
373.26	12.256
373.62	12.316
373.97	12.346
374.33	12.380
374.68	12.356
375.03	12.397
375.39	12.476
375.74	12.508
376.10	12.493
376.45	12.483
376.80	12.524
377.16	12.566
377.51	12.603
377.87	12.641
378.22	12.677
378.57	12.728
378.93	12.808
379.28	12.857
379.63	12.925
379.99	12.958
380.34	13.010
380.70	13.044
381.05	13.105
381.40	13.121
381.76	13.144
382.11	13.216
382.46	13.264
382.82	13.273
383.17	13.274
383.52	13.324
383.88	13.385
384.23	13.467
384.58	13.512
384.94	13.581
385.29	13.657
385.64	13.744
385.99	13.788
386.35	13.863
386.70	13.951
387.05	14.071
387.41	14.124
387.76	14.189
388.11	14.216
388.47	14.289
388.82	14.291
389.17	14.331
389.52	14.367
389.88	14.388
390.23	14.429
390.58	14.454
390.93	14.430
391.29	14.468
391.64	14.511
391.99	14.585
392.34	14.624
392.70	14.709
393.05	14.744
393.40	14.795
393.75	14.874
394.11	14.926
394.46	14.939
394.81	15.028
395.16	15.091
395.52	15.164
395.87	15.208
396.22	15.238
396.57	15.291
396.92	15.383
397.28	15.453
397.63	15.469
397.98	15.489
398.33	15.586
398.68	15.658
399.04	15.710
399.39	15.738
399.74	15.783
400.09	15.881
400.44	15.902
400.80	15.956
401.15	16.010
401.50	16.041
401.85	16.099
402.20	16.112
402.55	16.120
402.90	16.176
403.26	16.208
403.61	16.222
403.96	16.244
404.31	16.313
404.66	16.318
405.01	16.356
405.36	16.432
405.72	16.469
406.07	16.534
406.42	16.619
406.77	16.616
407.12	16.669
407.47	16.726
407.82	16.776
408.17	16.792
408.53	16.814
408.88	16.839
409.23	16.871
409.58	16.902
409.93	16.946
410.28	16.947
410.63	17.059
410.98	17.067
411.33	17.106
411.68	17.127
412.03	17.164
412.38	17.178
412.73	17.200
413.09	17.190
413.44	17.186
413.79	17.150
414.14	17.156
414.49	17.124
414.84	17.162
415.19	17.145
415.54	17.114
415.89	17.082
416.24	17.110
416.59	17.111
416.94	17.114
417.29	17.105
417.64	17.135
417.99	17.130
418.34	17.135
418.69	17.112
419.04	17.136
419.39	17.165
419.74	17.192
420.09	17.189
420.44	17.188
420.79	17.190
421.14	17.214
421.49	17.209
421.84	17.214
422.19	17.210
422.54	17.238
422.89	17.236
423.24	17.248
423.59	17.272
423.94	17.292
424.29	17.304
424.64	17.327
424.99	17.349
425.34	17.373
425.68	17.400
426.03	17.439
426.38	17.478
426.73	17.528
427.08	17.575
427.43	17.605
427.78	17.642
428.13	17.698
428.48	17.764
428.83	17.809
429.18	17.878
429.53	17.925
429.87	17.944
430.22	17.961
430.57	17.985
430.92	17.982
431.27	17.997
431.62	18.020
431.97	18.050
432.32	18.051
432.67	18.034
433.01	18.038
433.36	18.059
433.71	18.095
434.06	18.120
434.41	18.140
434.76	18.143
435.11	18.162
435.45	18.166
435.80	18.175
436.15	18.191
436.50	18.207
436.85	18.205
437.20	18.185
437.54	18.170
437.89	18.167
438.24	18.161
438.59	18.151
438.94	18.149
439.29	18.152
439.63	18.124
439.98	18.106
440.33	18.113
440.68	18.101
441.03	18.109
441.37	18.114
441.72	18.108
442.07	18.125
442.42	18.142
442.76	18.139
443.11	18.136
443.46	18.151
443.81	18.162
444.16	18.161
444.50	18.154
444.85	18.140
445.20	18.135
445.55	18.121
445.89	18.090
446.24	18.070
446.59	18.045
446.94	18.029
447.28	18.016
447.63	17.988
447.98	17.979
448.32	18.000
448.67	18.022
449.02	18.014
449.37	18.023
449.71	18.048
450.06	18.091
450.41	18.110
450.75	18.145
451.10	18.162
451.45	18.218
451.79	18.218
452.14	18.205
452.49	18.222
452.84	18.249
453.18	18.264
453.53	18.291
453.88	18.275
454.22	18.312
454.57	18.327
454.92	18.334
455.26	18.323
455.61	18.352
455.95	18.383
456.30	18.394
456.65	18.423
456.99	18.456
457.34	18.478
457.69	18.526
458.03	18.558
458.38	18.580
458.73	18.614
459.07	18.631
459.42	18.671
459.76	18.708
460.11	18.775
460.46	18.805
460.80	18.841
461.15	18.869
461.49	18.932
461.84	18.978
462.19	19.027
462.53	19.082
462.88	19.168
463.22	19.218
463.57	19.251
463.91	19.246
464.26	19.292
464.61	19.326
464.95	19.376
465.30	19.365
465.64	19.399
465.99	19.438
466.33	19.489
466.68	19.524
467.02	19.557
467.37	19.598
467.71	19.637
468.06	19.663
468.41	19.699
468.75	19.720
469.10	19.758
469.44	19.765
469.79	19.789
470.13	19.789
470.48	19.778
470.82	19.800
471.17	19.808
471.51	19.811
471.86	19.836
472.20	19.865
472.55	19.869
472.89	19.913
473.23	19.919
473.58	19.913
473.92	19.927
474.27	19.949
474.61	19.933
474.96	19.937
475.30	19.953
475.65	19.951
475.99	19.930
476.34	19.933
476.68	19.920
477.02	19.935
477.37	19.929
477.71	19.906
478.06	19.900
478.40	19.946
478.75	20.069
479.09	20.270
479.43	20.687
479.78	21.226
480.12	21.794
480.47	22.348
480.81	22.916
481.15	23.471
481.50	24.050
481.84	24.720
482.19	25.438
482.53	26.126
482.87	26.644
483.22	26.795
483.56	26.622
483.90	26.283
484.25	25.833
484.59	25.298
484.94	24.701
485.28	24.021
485.62	23.231
485.97	22.390
486.31	21.603
486.65	20.999
487.00	20.588
487.34	20.385
487.68	20.308
488.03	20.309
488.37	20.339
488.71	20.424
489.06	20.536
489.40	20.659
489.74	20.787
490.09	20.911
490.43	20.998
490.77	21.089
491.11	21.173
491.46	21.216
491.80	21.255
492.14	21.299
492.49	21.326
492.83	21.374
493.17	21.413
493.51	21.446
493.86	21.482
494.20	21.537
494.54	21.648
494.88	21.738
495.23	21.819
495.57	21.869
495.91	21.932
496.25	21.997
496.60	22.057
496.94	22.128
497.28	22.223
497.62	22.300
497.97	22.373
498.31	22.428
498.65	22.541
498.99	22.639
499.33	22.766
499.68	22.886
500.02	23.008
500.36	23.109
500.70	23.214
501.04	23.290
501.39	23.417
501.73	23.531
502.07	23.636
502.41	23.699
502.75	23.807
503.09	23.907
503.44	23.983
503.78	24.086
504.12	24.201
504.46	24.285
504.80	24.381
505.14	24.459
505.49	24.530
505.83	24.635
506.17	24.732
506.51	24.806
506.85	24.902
507.19	24.979
507.53	25.048
507.87	25.113
508.22	25.171
508.56	25.250
508.90	25.339
509.24	25.429
509.58	25.486
509.92	25.555
510.26	25.627
510.60	25.689
510.94	25.790
511.28	25.881
511.63	25.943
511.97	26.081
512.31	26.155
512.65	26.230
512.99	26.325
513.33	26.439
513.67	26.543
514.01	26.659
514.35	26.751
514.69	26.834
515.03	26.943
515.37	27.045
515.71	27.115
516.05	27.213
516.39	27.284
516.73	27.334
517.07	27.386
517.41	27.458
517.75	27.501
518.09	27.539
518.43	27.600
518.77	27.607
519.11	27.656
519.45	27.700
519.79	27.747
520.13	27.801
520.47	27.882
520.81	27.972
521.15	28.036
521.49	28.111
521.83	28.218
522.17	28.256
522.51	28.331
522.85	28.409
523.19	28.542
523.53	28.733
523.87	28.975
524.21	29.234
524.55	29.534
524.89	29.830
525.23	30.183
525.57	30.494
525.91	30.832
526.25	31.150
526.58	31.475
526.92	31.718
527.26	31.846
527.60	31.751
527.94	31.456
528.28	31.087
528.62	30.761
528.96	30.515
529.30	30.318
529.64	30.077
529.97	29.836
530.31	29.528
530.65	29.292
530.99	29.145
531.33	29.228
531.67	29.544
532.01	29.889
532.35	30.163
532.68	30.256
533.02	30.244
533.36	30.254
533.70	30.248
534.04	30.271
534.38	30.249
534.71	30.242
535.05	30.246
535.39	30.224
535.73	30.230
536.07	30.260
536.41	30.319
536.74	30.419
537.08	30.519
537.42	30.597
537.76	30.714
538.10	30.824
538.43	30.925
538.77	31.023
539.11	31.132
539.45	31.219
539.79	31.284
540.12	31.335
540.46	31.354
540.80	31.372
541.14	31.380
541.47	31.358
541.81	31.364
542.15	31.353
542.49	31.320
542.82	31.275
543.16	31.233
543.50	31.200
543.84	31.167
544.17	31.191
544.51	31.176
544.85	31.181
545.18	31.202
545.52	31.210
545.86	31.239
546.20	31.280
546.53	31.343
546.87	31.394
547.21	31.473
547.54	31.527
547.88	31.572
548.22	31.646
548.55	31.720
548.89	31.788
549.23	31.839
549.56	31.880
549.90	31.915
550.24	31.928
550.57	31.944
550.91	31.953
551.25	31.985
551.58	31.997
551.92	32.035
552.26	32.075
552.59	32.103
552.93	32.135
553.27	32.143
553.60	32.202
553.94	32.255
554.27	32.321
554.61	32.343
554.95	32.354
555.28	32.394
555.62	32.426
555.95	32.455
556.29	32.530
556.63	32.591
556.96	32.662
557.30	32.669
557.63	32.673
557.97	32.682
558.31	32.720
558.64	32.760
558.98	32.807
559.31	32.834
559.65	32.833
559.98	32.820
560.32	32.801
560.65	32.794
560.99	32.773
561.33	32.803
561.66	32.817
562.00	32.822
562.33	32.853
562.67	32.826
563.00	32.808
563.34	32.864
563.67	32.863
564.01	32.865
564.34	32.882
564.68	32.929
565.01	32.940
565.35	32.950
565.68	32.969
566.02	32.952
566.35	32.992
566.69	32.993
567.02	32.994
567.36	32.997
567.69	33.042
568.03	33.054
568.36	33.082
568.69	33.091
569.03	33.078
569.36	33.086
569.70	33.087
570.03	33.066
570.37	33.121
570.70	33.097
571.04	33.121
571.37	33.128
571.70	33.132
572.04	33.130
572.37	33.145
572.71	33.179
573.04	33.184
573.37	33.222
573.71	33.242
574.04	33.232
574.38	33.267
574.71	33.272
575.04	33.267
575.38	33.281
575.71	33.286
576.05	33.320
576.38	33.370
576.71	33.442
577.05	33.492
577.38	33.570
577.71	33.618
578.05	33.605
578.38	33.664
578.71	33.666
579.05	33.688
579.38	33.694
579.71	33.666
580.05	33.635
580.38	33.641
580.71	33.632
581.05	33.606
581.38	33.637
581.71	33.651
582.05	33.622
582.38	33.603
582.71	33.611
583.04	33.664
583.38	33.672
583.71	33.699
584.04	33.622
584.38	33.612
584.71	33.595
585.04	33.522
585.37	33.552
585.71	33.549
586.04	33.605
586.37	33.613
586.70	33.561
587.04	33.546
587.37	33.535
587.70	33.542
588.03	33.518
588.37	33.494
588.70	33.460
589.03	33.427
589.36	33.407
589.69	33.352
590.03	33.307
590.36	33.309
590.69	33.312
591.02	33.242
591.35	33.218
591.69	33.203
592.02	33.192
592.35	33.202
592.68	33.164
593.01	33.126
593.35	33.077
593.68	33.037
594.01	32.951
594.34	32.873
594.67	32.860
595.00	32.808
595.34	32.776
595.67	32.724
596.00	32.706
596.33	32.691
596.66	32.688
596.99	32.705
597.32	32.692
597.65	32.726
597.99	32.733
598.32	32.684
598.65	32.722
598.98	32.684
599.31	32.665
599.64	32.620
599.97	32.582
600.30	32.490
600.63	32.393
600.96	32.325
601.30	32.238
601.63	32.185
601.96	32.175
602.29	32.121
602.62	32.067
602.95	32.057
603.28	32.008
603.61	31.965
603.94	31.960
604.27	31.958
604.60	31.959
604.93	31.942
605.26	31.908
605.59	31.884
605.92	31.829
606.25	31.819
606.58	31.746
606.91	31.716
607.24	31.701
607.57	31.716
607.90	31.685
608.23	31.686
608.56	31.654
608.89	31.684
609.22	31.655
609.55	31.701
609.88	31.681
610.21	31.722
610.54	31.744
610.87	31.729
611.20	31.677
611.53	31.673
611.86	31.581
612.19	31.604
612.52	31.557
612.85	31.513
613.18	31.443
613.51	31.418
613.84	31.306
614.17	31.233
614.49	31.216
614.82	31.147
615.15	31.120
615.48	31.142
615.81	31.109
616.14	31.032
616.47	31.000
616.80	30.926
617.13	30.875
617.46	30.860
617.78	30.827
618.11	30.782
618.44	30.729
618.77	30.713
619.10	30.654
619.43	30.628
619.76	30.600
620.09	30.587
620.41	30.545
620.74	30.452
621.07	30.364
621.40	30.289
621.73	30.212
622.06	30.184
622.38	30.077
622.71	29.996
623.04	29.907
623.37	29.826
623.70	29.796
624.02	29.745
624.35	29.728
624.68	29.703
625.01	29.656
625.34	29.610
625.66	29.569
625.99	29.510
626.32	29.498
626.65	29.430
626.98	29.415
627.30	29.316
627.63	29.256
627.96	29.222
628.29	29.161
628.61	29.114
628.94	29.064
629.27	29.008
629.60	28.994
629.92	28.921
630.25	28.874
630.58	28.788
630.91	28.767
631.23	28.726
631.56	28.670
631.89	28.657
632.21	28.607
632.54	28.611
632.87	28.615
633.19	28.555
633.52	28.540
633.85	28.484
634.18	28.461
634.50	28.351
634.83	28.349
635.16	28.289
635.48	28.244
635.81	28.227
636.14	28.106
636.46	28.017
636.79	27.983
637.11	27.958
637.44	27.925
637.77	27.892
638.09	27.962
638.42	27.913
638.75	27.844
639.07	27.777
639.40	27.712
639.73	27.669
640.05	27.600
640.38	27.556
640.70	27.400
641.03	27.326
641.36	27.314
641.68	27.222
642.01	27.151
642.33	27.143
642.66	27.110
642.98	27.035
643.31	27.050
643.64	26.989
643.96	26.932
644.29	26.912
644.61	26.904
644.94	26.819
645.26	26.793
645.59	26.747
645.91	26.665
646.24	26.597
646.56	26.609
646.89	26.483
647.22	26.408
647.54	26.360
647.87	26.318
648.19	26.249
648.52	26.171
648.84	26.076
649.17	26.023
649.49	25.980
649.82	25.948
650.14	25.873
650.47	25.928
650.79	25.947
651.11	25.890
651.44	25.840
651.76	25.820
652.09	25.805
652.41	25.761
652.74	25.706
653.06	25.622
653.39	25.540
653.71	25.477
654.04	25.320
654.36	25.239
654.68	25.154
655.01	25.094
655.33	25.025
655.66	24.959
655.98	24.875
656.30	24.830
656.63	24.795
656.95	24.738
657.28	24.707
657.60	24.616
657.92	24.570
658.25	24.557
658.57	24.505
658.90	24.435
659.22	24.345
659.54	24.281
659.87	24.174
660.19	24.108
660.51	24.087
660.84	24.024
661.16	24.079
661.48	24.016
661.81	23.912
662.13	23.911
662.45	23.885
662.78	23.873
663.10	23.843
663.42	23.846
663.75	23.897
664.07	23.848
664.39	23.797
664.72	23.652
665.04	23.618
665.36	23.620
665.69	23.599
666.01	23.512
666.33	23.488
666.65	23.463
666.98	23.468
667.30	23.411
667.62	23.314
667.94	23.246
668.27	23.204
668.59	23.175
668.91	23.121
669.23	23.007
669.56	23.090
669.88	23.000
670.20	23.040
670.52	22.977
670.85	22.882
671.17	22.903
671.49	22.867
671.81	22.849
672.13	22.803
672.46	22.743
672.78	22.712
673.10	22.604
673.42	22.603
673.74	22.518
674.07	22.465
674.39	22.492
674.71	22.497
675.03	22.419
675.35	22.439
675.67	22.364
676.00	22.305
676.32	22.328
676.64	22.307
676.96	22.276
677.28	22.200
677.60	22.175
677.92	22.094
678.25	22.093
678.57	22.129
678.89	22.099
679.21	22.071
679.53	22.108
679.85	22.051
680.17	22.029
680.49	21.989
680.81	21.969
681.13	21.948
681.46	21.922
681.78	21.863
682.10	21.852
682.42	21.756
682.74	21.754
683.06	21.661
683.38	21.577
683.70	21.556
684.02	21.569
684.34	21.592
684.66	21.561
684.98	21.608
685.30	21.557
685.62	21.508
685.94	21.537
686.26	21.489
686.58	21.435
686.90	21.434
687.22	21.413
687.54	21.391
687.86	21.375
688.18	21.353
688.50	21.235
688.82	21.181
689.14	21.115
689.46	21.099
689.78	21.039
690.10	21.057
690.42	21.030
690.74	20.948
691.06	20.895
691.38	20.797
691.70	20.823
692.02	20.708
692.34	20.733
692.66	20.784
692.98	20.664
693.30	20.696
693.62	20.664
693.94	20.653
694.26	20.604
694.57	20.531
694.89	20.535
695.21	20.457
695.53	20.511
695.85	20.429
696.17	20.322
696.49	20.392
696.81	20.377
697.13	20.362
697.44	20.288
697.76	20.289
698.08	20.284
698.40	20.281
698.72	20.238
699.04	20.199
699.36	20.214
699.67	20.225
699.99	20.150
700.31	20.044
700.63	20.036
700.95	19.988
701.27	19.920
701.58	19.938
701.90	19.853
702.22	19.802
702.54	19.823
702.86	19.747
703.17	19.786
703.49	19.756
703.81	19.789
704.13	19.731
704.45	19.799
704.76	19.794
705.08	19.814
705.40	19.750
705.72	19.778
706.03	19.753
706.35	19.759
706.67	19.690
706.99	19.601
707.30	19.582
707.62	19.593
707.94	19.605
708.26	19.646
708.57	19.565
708.89	19.569
709.21	19.522
709.53	19.448
709.84	19.398
710.16	19.356
710.48	19.461
710.79	19.432
711.11	19.382
711.43	19.257
711.74	19.250
712.06	19.275
712.38	19.384
712.69	19.335
713.01	19.436
713.33	19.518
713.64	19.505
713.96	19.522
714.28	19.625
714.59	19.736
714.91	19.867
715.23	19.789
715.54	19.741
715.86	19.652
716.17	19.661
716.49	19.694
716.81	19.609
717.12	19.690
717.44	19.605
717.76	19.416
718.07	19.325
718.39	19.247
718.70	19.307
719.02	19.250
719.33	19.344
719.65	19.390
719.97	19.211
720.28	19.228
720.60	19.140
720.91	19.156
721.23	19.184
721.54	19.094
721.86	19.203
722.17	19.181
722.49	19.200
722.81	18.991
723.12	18.987
723.44	19.054
723.75	19.034
724.07	18.986
724.38	18.951
724.70	18.969
725.01	19.005
725.33	18.946
725.64	18.898
725.96	18.799
726.27	18.779
726.59	18.746
726.90	18.706
727.22	18.644
727.53	18.673
727.84	18.698
728.16	18.692
728.47	18.597
728.79	18.539
729.10	18.523
729.42	18.724
729.73	18.749
730.05	18.755
730.36	18.680
730.67	18.683
730.99	18.644
731.30	18.604
731.62	18.631
731.93	18.665
732.24	18.726
732.56	18.865
732.87	18.772
733.19	18.795
733.50	18.786
733.81	18.880
734.13	18.914
734.44	18.805
734.76	18.799
735.07	18.705
735.38	18.591
735.70	18.377
736.01	18.353
736.32	18.315
736.64	18.223
736.95	18.097
737.26	17.968
737.58	17.955
737.89	18.180
738.20	18.148
738.52	18.108
738.83	18.291
739.14	18.376
739.45	18.204
739.77	18.124
740.08	18.135
740.39	18.167
740.71	18.144
741.02	18.040
741.33	17.955
741.64	17.826
741.96	17.841
742.27	17.614
742.58	17.661
742.90	17.659
743.21	17.509
743.52	17.497
743.83	17.362
744.14	17.368
744.46	17.193
744.77	17.130
745.08	17.096
745.39	17.102
745.71	17.356
746.02	17.129
746.33	17.124
746.64	17.281
746.95	17.272
747.27	17.427
747.58	17.320
747.89	17.527
748.20	17.314
748.51	17.465
748.82	17.575
749.14	17.487
749.45	17.531
749.76	17.486
750.07	17.449
750.38	17.433
750.69	17.431
751.01	17.512
751.32	17.711
751.63	17.931
751.94	17.902
752.25	17.838
752.56	17.895
752.87	17.961
753.18	17.886
753.49	17.884
753.81	17.871
754.12	17.755
754.43	17.816
754.74	17.560
755.05	17.597
755.36	17.607
755.67	17.661
755.98	17.577
756.29	17.803
756.60	18.038
756.91	18.290
757.22	18.382
757.53	18.492
757.84	18.592
758.15	18.702
758.46	18.741
758.77	18.798
759.09	19.018
759.40	19.150
759.71	19.132
760.02	19.211
760.33	19.312
760.64	19.395
760.95	19.537
761.26	19.672
761.57	19.634
761.88	19.634
762.18	19.641
762.49	19.708
762.80	19.575
763.11	19.560
763.42	19.471
763.73	19.339
764.04	19.282
764.35	19.194
764.66	19.026
764.97	19.039
765.28	18.937
765.59	18.726
765.90	18.308
766.21	18.300
766.52	18.219
766.83	18.160
767.14	17.885
767.44	17.802
767.75	17.558
768.06	17.358
768.37	17.402
768.68	17.514
768.99	17.748
769.30	17.703
769.61	17.870
769.91	17.805
770.22	17.834
770.53	17.861
770.84	17.909
771.15	17.996
771.46	18.075
771.77	17.780
772.07	17.692
772.38	17.598
772.69	17.714
773.00	17.815
773.31	17.737
773.61	17.592
773.92	17.484
774.23	17.025
774.54	16.845
774.85	16.871
775.15	17.169
775.46	17.195
775.77	16.949
776.08	16.670
776.39	16.222
776.69	16.280
777.00	16.345
777.31	16.546
777.62	16.820
777.92	17.052
778.23	16.914
778.54	16.627
778.85	16.623
779.15	16.742
779.46	16.974
779.77	17.085
780.07	17.344
780.38	17.411
780.69	17.279
781.00	17.234
781.30	17.190
781.61	17.095
781.92	17.065
782.22	16.923
782.53	17.333
782.84	17.245
783.14	17.319
783.45	17.137
783.76	17.058
784.06	17.326
784.37	17.615
784.68	17.916
784.98	18.024
785.29	18.166
785.60	18.470
785.90	18.273
786.21	18.167
786.51	18.275
786.82	18.134
787.13	18.168
787.43	18.301
787.74	18.532
788.04	18.280
788.35	18.548
788.66	18.552
788.96	18.346
789.27	18.432
789.57	18.492
789.88	18.318
790.19	18.243
790.49	18.155
790.80	17.666
791.10	17.435
791.41	17.540
791.71	17.676
792.02	17.860
792.32	17.918
792.63	17.789
792.93	18.093
793.24	18.274
793.54	18.611
793.85	18.887
794.15	19.543
794.46	19.390
794.76	19.446
795.07	19.328
795.37	19.151
795.68	19.067
795.98	19.109
796.29	19.087
796.59	18.781
796.90	18.676
797.20	18.608
797.51	18.300
797.81	18.253
798.12	18.207
798.42	18.159
798.72	18.460
799.03	18.977
799.33	19.212
799.64	18.971
799.94	19.241
800.25	18.970
800.55	18.717
800.85	18.704
801.16	18.647
801.46	18.839
801.77	18.998
802.07	18.910
802.37	18.688
802.68	18.697
802.98	19.051
803.28	19.164
803.59	19.471
803.89	19.575
804.20	19.375
804.50	19.710
804.80	19.653
805.11	19.587
805.41	19.921
805.71	19.919
806.02	19.426
806.32	19.382
806.62	19.292
806.93	19.115
807.23	19.263
807.53	19.733
807.83	19.928
808.14	19.566
808.44	19.198
808.74	18.484
809.05	18.526
809.35	19.162
809.65	18.962
809.95	19.076
810.26	19.160
810.56	18.638
810.86	18.480
811.16	18.218
811.47	18.635
811.77	19.228
812.07	19.887
812.37	19.623
812.68	19.168
812.98	19.711
813.28	19.602
813.58	19.725
813.88	20.196
814.19	19.904
814.49	19.966
814.79	19.644
815.09	19.199
815.39	18.793
815.70	18.921
816.00	19.255
816.30	19.379
816.60	19.831
816.90	20.278
817.20	20.322
817.50	20.577
817.81	20.462
818.11	20.682
818.41	21.040
818.71	21.282
819.01	21.338
819.31	21.333
819.61	21.210
819.92	21.203
820.22	21.195
820.52	21.153
820.82	21.149
821.12	21.193
821.42	21.184
821.72	21.081
822.02	21.023
822.32	21.004
822.62	20.938
822.92	20.908
823.22	20.899
823.52	20.778
823.83	20.782
824.13	20.833
824.43	20.948
824.73	20.924
825.03	20.973
825.33	20.941
825.63	21.011
825.93	21.203
826.23	21.281
826.53	21.274
826.83	21.216
827.13	21.203
827.43	21.116
827.73	20.912
828.03	20.840
828.33	20.742
828.63	20.454
828.93	20.263
829.23	19.894
829.53	19.551
829.83	19.306
830.13	19.583
830.42	19.838
830.72	19.888
831.02	19.663
831.32	20.017
831.62	20.106
831.92	20.337
832.22	20.474
832.52	20.483
832.82	20.814
833.12	20.919
833.42	20.864
833.72	20.673
834.01	20.372
834.31	20.353
834.61	20.269
834.91	20.417
835.21	20.425
835.51	20.398
835.81	20.288
836.11	20.338
836.40	20.241
836.70	20.450
837.00	20.189
837.30	20.592
837.60	21.110
837.90	21.460
838.19	21.493
838.49	21.648
838.79	20.976
839.09	21.761
839.39	21.425
839.68	20.977
839.98	20.524
840.28	20.518
840.58	19.886
840.88	20.035
841.17	19.193
841.47	18.564
841.77	18.642
842.07	18.173
842.36	17.510
842.66	17.165
842.96	17.184
843.26	18.468
843.55	19.140
843.85	19.990
844.15	19.432
844.45	20.707
844.74	22.058
845.04	22.753
845.34	23.178
845.63	23.157
845.93	23.360
846.23	23.511
846.53	21.847
846.82	20.407
847.12	20.249
847.42	21.214
847.71	21.232
848.01	20.469
848.31	21.047
848.60	21.770
848.90	21.590
849.19	21.735
849.49	22.012
849.79	21.717
850.08	23.639
850.38	23.832
850.68	24.232
850.97	24.133
851.27	22.834
851.56	22.213
851.86	21.647
852.16	20.906
852.45	21.186
852.75	21.296
853.04	22.204
853.34	20.816
853.64	22.228
853.93	20.561
854.23	19.860
854.52	20.862
854.82	21.355
855.11	21.821
855.41	22.500
855.70	23.027
856.00	23.397
856.30	22.655
856.59	24.127
856.89	23.324
857.18	22.004
857.48	21.869
857.77	22.290
858.07	20.742
858.36	21.177
858.66	21.724
858.95	20.290
859.25	20.294
859.54	20.867
859.84	22.425
860.13	22.837
860.42	24.789
860.72	24.796
861.01	24.404
861.31	25.121
861.60	24.242
861.90	24.404
862.19	26.109
862.49	25.330
862.78	25.499
863.07	22.998
863.37	21.961
863.66	21.415
863.96	22.306
864.25	23.088
864.54	23.882
864.84	25.418
865.13	23.480
865.43	21.021
865.72	31.627
866.01	34.045
866.31	29.778
866.60	6.080
866.89	7.057
>>>>>End Spectral Data<<<<<
