OOIBase32 Version 2.0.0.6 Data File
++++++++++++++++++++++++++++++++++++
Date: 01-20-2012, 22:20:27
User: Valued Ocean Optics Customer
Spectrometer Serial Number: USB2E2917
Spectrometer Channel: Master
Integration Time (msec): 4
Spectra Averaged: 10
Boxcar Smoothing: 5
Correct for Electrical Dark: Enabled
Time Normalized: Disabled
Dual-beam Reference: Disabled
Reference Channel: Master
Temperature: Not acquired
Spectrometer Type: S2000
ADC Type: USB2000
Number of Pixels in File: 2048
Graph Title: 
>>>>>Begin Spectral Data<<<<<
180.30	0.000
180.67	0.000
181.03	-114.997
181.40	27.316
181.77	21.838
182.14	288.812
182.51	32.272
182.88	178.431
183.25	26.397
183.62	59.980
183.99	186.789
184.36	88.856
184.73	145.574
185.10	437.288
185.46	44.042
185.83	107.209
186.20	-502.300
186.57	86.430
186.94	-52.483
187.31	-65.482
187.68	-1261.293
188.05	101.133
188.42	-7.915
188.78	41.271
189.15	44.137
189.52	19.795
189.89	-10.042
190.26	-12.085
190.63	-6.170
191.00	-23.680
191.37	-48.514
191.73	-101.161
192.10	-106.874
192.47	-44.016
192.84	-85.366
193.21	-123.513
193.58	-128.904
193.94	-156.811
194.31	-79.060
194.68	-49.226
195.05	-47.456
195.42	-13.286
195.79	-4.280
196.15	-24.435
196.52	-46.036
196.89	-41.641
197.26	-5.026
197.63	9.474
198.00	30.812
198.36	-7.222
198.73	-13.349
199.10	-4.336
199.47	-1.770
199.84	-7.605
200.20	5.143
200.57	6.994
200.94	-1.632
201.31	-9.315
201.68	-15.100
202.04	-20.147
202.41	-4.247
202.78	11.422
203.15	16.220
203.51	22.944
203.88	42.418
204.25	33.493
204.62	45.916
204.98	51.994
205.35	50.117
205.72	46.607
206.09	40.343
206.46	36.688
206.82	7.442
207.19	14.207
207.56	1.151
207.92	-11.220
208.29	-13.240
208.66	-35.976
209.03	-41.116
209.39	-23.575
209.76	-10.757
210.13	15.416
210.50	18.322
210.86	26.441
211.23	16.465
211.60	25.851
211.96	31.510
212.33	25.136
212.70	19.831
213.07	21.007
213.43	13.691
213.80	18.359
214.17	17.589
214.53	16.472
214.90	25.519
215.27	37.312
215.63	35.876
216.00	38.906
216.37	52.462
216.74	62.081
217.10	64.366
217.47	47.509
217.84	38.034
218.20	24.959
218.57	21.133
218.94	15.806
219.30	2.083
219.67	-3.282
220.04	-2.516
220.40	-8.841
220.77	-6.594
221.13	-7.246
221.50	4.943
221.87	15.269
222.23	20.250
222.60	22.451
222.97	23.317
223.33	30.586
223.70	30.608
224.07	28.530
224.43	30.913
224.80	28.577
225.16	29.362
225.53	27.665
225.90	26.099
226.26	26.329
226.63	26.410
226.99	24.836
227.36	23.598
227.73	23.566
228.09	24.503
228.46	24.755
228.82	24.711
229.19	23.712
229.56	22.968
229.92	21.660
230.29	20.504
230.65	21.455
231.02	21.811
231.38	21.556
231.75	21.951
232.12	21.159
232.48	19.719
232.85	20.265
233.21	20.424
233.58	21.087
233.94	22.223
234.31	21.821
234.68	19.258
235.04	19.791
235.41	19.563
235.77	19.913
236.14	18.423
236.50	17.648
236.87	18.206
237.23	19.229
237.60	19.601
237.96	19.616
238.33	20.289
238.69	20.890
239.06	20.400
239.42	20.695
239.79	20.422
240.15	20.972
240.52	20.842
240.88	20.488
241.25	19.863
241.61	19.876
241.98	19.935
242.34	19.672
242.71	19.427
243.07	19.688
243.44	19.344
243.80	19.468
244.17	19.180
244.53	19.227
244.90	19.206
245.26	19.472
245.63	19.451
245.99	19.276
246.36	19.358
246.72	19.217
247.09	19.097
247.45	18.932
247.81	18.816
248.18	18.865
248.54	18.685
248.91	18.404
249.27	18.085
249.64	17.826
250.00	17.646
250.36	17.365
250.73	17.289
251.09	17.295
251.46	17.675
251.82	17.454
252.19	17.560
252.55	17.734
252.91	17.989
253.28	17.792
253.64	17.624
254.01	17.726
254.37	17.469
254.73	17.352
255.10	17.373
255.46	17.271
255.83	17.543
256.19	17.624
256.55	17.715
256.92	17.675
257.28	17.581
257.65	17.599
258.01	17.510
258.37	17.529
258.74	17.560
259.10	17.304
259.46	17.305
259.83	17.099
260.19	16.823
260.55	16.805
260.92	16.785
261.28	16.862
261.64	16.778
262.01	16.899
262.37	17.002
262.73	16.785
263.10	16.794
263.46	16.962
263.82	16.913
264.19	16.875
264.55	16.707
264.91	16.764
265.28	16.913
265.64	17.010
266.00	16.822
266.37	16.808
266.73	17.146
267.09	17.265
267.46	17.083
267.82	17.234
268.18	17.331
268.54	17.062
268.91	16.926
269.27	16.639
269.63	16.473
270.00	16.351
270.36	15.954
270.72	15.712
271.08	15.568
271.45	15.481
271.81	15.341
272.17	15.461
272.53	15.863
272.90	15.790
273.26	15.635
273.62	15.670
273.98	15.924
274.35	16.398
274.71	16.488
275.07	16.671
275.43	16.597
275.80	16.568
276.16	16.443
276.52	16.028
276.88	15.990
277.25	16.049
277.61	16.033
277.97	15.903
278.33	15.825
278.69	15.717
279.06	15.516
279.42	15.572
279.78	15.635
280.14	15.641
280.50	15.639
280.87	15.580
281.23	15.534
281.59	15.506
281.95	15.441
282.31	15.396
282.68	15.362
283.04	15.382
283.40	15.310
283.76	15.261
284.12	15.125
284.48	15.058
284.85	14.981
285.21	15.062
285.57	14.907
285.93	14.850
286.29	14.631
286.65	14.602
287.02	14.656
287.38	14.613
287.74	14.564
288.10	14.552
288.46	14.517
288.82	14.606
289.18	14.691
289.54	14.939
289.91	15.045
290.27	15.149
290.63	15.281
290.99	15.346
291.35	15.600
291.71	15.658
292.07	15.956
292.43	16.244
292.79	16.229
293.16	16.234
293.52	16.219
293.88	16.311
294.24	16.778
294.60	16.847
294.96	16.990
295.32	17.127
295.68	17.202
296.04	17.210
296.40	17.327
296.76	17.532
297.12	17.714
297.49	17.814
297.85	17.990
298.21	17.914
298.57	18.227
298.93	18.378
299.29	18.672
299.65	18.957
300.01	19.284
300.37	19.576
300.73	19.884
301.09	20.132
301.45	20.590
301.81	20.861
302.17	21.134
302.53	21.278
302.89	21.594
303.25	21.615
303.61	21.866
303.97	21.903
304.33	21.962
304.69	22.205
305.05	22.372
305.41	22.427
305.77	22.496
306.13	22.610
306.49	22.730
306.85	22.751
307.21	22.811
307.57	22.893
307.93	23.023
308.29	23.207
308.65	23.231
309.01	23.360
309.37	23.504
309.73	23.641
310.09	23.658
310.45	23.780
310.81	23.881
311.17	23.885
311.53	23.864
311.89	23.793
312.25	23.740
312.61	23.716
312.96	23.621
313.32	23.454
313.68	23.360
314.04	23.266
314.40	23.094
314.76	22.875
315.12	22.804
315.48	22.777
315.84	22.932
316.20	22.808
316.56	22.775
316.92	22.719
317.27	22.705
317.63	22.653
317.99	22.678
318.35	22.675
318.71	22.752
319.07	22.897
319.43	22.784
319.79	22.778
320.15	22.778
320.50	22.778
320.86	22.732
321.22	22.722
321.58	22.645
321.94	22.511
322.30	22.363
322.66	22.360
323.01	22.288
323.37	22.322
323.73	22.179
324.09	22.147
324.45	22.143
324.81	22.100
325.17	21.990
325.52	21.983
325.88	21.956
326.24	21.961
326.60	21.825
326.96	21.870
327.31	21.927
327.67	21.938
328.03	22.107
328.39	22.041
328.75	21.984
329.11	22.049
329.46	21.970
329.82	22.017
330.18	22.007
330.54	22.027
330.90	21.904
331.25	21.688
331.61	21.767
331.97	21.548
332.33	21.476
332.68	21.458
333.04	21.434
333.40	21.445
333.76	21.405
334.11	21.399
334.47	21.414
334.83	21.332
335.19	21.357
335.54	21.102
335.90	21.176
336.26	21.126
336.62	21.122
336.97	21.007
337.33	20.982
337.69	20.942
338.05	20.916
338.40	20.810
338.76	20.788
339.12	20.786
339.48	20.874
339.83	20.757
340.19	20.688
340.55	20.735
340.90	20.867
341.26	20.707
341.62	20.630
341.97	20.515
342.33	20.465
342.69	20.453
343.04	20.412
343.40	20.348
343.76	20.308
344.12	20.362
344.47	20.162
344.83	19.998
345.19	20.178
345.54	20.188
345.90	20.255
346.26	20.339
346.61	20.348
346.97	20.356
347.32	20.376
347.68	20.356
348.04	20.328
348.39	20.415
348.75	20.377
349.11	20.281
349.46	20.223
349.82	20.138
350.18	20.044
350.53	20.003
350.89	19.844
351.24	19.729
351.60	19.669
351.96	19.582
352.31	19.581
352.67	19.556
353.02	19.463
353.38	19.480
353.74	19.573
354.09	19.512
354.45	19.494
354.80	19.561
355.16	19.682
355.52	19.645
355.87	19.723
356.23	19.634
356.58	19.565
356.94	19.549
357.29	19.555
357.65	19.480
358.00	19.481
358.36	19.425
358.72	19.389
359.07	19.231
359.43	19.231
359.78	19.153
360.14	19.123
360.49	19.072
360.85	19.036
361.20	18.926
361.56	18.844
361.91	18.797
362.27	18.765
362.62	18.695
362.98	18.662
363.33	18.637
363.69	18.587
364.04	18.501
364.40	18.507
364.75	18.480
365.11	18.514
365.46	18.466
365.82	18.380
366.17	18.351
366.53	18.353
366.88	18.362
367.24	18.276
367.59	18.145
367.95	18.108
368.30	18.098
368.66	18.096
369.01	18.006
369.37	17.980
369.72	17.991
370.08	17.992
370.43	17.975
370.78	17.949
371.14	18.007
371.49	18.033
371.85	18.076
372.20	18.035
372.56	17.997
372.91	17.973
373.26	17.995
373.62	17.964
373.97	17.835
374.33	17.747
374.68	17.720
375.03	17.654
375.39	17.637
375.74	17.606
376.10	17.558
376.45	17.477
376.80	17.469
377.16	17.389
377.51	17.327
377.87	17.348
378.22	17.364
378.57	17.306
378.93	17.275
379.28	17.288
379.63	17.288
379.99	17.270
380.34	17.273
380.70	17.250
381.05	17.204
381.40	17.247
381.76	17.236
382.11	17.244
382.46	17.289
382.82	17.262
383.17	17.230
383.52	17.194
383.88	17.180
384.23	17.151
384.58	17.068
384.94	17.077
385.29	16.986
385.64	16.951
385.99	16.901
386.35	16.827
386.70	16.751
387.05	16.729
387.41	16.672
387.76	16.683
388.11	16.689
388.47	16.715
388.82	16.733
389.17	16.765
389.52	16.756
389.88	16.733
390.23	16.706
390.58	16.712
390.93	16.690
391.29	16.657
391.64	16.608
391.99	16.575
392.34	16.540
392.70	16.497
393.05	16.434
393.40	16.372
393.75	16.324
394.11	16.286
394.46	16.238
394.81	16.163
395.16	16.108
395.52	16.034
395.87	15.960
396.22	15.880
396.57	15.803
396.92	15.732
397.28	15.721
397.63	15.662
397.98	15.574
398.33	15.493
398.68	15.478
399.04	15.409
399.39	15.364
399.74	15.320
400.09	15.286
400.44	15.247
400.80	15.243
401.15	15.205
401.50	15.181
401.85	15.172
402.20	15.185
402.55	15.125
402.90	15.129
403.26	15.118
403.61	15.092
403.96	15.086
404.31	15.078
404.66	15.003
405.01	14.950
405.36	14.871
405.72	14.862
406.07	14.778
406.42	14.754
406.77	14.719
407.12	14.662
407.47	14.632
407.82	14.574
408.17	14.527
408.53	14.539
408.88	14.500
409.23	14.495
409.58	14.429
409.93	14.439
410.28	14.402
410.63	14.355
410.98	14.334
411.33	14.298
411.68	14.272
412.03	14.241
412.38	14.231
412.73	14.251
413.09	14.278
413.44	14.316
413.79	14.371
414.14	14.418
414.49	14.462
414.84	14.497
415.19	14.536
415.54	14.571
415.89	14.642
416.24	14.650
416.59	14.666
416.94	14.658
417.29	14.673
417.64	14.665
417.99	14.678
418.34	14.688
418.69	14.696
419.04	14.692
419.39	14.705
419.74	14.688
420.09	14.703
420.44	14.690
420.79	14.717
421.14	14.694
421.49	14.676
421.84	14.644
422.19	14.614
422.54	14.576
422.89	14.554
423.24	14.526
423.59	14.464
423.94	14.416
424.29	14.377
424.64	14.312
424.99	14.272
425.34	14.206
425.68	14.145
426.03	14.101
426.38	14.056
426.73	14.018
427.08	13.981
427.43	13.979
427.78	13.999
428.13	14.014
428.48	14.028
428.83	14.024
429.18	14.087
429.53	14.121
429.87	14.122
430.22	14.129
430.57	14.128
430.92	14.134
431.27	14.144
431.62	14.140
431.97	14.105
432.32	14.088
432.67	14.073
433.01	14.026
433.36	13.974
433.71	13.972
434.06	13.955
434.41	13.950
434.76	13.942
435.11	13.947
435.45	13.938
435.80	13.964
436.15	13.970
436.50	13.974
436.85	13.999
437.20	14.010
437.54	14.004
437.89	14.028
438.24	14.020
438.59	13.983
438.94	13.963
439.29	13.951
439.63	13.924
439.98	13.916
440.33	13.938
440.68	13.925
441.03	13.925
441.37	13.930
441.72	13.942
442.07	13.976
442.42	14.003
442.76	14.000
443.11	14.022
443.46	14.024
443.81	14.030
444.16	14.004
444.50	14.003
444.85	13.987
445.20	13.989
445.55	13.925
445.89	13.866
446.24	13.809
446.59	13.762
446.94	13.684
447.28	13.634
447.63	13.555
447.98	13.510
448.32	13.450
448.67	13.409
449.02	13.330
449.37	13.336
449.71	13.313
450.06	13.314
450.41	13.315
450.75	13.315
451.10	13.304
451.45	13.300
451.79	13.305
452.14	13.286
452.49	13.262
452.84	13.258
453.18	13.221
453.53	13.217
453.88	13.236
454.22	13.246
454.57	13.235
454.92	13.283
455.26	13.290
455.61	13.318
455.95	13.338
456.30	13.384
456.65	13.403
456.99	13.438
457.34	13.453
457.69	13.447
458.03	13.451
458.38	13.460
458.73	13.409
459.07	13.402
459.42	13.344
459.76	13.313
460.11	13.266
460.46	13.212
460.80	13.155
461.15	13.084
461.49	13.038
461.84	12.987
462.19	12.934
462.53	12.925
462.88	12.892
463.22	12.883
463.57	12.880
463.91	12.878
464.26	12.898
464.61	12.909
464.95	12.924
465.30	12.918
465.64	12.888
465.99	12.880
466.33	12.866
466.68	12.863
467.02	12.834
467.37	12.809
467.71	12.772
468.06	12.741
468.41	12.723
468.75	12.692
469.10	12.646
469.44	12.635
469.79	12.598
470.13	12.569
470.48	12.511
470.82	12.502
471.17	12.483
471.51	12.465
471.86	12.427
472.20	12.372
472.55	12.375
472.89	12.356
473.23	12.326
473.58	12.317
473.92	12.311
474.27	12.326
474.61	12.304
474.96	12.285
475.30	12.286
475.65	12.290
475.99	12.308
476.34	12.316
476.68	12.325
477.02	12.324
477.37	12.346
477.71	12.376
478.06	12.420
478.40	12.527
478.75	12.714
479.09	12.909
479.43	13.127
479.78	13.364
480.12	13.612
480.47	13.886
480.81	14.147
481.15	14.398
481.50	14.655
481.84	14.967
482.19	15.296
482.53	15.568
482.87	15.743
483.22	15.755
483.56	15.619
483.90	15.386
484.25	15.075
484.59	14.729
484.94	14.454
485.28	14.218
485.62	13.905
485.97	13.541
486.31	13.193
486.65	12.937
487.00	12.820
487.34	12.819
487.68	12.875
488.03	12.986
488.37	13.110
488.71	13.145
489.06	13.095
489.40	13.033
489.74	12.970
490.09	12.904
490.43	12.820
490.77	12.744
491.11	12.666
491.46	12.588
491.80	12.506
492.14	12.461
492.49	12.389
492.83	12.293
493.17	12.196
493.51	12.129
493.86	12.046
494.20	11.990
494.54	11.939
494.88	11.921
495.23	11.901
495.57	11.892
495.91	11.860
496.25	11.817
496.60	11.840
496.94	11.836
497.28	11.803
497.62	11.780
497.97	11.744
498.31	11.733
498.65	11.702
498.99	11.693
499.33	11.671
499.68	11.648
500.02	11.640
500.36	11.593
500.70	11.569
501.04	11.569
501.39	11.569
501.73	11.555
502.07	11.554
502.41	11.554
502.75	11.544
503.09	11.550
503.44	11.562
503.78	11.568
504.12	11.571
504.46	11.599
504.80	11.597
505.14	11.625
505.49	11.653
505.83	11.644
506.17	11.666
506.51	11.686
506.85	11.700
507.19	11.695
507.53	11.711
507.87	11.725
508.22	11.701
508.56	11.688
508.90	11.667
509.24	11.654
509.58	11.653
509.92	11.621
510.26	11.600
510.60	11.557
510.94	11.523
511.28	11.489
511.63	11.465
511.97	11.456
512.31	11.449
512.65	11.419
512.99	11.432
513.33	11.462
513.67	11.505
514.01	11.534
514.35	11.595
514.69	11.658
515.03	11.712
515.37	11.750
515.71	11.791
516.05	11.824
516.39	11.864
516.73	11.864
517.07	11.860
517.41	11.822
517.75	11.806
518.09	11.771
518.43	11.753
518.77	11.711
519.11	11.656
519.45	11.614
519.79	11.593
520.13	11.570
520.47	11.536
520.81	11.528
521.15	11.543
521.49	11.522
521.83	11.536
522.17	11.528
522.51	11.570
522.85	11.639
523.19	11.745
523.53	11.847
523.87	11.988
524.21	12.136
524.55	12.260
524.89	12.374
525.23	12.479
525.57	12.562
525.91	12.660
526.25	12.727
526.58	12.795
526.92	12.829
527.26	12.838
527.60	12.826
527.94	12.792
528.28	12.760
528.62	12.718
528.96	12.674
529.30	12.617
529.64	12.546
529.97	12.474
530.31	12.388
530.65	12.305
530.99	12.252
531.33	12.191
531.67	12.158
532.01	12.128
532.35	12.107
532.68	12.080
533.02	12.052
533.36	12.027
533.70	11.989
534.04	11.955
534.38	11.910
534.71	11.858
535.05	11.816
535.39	11.770
535.73	11.702
536.07	11.655
536.41	11.663
536.74	11.684
537.08	11.710
537.42	11.757
537.76	11.794
538.10	11.857
538.43	11.901
538.77	11.944
539.11	11.988
539.45	12.039
539.79	12.061
540.12	12.066
540.46	12.077
540.80	12.064
541.14	12.046
541.47	12.017
541.81	11.998
542.15	11.968
542.49	11.913
542.82	11.854
543.16	11.790
543.50	11.733
543.84	11.681
544.17	11.628
544.51	11.569
544.85	11.522
545.18	11.495
545.52	11.412
545.86	11.365
546.20	11.358
546.53	11.322
546.87	11.278
547.21	11.235
547.54	11.176
547.88	11.138
548.22	11.120
548.55	11.110
548.89	11.066
549.23	11.049
549.56	11.054
549.90	11.007
550.24	11.002
550.57	11.013
550.91	11.036
551.25	11.034
551.58	11.022
551.92	11.013
552.26	11.003
552.59	11.000
552.93	10.982
553.27	10.945
553.60	10.940
553.94	10.922
554.27	10.897
554.61	10.875
554.95	10.874
555.28	10.836
555.62	10.809
555.95	10.803
556.29	10.808
556.63	10.822
556.96	10.825
557.30	10.847
557.63	10.858
557.97	10.837
558.31	10.814
558.64	10.797
558.98	10.794
559.31	10.794
559.65	10.783
559.98	10.801
560.32	10.837
560.65	10.862
560.99	10.858
561.33	10.877
561.66	10.924
562.00	10.962
562.33	10.968
562.67	11.027
563.00	11.065
563.34	11.083
563.67	11.086
564.01	11.096
564.34	11.094
564.68	11.107
565.01	11.117
565.35	11.116
565.68	11.107
566.02	11.117
566.35	11.102
566.69	11.102
567.02	11.113
567.36	11.103
567.69	11.101
568.03	11.098
568.36	11.088
568.69	11.079
569.03	11.052
569.36	11.040
569.70	11.056
570.03	11.045
570.37	11.044
570.70	11.037
571.04	11.038
571.37	11.029
571.70	11.035
572.04	11.048
572.37	11.062
572.71	11.073
573.04	11.096
573.37	11.086
573.71	11.106
574.04	11.096
574.38	11.076
574.71	11.069
575.04	11.062
575.38	11.053
575.71	11.031
576.05	10.963
576.38	10.929
576.71	10.896
577.05	10.882
577.38	10.843
577.71	10.807
578.05	10.791
578.38	10.769
578.71	10.751
579.05	10.712
579.38	10.688
579.71	10.693
580.05	10.689
580.38	10.670
580.71	10.674
581.05	10.671
581.38	10.701
581.71	10.709
582.05	10.735
582.38	10.737
582.71	10.744
583.04	10.748
583.38	10.769
583.71	10.787
584.04	10.815
584.38	10.813
584.71	10.799
585.04	10.801
585.37	10.830
585.71	10.827
586.04	10.840
586.37	10.871
586.70	10.892
587.04	10.930
587.37	10.961
587.70	10.970
588.03	10.958
588.37	10.977
588.70	11.000
589.03	10.998
589.36	11.028
589.69	11.058
590.03	11.045
590.36	11.055
590.69	11.043
591.02	11.032
591.35	11.047
591.69	11.086
592.02	11.109
592.35	11.099
592.68	11.121
593.01	11.118
593.35	11.111
593.68	11.121
594.01	11.128
594.34	11.133
594.67	11.158
595.00	11.138
595.34	11.144
595.67	11.142
596.00	11.153
596.33	11.121
596.66	11.116
596.99	11.089
597.32	11.136
597.65	11.139
597.99	11.151
598.32	11.119
598.65	11.114
598.98	11.102
599.31	11.106
599.64	11.084
599.97	11.118
600.30	11.113
600.63	11.126
600.96	11.110
601.30	11.123
601.63	11.108
601.96	11.138
602.29	11.172
602.62	11.193
602.95	11.205
603.28	11.218
603.61	11.216
603.94	11.221
604.27	11.212
604.60	11.204
604.93	11.203
605.26	11.225
605.59	11.224
605.92	11.218
606.25	11.155
606.58	11.152
606.91	11.198
607.24	11.198
607.57	11.206
607.90	11.188
608.23	11.164
608.56	11.155
608.89	11.129
609.22	11.122
609.55	11.110
609.88	11.134
610.21	11.133
610.54	11.070
610.87	11.028
611.20	10.992
611.53	11.021
611.86	11.031
612.19	10.998
612.52	11.027
612.85	11.018
613.18	11.013
613.51	11.036
613.84	10.971
614.17	10.991
614.49	11.034
614.82	11.078
615.15	11.082
615.48	11.098
615.81	11.096
616.14	11.074
616.47	11.035
616.80	11.028
617.13	11.000
617.46	11.061
617.78	11.034
618.11	11.022
618.44	10.992
618.77	10.987
619.10	10.989
619.43	10.991
619.76	10.980
620.09	10.984
620.41	10.955
620.74	11.005
621.07	10.991
621.40	11.022
621.73	11.010
622.06	11.016
622.38	11.032
622.71	11.012
623.04	11.058
623.37	11.074
623.70	11.117
624.02	11.208
624.35	11.210
624.68	11.242
625.01	11.234
625.34	11.233
625.66	11.228
625.99	11.235
626.32	11.215
626.65	11.198
626.98	11.180
627.30	11.182
627.63	11.119
627.96	11.085
628.29	11.055
628.61	11.047
628.94	11.065
629.27	11.064
629.60	11.054
629.92	11.083
630.25	11.080
630.58	11.074
630.91	11.037
631.23	11.011
631.56	11.006
631.89	11.004
632.21	11.006
632.54	10.985
632.87	10.963
633.19	10.918
633.52	10.926
633.85	10.883
634.18	10.904
634.50	10.911
634.83	10.886
635.16	10.871
635.48	10.840
635.81	10.828
636.14	10.788
636.46	10.764
636.79	10.761
637.11	10.722
637.44	10.706
637.77	10.664
638.09	10.597
638.42	10.615
638.75	10.616
639.07	10.599
639.40	10.562
639.73	10.531
640.05	10.548
640.38	10.506
640.70	10.438
641.03	10.454
641.36	10.466
641.68	10.484
642.01	10.499
642.33	10.447
642.66	10.433
642.98	10.421
643.31	10.454
643.64	10.411
643.96	10.453
644.29	10.496
644.61	10.474
644.94	10.505
645.26	10.508
645.59	10.474
645.91	10.484
646.24	10.490
646.56	10.501
646.89	10.544
647.22	10.600
647.54	10.619
647.87	10.604
648.19	10.618
648.52	10.564
648.84	10.544
649.17	10.509
649.49	10.532
649.82	10.528
650.14	10.510
650.47	10.463
650.79	10.402
651.11	10.360
651.44	10.366
651.76	10.352
652.09	10.362
652.41	10.345
652.74	10.357
653.06	10.323
653.39	10.324
653.71	10.341
654.04	10.367
654.36	10.391
654.68	10.401
655.01	10.400
655.33	10.374
655.66	10.333
655.98	10.306
656.30	10.310
656.63	10.339
656.95	10.329
657.28	10.309
657.60	10.231
657.92	10.197
658.25	10.153
658.57	10.120
658.90	10.083
659.22	10.075
659.54	10.061
659.87	10.013
660.19	9.900
660.51	9.808
660.84	9.722
661.16	9.645
661.48	9.565
661.81	9.487
662.13	9.401
662.45	9.380
662.78	9.313
663.10	9.275
663.42	9.312
663.75	9.293
664.07	9.292
664.39	9.234
664.72	9.216
665.04	9.225
665.36	9.206
665.69	9.216
666.01	9.214
666.33	9.170
666.65	9.130
666.98	9.064
667.30	9.066
667.62	8.979
667.94	8.980
668.27	8.939
668.59	8.898
668.91	8.860
669.23	8.814
669.56	8.715
669.88	8.701
670.20	8.682
670.52	8.570
670.85	8.515
671.17	8.510
671.49	8.475
671.81	8.446
672.13	8.392
672.46	8.409
672.78	8.387
673.10	8.327
673.42	8.271
673.74	8.205
674.07	8.231
674.39	8.162
674.71	8.173
675.03	8.122
675.35	8.140
675.67	8.212
676.00	8.190
676.32	8.208
676.64	8.254
676.96	8.282
677.28	8.389
677.60	8.420
677.92	8.449
678.25	8.469
678.57	8.460
678.89	8.513
679.21	8.462
679.53	8.404
679.85	8.337
680.17	8.349
680.49	8.291
680.81	8.161
681.13	8.091
681.46	8.055
681.78	8.001
682.10	8.007
682.42	7.924
682.74	7.868
683.06	7.966
683.38	7.946
683.70	7.927
684.02	7.964
684.34	8.048
684.66	8.126
684.98	8.165
685.30	8.129
685.62	8.164
685.94	8.128
686.26	8.146
686.58	8.009
686.90	8.011
687.22	7.958
687.54	7.827
687.86	7.690
688.18	7.606
688.50	7.507
688.82	7.449
689.14	7.311
689.46	7.286
689.78	7.155
690.10	7.088
690.42	6.970
690.74	6.881
691.06	6.890
691.38	6.762
691.70	6.601
692.02	6.470
692.34	6.375
692.66	6.285
692.98	6.167
693.30	6.140
693.62	6.241
693.94	6.283
694.26	6.391
694.57	6.433
694.89	6.556
695.21	6.708
695.53	6.868
695.85	6.997
696.17	7.139
696.49	7.215
696.81	7.276
697.13	7.284
697.44	7.301
697.76	7.228
698.08	7.167
698.40	7.137
698.72	6.914
699.04	6.668
699.36	6.430
699.67	6.148
699.99	5.835
700.31	5.472
700.63	5.021
700.95	4.648
701.27	4.229
701.58	3.868
701.90	3.419
702.22	3.214
702.54	2.996
702.86	2.795
703.17	2.667
703.49	2.572
703.81	2.478
704.13	2.408
704.45	2.333
704.76	2.319
705.08	2.287
705.40	2.320
705.72	2.280
706.03	2.344
706.35	2.257
706.67	2.197
706.99	2.176
707.30	2.252
707.62	2.245
707.94	2.160
708.26	2.205
708.57	2.273
708.89	2.362
709.21	2.404
709.53	2.329
709.84	2.391
710.16	2.373
710.48	2.444
710.79	2.391
711.11	2.459
711.43	2.532
711.74	2.601
712.06	2.671
712.38	2.681
712.69	2.737
713.01	2.935
713.33	3.095
713.64	3.272
713.96	3.405
714.28	3.688
714.59	3.964
714.91	4.332
715.23	4.570
715.54	4.742
715.86	4.936
716.17	5.112
716.49	5.125
716.81	5.133
717.12	5.083
717.44	5.041
717.76	4.797
718.07	4.467
718.39	4.001
718.70	3.593
719.02	3.143
719.33	2.830
719.65	2.550
719.97	2.138
720.28	1.970
720.60	1.871
720.91	1.716
721.23	1.721
721.54	1.823
721.86	1.972
722.17	1.996
722.49	2.193
722.81	2.282
723.12	2.210
723.44	2.511
723.75	2.655
724.07	2.678
724.38	2.698
724.70	2.673
725.01	2.534
725.33	2.565
725.64	2.708
725.96	2.674
726.27	2.679
726.59	2.782
726.90	2.802
727.22	2.723
727.53	2.767
727.84	2.748
728.16	2.752
728.47	2.770
728.79	2.602
729.10	2.332
729.42	2.128
729.73	1.830
730.05	1.446
730.36	1.070
730.67	0.509
730.99	-0.019
731.30	-0.307
731.62	-0.787
731.93	-1.308
732.24	-1.735
732.56	-2.220
732.87	-2.510
733.19	-2.978
733.50	-3.227
733.81	-3.580
734.13	-3.717
734.44	-4.055
734.76	-4.464
735.07	-4.828
735.38	-5.240
735.70	-5.653
736.01	-5.860
736.32	-6.155
736.64	-6.355
736.95	-6.619
737.26	-6.946
737.58	-7.370
737.89	-7.458
738.20	-7.930
738.52	-8.126
738.83	-8.246
739.14	-8.513
739.45	-9.126
739.77	-9.825
740.08	-10.549
740.39	-11.236
740.71	-11.788
741.02	-12.481
741.33	-13.237
741.64	-13.774
741.96	-14.449
742.27	-15.008
742.58	-15.575
742.90	-15.745
743.21	-15.869
743.52	-16.126
743.83	-16.400
744.14	-16.617
744.46	-16.661
744.77	-16.775
745.08	-17.114
745.39	-17.000
745.71	-16.989
746.02	-16.994
746.33	-16.861
746.64	-17.088
746.95	-17.031
747.27	-16.903
747.58	-16.543
747.89	-16.566
748.20	-16.536
748.51	-16.129
748.82	-16.207
749.14	-16.413
749.45	-16.427
749.76	-17.070
750.07	-17.118
750.38	-17.325
750.69	-17.557
751.01	-17.841
751.32	-17.846
751.63	-17.999
751.94	-18.170
752.25	-18.366
752.56	-18.349
752.87	-18.731
753.18	-18.348
753.49	-18.193
753.81	-18.113
754.12	-17.671
754.43	-17.540
754.74	-16.666
755.05	-15.563
755.36	-14.314
755.67	-13.210
755.98	-11.476
756.29	-9.604
756.60	-7.944
756.91	-6.519
757.22	-4.474
757.53	-2.906
757.84	-1.128
758.15	0.416
758.46	1.688
758.77	2.751
759.09	4.075
759.40	4.779
759.71	5.548
760.02	6.052
760.33	6.634
760.64	6.655
760.95	6.763
761.26	6.755
761.57	6.445
761.88	6.188
762.18	5.905
762.49	5.360
762.80	4.672
763.11	3.783
763.42	2.942
763.73	1.833
764.04	0.794
764.35	-0.396
764.66	-1.843
764.97	-3.476
765.28	-5.309
765.59	-7.438
765.90	-9.662
766.21	-11.955
766.52	-14.019
766.83	-16.006
767.14	-17.960
767.44	-19.465
767.75	-21.629
768.06	-23.102
768.37	-24.037
768.68	-25.527
768.99	-26.482
769.30	-27.814
769.61	-28.520
769.91	-29.115
770.22	-29.765
770.53	-30.025
770.84	-31.264
771.15	-31.252
771.46	-31.981
771.77	-33.007
772.07	-32.605
772.38	-33.409
772.69	-33.505
773.00	-33.949
773.31	-34.115
773.61	-34.957
773.92	-35.541
774.23	-35.015
774.54	-35.903
774.85	-35.257
775.15	-35.418
775.46	-35.867
775.77	-35.049
776.08	-34.403
776.39	-34.162
776.69	-34.404
777.00	-33.993
777.31	-33.824
777.62	-33.980
777.92	-33.156
778.23	-34.377
778.54	-33.620
778.85	-33.708
779.15	-33.945
779.46	-34.194
779.77	-34.468
780.07	-34.391
780.38	-35.097
780.69	-35.149
781.00	-35.547
781.30	-35.675
781.61	-35.145
781.92	-35.834
782.22	-35.979
782.53	-36.066
782.84	-35.880
783.14	-34.671
783.45	-33.862
783.76	-32.346
784.06	-31.268
784.37	-29.465
784.68	-28.239
784.98	-26.963
785.29	-25.397
785.60	-24.101
785.90	-23.013
786.21	-22.129
786.51	-21.059
786.82	-19.892
787.13	-19.632
787.43	-19.462
787.74	-19.112
788.04	-19.183
788.35	-19.482
788.66	-19.922
788.96	-20.184
789.27	-20.227
789.57	-20.521
789.88	-21.817
790.19	-22.613
790.49	-22.904
790.80	-23.272
791.10	-24.328
791.41	-23.682
791.71	-23.457
792.02	-22.931
792.32	-22.199
792.63	-21.712
792.93	-20.825
793.24	-20.631
793.54	-20.664
793.85	-19.694
794.15	-18.721
794.46	-17.796
794.76	-18.009
795.07	-17.935
795.37	-18.459
795.68	-17.829
795.98	-17.953
796.29	-18.119
796.59	-17.504
796.90	-17.474
797.20	-17.126
797.51	-17.266
797.81	-17.380
798.12	-17.505
798.42	-16.984
798.72	-16.157
799.03	-17.056
799.33	-16.989
799.64	-17.236
799.94	-17.508
800.25	-17.178
800.55	-17.687
800.85	-17.619
801.16	-17.775
801.46	-17.336
801.77	-17.491
802.07	-17.705
802.37	-17.077
802.68	-17.617
802.98	-17.810
803.28	-17.257
803.59	-17.460
803.89	-17.884
804.20	-18.122
804.50	-18.243
804.80	-18.890
805.11	-18.549
805.41	-18.003
805.71	-18.591
806.02	-18.065
806.32	-17.649
806.62	-18.258
806.93	-18.199
807.23	-17.702
807.53	-17.795
807.83	-17.292
808.14	-17.135
808.44	-17.448
808.74	-18.255
809.05	-17.246
809.35	-16.379
809.65	-16.171
809.95	-14.660
810.26	-13.608
810.56	-12.917
810.86	-11.640
811.16	-11.646
811.47	-10.732
811.77	-9.572
812.07	-8.239
812.37	-7.522
812.68	-7.160
812.98	-7.073
813.28	-7.315
813.58	-6.774
813.88	-6.107
814.19	-5.202
814.49	-3.949
814.79	-3.166
815.09	-2.500
815.39	-1.570
815.70	-1.944
816.00	-1.280
816.30	-0.302
816.60	0.529
816.90	1.062
817.20	1.955
817.50	2.540
817.81	3.818
818.11	5.568
818.41	6.817
818.71	7.695
819.01	8.786
819.31	9.420
819.61	9.988
819.92	10.401
820.22	10.643
820.52	10.955
820.82	11.236
821.12	11.430
821.42	11.392
821.72	11.332
822.02	11.321
822.32	11.195
822.62	11.149
822.92	10.978
823.22	10.900
823.52	10.788
823.83	10.584
824.13	10.411
824.43	10.278
824.73	10.179
825.03	10.071
825.33	9.857
825.63	9.781
825.93	9.542
826.23	9.488
826.53	9.177
826.83	9.116
827.13	8.849
827.43	8.570
827.73	8.199
828.03	7.604
828.33	6.967
828.63	6.404
828.93	5.723
829.23	5.046
829.53	4.615
829.83	4.271
830.13	3.957
830.42	3.639
830.72	3.641
831.02	3.478
831.32	3.758
831.62	4.385
831.92	4.725
832.22	4.773
832.52	4.870
832.82	4.842
833.12	4.821
833.42	4.864
833.72	4.931
834.01	4.346
834.31	4.293
834.61	3.821
834.91	2.940
835.21	2.499
835.51	2.279
835.81	1.502
836.11	0.079
836.40	-1.631
836.70	-3.450
837.00	-4.489
837.30	-4.786
837.60	-5.952
837.90	-5.807
838.19	-5.708
838.49	-7.334
838.79	-8.405
839.09	-8.872
839.39	-9.042
839.68	-9.321
839.98	-9.522
840.28	-11.468
840.58	-13.803
840.88	-16.624
841.17	-19.428
841.47	-23.223
841.77	-24.314
842.07	-28.343
842.36	-31.872
842.66	-33.267
842.96	-36.022
843.26	-39.509
843.55	-41.220
843.85	-40.935
844.15	-41.446
844.45	-41.251
844.74	-40.201
845.04	-43.032
845.34	-41.223
845.63	-40.766
845.93	-46.324
846.23	-48.462
846.53	-50.784
846.82	-53.584
847.12	-57.395
847.42	-54.852
847.71	-57.179
848.01	-58.922
848.31	-56.285
848.60	-53.004
848.90	-53.363
849.19	-49.018
849.49	-50.442
849.79	-49.693
850.08	-54.998
850.38	-52.042
850.68	-52.127
850.97	-49.972
851.27	-46.880
851.56	-48.847
851.86	-54.207
852.16	-54.075
852.45	-57.229
852.75	-51.947
853.04	-53.844
853.34	-47.022
853.64	-48.466
853.93	-47.874
854.23	-51.032
854.52	-53.930
854.82	-50.094
855.11	-48.668
855.41	-50.098
855.70	-44.959
856.00	-47.576
856.30	-48.284
856.59	-44.909
856.89	-45.428
857.18	-49.803
857.48	-49.382
857.77	-47.317
858.07	-48.021
858.36	-52.300
858.66	-52.669
858.95	-58.841
859.25	-54.632
859.54	-54.924
859.84	-57.765
860.13	-54.141
860.42	-49.394
860.72	-49.783
861.01	-50.456
861.31	-50.344
861.60	-44.008
861.90	-44.007
862.19	-39.461
862.49	-41.650
862.78	-37.226
863.07	-34.980
863.37	-32.298
863.66	-34.302
863.96	-32.309
864.25	-29.245
864.54	-28.951
864.84	-29.493
865.13	-28.979
865.43	-27.906
865.72	-18.461
866.01	-32.902
866.31	-42.992
866.60	-61.604
866.89	-7.191
>>>>>End Spectral Data<<<<<
