OOIBase32 Version 2.0.0.6 Data File
++++++++++++++++++++++++++++++++++++
Date: 01-22-2012, 21:27:08
User: Valued Ocean Optics Customer
Spectrometer Serial Number: USB2E2917
Spectrometer Channel: Master
Integration Time (msec): 4
Spectra Averaged: 10
Boxcar Smoothing: 5
Correct for Electrical Dark: Enabled
Time Normalized: Disabled
Dual-beam Reference: Disabled
Reference Channel: Master
Temperature: Not acquired
Spectrometer Type: S2000
ADC Type: USB2000
Number of Pixels in File: 2048
Graph Title: 
>>>>>Begin Spectral Data<<<<<
180.30	0.000
180.67	0.000
181.03	92.299
181.40	-29.024
181.77	55.609
182.14	119.273
182.51	550.776
182.88	-129.047
183.25	147.868
183.62	339.232
183.99	21.097
184.36	2.320
184.73	-151.905
185.10	-317.160
185.46	110.446
185.83	-26.936
186.20	-74.139
186.57	245.546
186.94	60.228
187.31	83.326
187.68	-4174.696
188.05	-1006.190
188.42	-418.217
188.78	444.948
189.15	189.658
189.52	165.003
189.89	120.862
190.26	107.065
190.63	118.281
191.00	115.641
191.37	93.402
191.73	130.690
192.10	134.012
192.47	116.581
192.84	124.527
193.21	230.239
193.58	113.452
193.94	74.957
194.31	96.287
194.68	38.223
195.05	27.396
195.42	36.475
195.79	-14.644
196.15	-2.977
196.52	7.669
196.89	1.993
197.26	-10.199
197.63	-21.352
198.00	1.435
198.36	-87.773
198.73	-187.993
199.10	-82.088
199.47	-25.579
199.84	-0.352
200.20	-15.719
200.57	-21.993
200.94	15.533
201.31	31.752
201.68	38.275
202.04	27.405
202.41	24.829
202.78	37.342
203.15	40.294
203.51	45.495
203.88	63.989
204.25	45.441
204.62	51.496
204.98	42.486
205.35	19.233
205.72	6.902
206.09	-11.168
206.46	19.116
206.82	-35.104
207.19	-45.673
207.56	-68.326
207.92	-107.562
208.29	-44.052
208.66	-32.445
209.03	-31.022
209.39	11.721
209.76	13.880
210.13	27.490
210.50	30.498
210.86	58.198
211.23	62.742
211.60	38.938
211.96	37.670
212.33	12.965
212.70	862.095
213.07	170.321
213.43	258.842
213.80	729.290
214.17	151.638
214.53	740.835
214.90	-45.652
215.27	-31.781
215.63	-66.993
216.00	-31.781
216.37	7.910
216.74	7.099
217.10	13.539
217.47	17.751
217.84	14.776
218.20	8.702
218.57	12.459
218.94	-4.936
219.30	7.119
219.67	13.850
220.04	11.426
220.40	6.362
220.77	3.061
221.13	2.076
221.50	7.123
221.87	6.664
222.23	8.994
222.60	3.002
222.97	2.321
223.33	-8.343
223.70	-9.213
224.07	-8.240
224.43	-5.101
224.80	4.182
225.16	2.997
225.53	1.407
225.90	2.850
226.26	4.354
226.63	4.544
226.99	5.392
227.36	6.693
227.73	7.939
228.09	6.442
228.46	6.746
228.82	3.093
229.19	4.408
229.56	3.407
229.92	4.113
230.29	3.427
230.65	4.231
231.02	3.591
231.38	4.441
231.75	1.875
232.12	4.144
232.48	3.008
232.85	5.508
233.21	3.973
233.58	6.476
233.94	5.160
234.31	5.415
234.68	4.058
235.04	4.302
235.41	3.215
235.77	4.431
236.14	3.947
236.50	5.468
236.87	5.775
237.23	6.365
237.60	4.178
237.96	4.120
238.33	3.937
238.69	4.444
239.06	3.540
239.42	3.283
239.79	3.490
240.15	4.362
240.52	4.564
240.88	4.070
241.25	3.496
241.61	3.695
241.98	3.536
242.34	2.960
242.71	2.615
243.07	2.918
243.44	3.070
243.80	3.228
244.17	2.273
244.53	1.477
244.90	1.842
245.26	2.374
245.63	2.250
245.99	2.391
246.36	2.524
246.72	2.596
247.09	2.560
247.45	2.599
247.81	2.492
248.18	2.814
248.54	2.916
248.91	2.221
249.27	1.694
249.64	2.194
250.00	2.263
250.36	2.367
250.73	2.208
251.09	1.903
251.46	1.577
251.82	1.644
252.19	1.219
252.55	1.398
252.91	2.246
253.28	2.030
253.64	1.424
254.01	1.348
254.37	1.275
254.73	1.441
255.10	1.823
255.46	2.165
255.83	2.219
256.19	2.288
256.55	2.498
256.92	2.221
257.28	2.303
257.65	2.739
258.01	2.674
258.37	2.605
258.74	2.497
259.10	2.785
259.46	2.637
259.83	2.539
260.19	2.711
260.55	2.663
260.92	2.832
261.28	2.656
261.64	2.397
262.01	2.264
262.37	2.048
262.73	2.299
263.10	1.593
263.46	1.689
263.82	1.727
264.19	1.634
264.55	1.816
264.91	2.009
265.28	2.408
265.64	2.315
266.00	2.392
266.37	2.942
266.73	2.878
267.09	3.034
267.46	2.796
267.82	2.939
268.18	2.837
268.54	2.605
268.91	2.694
269.27	2.612
269.63	2.490
270.00	2.447
270.36	2.036
270.72	2.027
271.08	1.921
271.45	2.032
271.81	1.935
272.17	2.298
272.53	2.475
272.90	2.387
273.26	2.251
273.62	2.323
273.98	2.470
274.35	2.803
274.71	2.664
275.07	3.044
275.43	3.163
275.80	3.364
276.16	3.147
276.52	3.031
276.88	3.006
277.25	3.008
277.61	3.264
277.97	3.313
278.33	3.095
278.69	3.065
279.06	2.730
279.42	2.824
279.78	2.730
280.14	2.609
280.50	2.577
280.87	2.594
281.23	2.691
281.59	2.560
281.95	2.471
282.31	2.481
282.68	2.629
283.04	2.705
283.40	2.418
283.76	2.238
284.12	2.172
284.48	2.148
284.85	1.951
285.21	2.026
285.57	1.989
285.93	2.076
286.29	2.116
286.65	2.119
287.02	2.224
287.38	2.374
287.74	2.592
288.10	2.622
288.46	2.620
288.82	2.731
289.18	2.536
289.54	2.494
289.91	2.219
290.27	2.351
290.63	2.517
290.99	2.474
291.35	2.617
291.71	2.382
292.07	2.421
292.43	2.468
292.79	2.544
293.16	2.701
293.52	2.799
293.88	2.947
294.24	2.710
294.60	2.572
294.96	2.590
295.32	2.605
295.68	2.606
296.04	2.758
296.40	2.642
296.76	2.596
297.12	2.802
297.49	2.815
297.85	2.995
298.21	3.176
298.57	3.254
298.93	3.413
299.29	3.490
299.65	3.807
300.01	3.746
300.37	3.905
300.73	3.995
301.09	3.820
301.45	3.819
301.81	3.835
302.17	3.818
302.53	3.744
302.89	3.617
303.25	3.560
303.61	3.378
303.97	3.504
304.33	3.643
304.69	3.964
305.05	3.995
305.41	4.073
305.77	3.959
306.13	4.093
306.49	4.195
306.85	4.312
307.21	4.310
307.57	4.286
307.93	4.182
308.29	4.166
308.65	3.837
309.01	3.878
309.37	3.895
309.73	4.064
310.09	4.017
310.45	4.012
310.81	4.006
311.17	4.017
311.53	4.093
311.89	4.188
312.25	4.134
312.61	4.228
312.96	4.220
313.32	4.170
313.68	3.965
314.04	4.058
314.40	3.990
314.76	4.018
315.12	4.150
315.48	4.238
315.84	4.149
316.20	4.170
316.56	4.304
316.92	4.267
317.27	4.379
317.63	4.447
317.99	4.318
318.35	4.528
318.71	4.594
319.07	4.573
319.43	4.437
319.79	4.487
320.15	4.524
320.50	4.599
320.86	4.659
321.22	4.669
321.58	4.525
321.94	4.652
322.30	4.810
322.66	4.848
323.01	4.861
323.37	5.093
323.73	5.109
324.09	5.299
324.45	5.305
324.81	5.551
325.17	5.657
325.52	5.951
325.88	5.984
326.24	5.874
326.60	5.842
326.96	5.906
327.31	5.771
327.67	5.986
328.03	5.928
328.39	5.830
328.75	5.720
329.11	5.706
329.46	5.741
329.82	5.752
330.18	5.871
330.54	6.056
330.90	6.042
331.25	6.111
331.61	5.995
331.97	6.097
332.33	6.147
332.68	6.209
333.04	6.247
333.40	6.208
333.76	6.351
334.11	6.284
334.47	6.250
334.83	6.267
335.19	6.308
335.54	6.281
335.90	6.128
336.26	6.157
336.62	6.193
336.97	6.148
337.33	6.138
337.69	6.103
338.05	6.241
338.40	6.214
338.76	6.297
339.12	6.284
339.48	6.302
339.83	6.384
340.19	6.480
340.55	6.400
340.90	6.396
341.26	6.423
341.62	6.426
341.97	6.390
342.33	6.410
342.69	6.478
343.04	6.486
343.40	6.645
343.76	6.593
344.12	6.471
344.47	6.473
344.83	6.525
345.19	6.516
345.54	6.455
345.90	6.319
346.26	6.289
346.61	6.095
346.97	6.188
347.32	6.048
347.68	6.138
348.04	6.183
348.39	6.208
348.75	6.240
349.11	6.312
349.46	6.343
349.82	6.402
350.18	6.418
350.53	6.553
350.89	6.483
351.24	6.591
351.60	6.548
351.96	6.596
352.31	6.551
352.67	6.386
353.02	6.412
353.38	6.435
353.74	6.453
354.09	6.450
354.45	6.412
354.80	6.403
355.16	6.441
355.52	6.411
355.87	6.379
356.23	6.497
356.58	6.592
356.94	6.519
357.29	6.511
357.65	6.510
358.00	6.466
358.36	6.461
358.72	6.379
359.07	6.258
359.43	6.328
359.78	6.329
360.14	6.301
360.49	6.338
360.85	6.353
361.20	6.379
361.56	6.432
361.91	6.445
362.27	6.479
362.62	6.585
362.98	6.636
363.33	6.668
363.69	6.715
364.04	6.693
364.40	6.692
364.75	6.725
365.11	6.732
365.46	6.643
365.82	6.619
366.17	6.565
366.53	6.532
366.88	6.561
367.24	6.589
367.59	6.622
367.95	6.669
368.30	6.671
368.66	6.699
369.01	6.729
369.37	6.795
369.72	6.858
370.08	6.934
370.43	6.982
370.78	7.031
371.14	7.050
371.49	7.038
371.85	7.057
372.20	7.115
372.56	7.124
372.91	7.140
373.26	7.165
373.62	7.146
373.97	7.175
374.33	7.204
374.68	7.198
375.03	7.163
375.39	7.170
375.74	7.201
376.10	7.255
376.45	7.311
376.80	7.339
377.16	7.310
377.51	7.386
377.87	7.496
378.22	7.526
378.57	7.542
378.93	7.641
379.28	7.671
379.63	7.753
379.99	7.804
380.34	7.815
380.70	7.881
381.05	8.026
381.40	8.081
381.76	8.071
382.11	8.123
382.46	8.178
382.82	8.171
383.17	8.228
383.52	8.218
383.88	8.215
384.23	8.303
384.58	8.307
384.94	8.324
385.29	8.398
385.64	8.436
385.99	8.472
386.35	8.552
386.70	8.643
387.05	8.698
387.41	8.720
387.76	8.730
388.11	8.700
388.47	8.730
388.82	8.787
389.17	8.837
389.52	8.874
389.88	8.962
390.23	9.014
390.58	9.030
390.93	9.098
391.29	9.216
391.64	9.274
391.99	9.405
392.34	9.462
392.70	9.538
393.05	9.552
393.40	9.568
393.75	9.607
394.11	9.625
394.46	9.692
394.81	9.756
395.16	9.803
395.52	9.917
395.87	9.911
396.22	9.998
396.57	9.985
396.92	10.011
397.28	10.053
397.63	10.060
397.98	10.129
398.33	10.197
398.68	10.268
399.04	10.282
399.39	10.251
399.74	10.314
400.09	10.334
400.44	10.392
400.80	10.454
401.15	10.471
401.50	10.538
401.85	10.565
402.20	10.557
402.55	10.562
402.90	10.605
403.26	10.706
403.61	10.759
403.96	10.812
404.31	10.888
404.66	10.948
405.01	11.048
405.36	11.122
405.72	11.203
406.07	11.313
406.42	11.403
406.77	11.470
407.12	11.507
407.47	11.611
407.82	11.668
408.17	11.710
408.53	11.776
408.88	11.858
409.23	11.892
409.58	11.936
409.93	11.989
410.28	12.033
410.63	12.100
410.98	12.133
411.33	12.107
411.68	12.166
412.03	12.167
412.38	12.219
412.73	12.236
413.09	12.245
413.44	12.260
413.79	12.263
414.14	12.265
414.49	12.253
414.84	12.308
415.19	12.291
415.54	12.278
415.89	12.286
416.24	12.267
416.59	12.275
416.94	12.290
417.29	12.294
417.64	12.301
417.99	12.296
418.34	12.317
418.69	12.300
419.04	12.339
419.39	12.382
419.74	12.446
420.09	12.464
420.44	12.493
420.79	12.529
421.14	12.563
421.49	12.601
421.84	12.657
422.19	12.708
422.54	12.780
422.89	12.849
423.24	12.887
423.59	12.932
423.94	13.034
424.29	13.132
424.64	13.256
424.99	13.391
425.34	13.537
425.68	13.661
426.03	13.808
426.38	13.937
426.73	14.065
427.08	14.178
427.43	14.293
427.78	14.361
428.13	14.431
428.48	14.499
428.83	14.544
429.18	14.584
429.53	14.671
429.87	14.729
430.22	14.778
430.57	14.853
430.92	14.906
431.27	14.963
431.62	15.031
431.97	15.078
432.32	15.136
432.67	15.215
433.01	15.304
433.36	15.386
433.71	15.473
434.06	15.547
434.41	15.595
434.76	15.701
435.11	15.801
435.45	15.864
435.80	15.914
436.15	15.982
436.50	16.012
436.85	16.036
437.20	16.059
437.54	16.084
437.89	16.126
438.24	16.165
438.59	16.208
438.94	16.226
439.29	16.285
439.63	16.343
439.98	16.369
440.33	16.438
440.68	16.501
441.03	16.542
441.37	16.591
441.72	16.633
442.07	16.696
442.42	16.736
442.76	16.787
443.11	16.823
443.46	16.863
443.81	16.877
444.16	16.899
444.50	16.914
444.85	16.953
445.20	17.006
445.55	17.070
445.89	17.106
446.24	17.161
446.59	17.256
446.94	17.344
447.28	17.437
447.63	17.558
447.98	17.667
448.32	17.785
448.67	17.870
449.02	17.944
449.37	18.014
449.71	18.105
450.06	18.195
450.41	18.220
450.75	18.267
451.10	18.314
451.45	18.358
451.79	18.410
452.14	18.455
452.49	18.527
452.84	18.551
453.18	18.611
453.53	18.632
453.88	18.656
454.22	18.669
454.57	18.684
454.92	18.704
455.26	18.739
455.61	18.726
455.95	18.697
456.30	18.687
456.65	18.693
456.99	18.683
457.34	18.720
457.69	18.730
458.03	18.749
458.38	18.774
458.73	18.839
459.07	18.878
459.42	18.951
459.76	19.049
460.11	19.153
460.46	19.258
460.80	19.362
461.15	19.472
461.49	19.588
461.84	19.703
462.19	19.826
462.53	19.882
462.88	19.954
463.22	20.007
463.57	20.072
463.91	20.109
464.26	20.187
464.61	20.242
464.95	20.282
465.30	20.342
465.64	20.415
465.99	20.457
466.33	20.500
466.68	20.531
467.02	20.578
467.37	20.634
467.71	20.696
468.06	20.721
468.41	20.782
468.75	20.826
469.10	20.854
469.44	20.887
469.79	20.920
470.13	20.979
470.48	21.038
470.82	21.119
471.17	21.152
471.51	21.176
471.86	21.216
472.20	21.195
472.55	21.196
472.89	21.197
473.23	21.177
473.58	21.175
473.92	21.127
474.27	21.135
474.61	21.080
474.96	21.073
475.30	21.037
475.65	21.016
475.99	21.042
476.34	21.025
476.68	21.029
477.02	21.053
477.37	21.061
477.71	21.081
478.06	21.070
478.40	21.054
478.75	21.049
479.09	21.102
479.43	21.154
479.78	21.256
480.12	21.371
480.47	21.526
480.81	21.668
481.15	21.823
481.50	22.022
481.84	22.262
482.19	22.541
482.53	22.729
482.87	22.774
483.22	22.666
483.56	22.396
483.90	22.120
484.25	21.894
484.59	21.775
484.94	21.631
485.28	21.436
485.62	21.178
485.97	20.893
486.31	20.681
486.65	20.634
487.00	20.750
487.34	21.036
487.68	21.324
488.03	21.530
488.37	21.579
488.71	21.641
489.06	21.704
489.40	21.756
489.74	21.817
490.09	21.880
490.43	21.912
490.77	21.957
491.11	22.014
491.46	22.097
491.80	22.155
492.14	22.232
492.49	22.300
492.83	22.364
493.17	22.431
493.51	22.465
493.86	22.533
494.20	22.599
494.54	22.663
494.88	22.696
495.23	22.727
495.57	22.758
495.91	22.819
496.25	22.869
496.60	22.938
496.94	23.028
497.28	23.124
497.62	23.213
497.97	23.317
498.31	23.418
498.65	23.524
498.99	23.649
499.33	23.773
499.68	23.857
500.02	23.960
500.36	24.038
500.70	24.120
501.04	24.196
501.39	24.261
501.73	24.303
502.07	24.361
502.41	24.429
502.75	24.450
503.09	24.503
503.44	24.558
503.78	24.615
504.12	24.681
504.46	24.738
504.80	24.784
505.14	24.789
505.49	24.853
505.83	24.887
506.17	24.948
506.51	25.009
506.85	25.043
507.19	25.074
507.53	25.094
507.87	25.123
508.22	25.168
508.56	25.219
508.90	25.320
509.24	25.383
509.58	25.453
509.92	25.500
510.26	25.579
510.60	25.679
510.94	25.776
511.28	25.874
511.63	26.004
511.97	26.116
512.31	26.211
512.65	26.279
512.99	26.345
513.33	26.421
513.67	26.476
514.01	26.527
514.35	26.548
514.69	26.573
515.03	26.614
515.37	26.612
515.71	26.639
516.05	26.689
516.39	26.734
516.73	26.758
517.07	26.828
517.41	26.890
517.75	26.964
518.09	27.021
518.43	27.126
518.77	27.225
519.11	27.325
519.45	27.418
519.79	27.522
520.13	27.628
520.47	27.755
520.81	27.849
521.15	27.941
521.49	28.014
521.83	28.096
522.17	28.110
522.51	28.128
522.85	28.141
523.19	28.182
523.53	28.242
523.87	28.356
524.21	28.482
524.55	28.591
524.89	28.714
525.23	28.830
525.57	28.952
525.91	29.067
526.25	29.183
526.58	29.305
526.92	29.434
527.26	29.532
527.60	29.589
527.94	29.621
528.28	29.669
528.62	29.697
528.96	29.748
529.30	29.791
529.64	29.842
529.97	29.880
530.31	29.917
530.65	29.921
530.99	29.950
531.33	30.017
531.67	30.110
532.01	30.191
532.35	30.288
532.68	30.356
533.02	30.443
533.36	30.527
533.70	30.612
534.04	30.708
534.38	30.821
534.71	30.950
535.05	31.036
535.39	31.124
535.73	31.211
536.07	31.285
536.41	31.380
536.74	31.465
537.08	31.563
537.42	31.684
537.76	31.783
538.10	31.880
538.43	31.931
538.77	32.025
539.11	32.108
539.45	32.193
539.79	32.295
540.12	32.391
540.46	32.463
540.80	32.513
541.14	32.584
541.47	32.650
541.81	32.715
542.15	32.816
542.49	32.907
542.82	33.002
543.16	33.122
543.50	33.247
543.84	33.323
544.17	33.452
544.51	33.616
544.85	33.705
545.18	33.838
545.52	34.000
545.86	34.130
546.20	34.292
546.53	34.464
546.87	34.600
547.21	34.731
547.54	34.922
547.88	35.109
548.22	35.244
548.55	35.404
548.89	35.537
549.23	35.623
549.56	35.736
549.90	35.822
550.24	35.878
550.57	35.918
550.91	35.985
551.25	36.026
551.58	36.049
551.92	36.119
552.26	36.255
552.59	36.378
552.93	36.535
553.27	36.671
553.60	36.778
553.94	36.916
554.27	37.078
554.61	37.214
554.95	37.397
555.28	37.524
555.62	37.613
555.95	37.677
556.29	37.742
556.63	37.804
556.96	37.874
557.30	37.951
557.63	38.009
557.97	38.067
558.31	38.132
558.64	38.175
558.98	38.209
559.31	38.322
559.65	38.337
559.98	38.403
560.32	38.463
560.65	38.505
560.99	38.549
561.33	38.573
561.66	38.592
562.00	38.601
562.33	38.606
562.67	38.640
563.00	38.655
563.34	38.695
563.67	38.694
564.01	38.698
564.34	38.726
564.68	38.793
565.01	38.855
565.35	38.960
565.68	39.052
566.02	39.118
566.35	39.231
566.69	39.256
567.02	39.339
567.36	39.456
567.69	39.479
568.03	39.492
568.36	39.490
568.69	39.554
569.03	39.550
569.36	39.537
569.70	39.528
570.03	39.523
570.37	39.540
570.70	39.563
571.04	39.535
571.37	39.570
571.70	39.655
572.04	39.727
572.37	39.759
572.71	39.819
573.04	39.887
573.37	39.987
573.71	40.105
574.04	40.243
574.38	40.350
574.71	40.508
575.04	40.693
575.38	40.831
575.71	40.977
576.05	41.124
576.38	41.283
576.71	41.447
577.05	41.628
577.38	41.744
577.71	41.903
578.05	42.032
578.38	42.136
578.71	42.233
579.05	42.315
579.38	42.386
579.71	42.466
580.05	42.561
580.38	42.673
580.71	42.735
581.05	42.786
581.38	42.829
581.71	42.919
582.05	42.973
582.38	43.025
582.71	43.090
583.04	43.157
583.38	43.224
583.71	43.234
584.04	43.260
584.38	43.320
584.71	43.373
585.04	43.414
585.37	43.415
585.71	43.437
586.04	43.428
586.37	43.447
586.70	43.453
587.04	43.489
587.37	43.520
587.70	43.498
588.03	43.478
588.37	43.457
588.70	43.464
589.03	43.530
589.36	43.584
589.69	43.644
590.03	43.654
590.36	43.702
590.69	43.686
591.02	43.717
591.35	43.773
591.69	43.743
592.02	43.760
592.35	43.734
592.68	43.656
593.01	43.562
593.35	43.496
593.68	43.451
594.01	43.392
594.34	43.411
594.67	43.340
595.00	43.252
595.34	43.319
595.67	43.353
596.00	43.408
596.33	43.491
596.66	43.586
596.99	43.674
597.32	43.820
597.65	43.917
597.99	43.978
598.32	44.094
598.65	44.202
598.98	44.240
599.31	44.286
599.64	44.265
599.97	44.267
600.30	44.249
600.63	44.209
600.96	44.123
601.30	44.067
601.63	44.000
601.96	43.950
602.29	43.994
602.62	43.957
602.95	43.942
603.28	43.979
603.61	43.977
603.94	43.998
604.27	44.029
604.60	44.099
604.93	44.216
605.26	44.287
605.59	44.335
605.92	44.365
606.25	44.435
606.58	44.476
606.91	44.505
607.24	44.535
607.57	44.600
607.90	44.695
608.23	44.720
608.56	44.729
608.89	44.770
609.22	44.888
609.55	45.007
609.88	45.131
610.21	45.271
610.54	45.429
610.87	45.547
611.20	45.650
611.53	45.763
611.86	45.913
612.19	46.014
612.52	46.134
612.85	46.222
613.18	46.245
613.51	46.282
613.84	46.308
614.17	46.302
614.49	46.330
614.82	46.385
615.15	46.380
615.48	46.390
615.81	46.459
616.14	46.471
616.47	46.438
616.80	46.490
617.13	46.523
617.46	46.571
617.78	46.585
618.11	46.685
618.44	46.715
618.77	46.748
619.10	46.676
619.43	46.674
619.76	46.699
620.09	46.727
620.41	46.687
620.74	46.717
621.07	46.670
621.40	46.669
621.73	46.620
622.06	46.508
622.38	46.472
622.71	46.449
623.04	46.353
623.37	46.306
623.70	46.279
624.02	46.231
624.35	46.109
624.68	46.091
625.01	46.050
625.34	46.000
625.66	46.051
625.99	46.043
626.32	46.121
626.65	46.205
626.98	46.274
627.30	46.326
627.63	46.400
627.96	46.503
628.29	46.539
628.61	46.600
628.94	46.645
629.27	46.666
629.60	46.707
629.92	46.732
630.25	46.716
630.58	46.639
630.91	46.624
631.23	46.543
631.56	46.484
631.89	46.428
632.21	46.451
632.54	46.447
632.87	46.493
633.19	46.470
633.52	46.415
633.85	46.437
634.18	46.516
634.50	46.530
634.83	46.650
635.16	46.698
635.48	46.798
635.81	46.820
636.14	46.854
636.46	46.864
636.79	46.960
637.11	47.052
637.44	47.072
637.77	47.123
638.09	47.184
638.42	47.215
638.75	47.248
639.07	47.256
639.40	47.284
639.73	47.336
640.05	47.340
640.38	47.296
640.70	47.298
641.03	47.311
641.36	47.272
641.68	47.285
642.01	47.287
642.33	47.312
642.66	47.325
642.98	47.279
643.31	47.309
643.64	47.345
643.96	47.318
644.29	47.337
644.61	47.346
644.94	47.383
645.26	47.336
645.59	47.284
645.91	47.268
646.24	47.244
646.56	47.270
646.89	47.202
647.22	47.166
647.54	47.173
647.87	47.199
648.19	47.160
648.52	47.080
648.84	47.030
649.17	46.999
649.49	46.908
649.82	46.846
650.14	46.823
650.47	46.814
650.79	46.766
651.11	46.723
651.44	46.663
651.76	46.665
652.09	46.715
652.41	46.728
652.74	46.698
653.06	46.689
653.39	46.742
653.71	46.745
654.04	46.732
654.36	46.756
654.68	46.709
655.01	46.671
655.33	46.594
655.66	46.457
655.98	46.330
656.30	46.265
656.63	46.151
656.95	46.070
657.28	45.944
657.60	45.840
657.92	45.725
658.25	45.716
658.57	45.651
658.90	45.616
659.22	45.594
659.54	45.601
659.87	45.616
660.19	45.723
660.51	45.748
660.84	45.757
661.16	45.892
661.48	45.957
661.81	46.004
662.13	45.999
662.45	46.073
662.78	46.148
663.10	46.283
663.42	46.345
663.75	46.380
664.07	46.392
664.39	46.446
664.72	46.376
665.04	46.394
665.36	46.330
665.69	46.310
666.01	46.222
666.33	46.180
666.65	46.096
666.98	46.099
667.30	46.044
667.62	45.995
667.94	45.947
668.27	45.908
668.59	45.840
668.91	45.908
669.23	45.922
669.56	45.910
669.88	45.850
670.20	45.829
670.52	45.793
670.85	45.874
671.17	45.904
671.49	45.898
671.81	45.911
672.13	45.919
672.46	45.919
672.78	45.926
673.10	45.875
673.42	45.923
673.74	45.893
674.07	45.845
674.39	45.690
674.71	45.581
675.03	45.502
675.35	45.371
675.67	45.247
676.00	45.126
676.32	44.985
676.64	44.945
676.96	44.890
677.28	44.840
677.60	44.698
677.92	44.650
678.25	44.634
678.57	44.664
678.89	44.733
679.21	44.728
679.53	44.695
679.85	44.833
680.17	44.857
680.49	44.812
680.81	44.816
681.13	44.889
681.46	44.922
681.78	44.904
682.10	44.903
682.42	44.876
682.74	44.918
683.06	44.930
683.38	44.934
683.70	44.923
684.02	44.945
684.34	45.011
684.66	44.997
684.98	44.931
685.30	44.997
685.62	44.963
685.94	44.928
686.26	44.901
686.58	44.882
686.90	44.735
687.22	44.741
687.54	44.739
687.86	44.648
688.18	44.630
688.50	44.689
688.82	44.610
689.14	44.572
689.46	44.502
689.78	44.474
690.10	44.427
690.42	44.414
690.74	44.347
691.06	44.234
691.38	44.146
691.70	44.037
692.02	43.822
692.34	43.706
692.66	43.627
692.98	43.575
693.30	43.441
693.62	43.260
693.94	43.199
694.26	43.060
694.57	42.934
694.89	42.775
695.21	42.596
695.53	42.530
695.85	42.411
696.17	42.281
696.49	42.096
696.81	42.076
697.13	42.059
697.44	41.933
697.76	41.912
698.08	41.881
698.40	41.897
698.72	41.917
699.04	41.974
699.36	41.978
699.67	41.944
699.99	41.977
700.31	41.972
700.63	41.968
700.95	41.928
701.27	41.937
701.58	41.986
701.90	42.001
702.22	42.029
702.54	42.022
702.86	42.001
703.17	42.039
703.49	42.022
703.81	41.888
704.13	41.889
704.45	41.922
704.76	41.834
705.08	41.755
705.40	41.634
705.72	41.524
706.03	41.455
706.35	41.451
706.67	41.461
706.99	41.457
707.30	41.491
707.62	41.379
707.94	41.395
708.26	41.357
708.57	41.211
708.89	41.257
709.21	41.335
709.53	41.257
709.84	41.197
710.16	41.151
710.48	41.141
710.79	41.104
711.11	41.092
711.43	40.981
711.74	40.904
712.06	41.012
712.38	40.926
712.69	40.835
713.01	40.777
713.33	40.642
713.64	40.519
713.96	40.432
714.28	40.365
714.59	40.387
714.91	40.513
715.23	40.601
715.54	40.514
715.86	40.565
716.17	40.533
716.49	40.441
716.81	40.520
717.12	40.434
717.44	40.446
717.76	40.384
718.07	40.261
718.39	39.976
718.70	39.923
719.02	39.889
719.33	39.710
719.65	39.634
719.97	39.682
720.28	39.647
720.60	39.715
720.91	39.692
721.23	39.541
721.54	39.571
721.86	39.700
722.17	39.657
722.49	39.719
722.81	39.707
723.12	39.784
723.44	39.838
723.75	39.835
724.07	39.781
724.38	39.740
724.70	39.689
725.01	39.670
725.33	39.573
725.64	39.525
725.96	39.327
726.27	39.277
726.59	39.193
726.90	39.023
727.22	38.959
727.53	38.895
727.84	38.880
728.16	38.859
728.47	38.833
728.79	38.703
729.10	38.455
729.42	38.454
729.73	38.423
730.05	38.303
730.36	38.265
730.67	38.142
730.99	38.157
731.30	37.953
731.62	37.991
731.93	37.819
732.24	37.731
732.56	37.716
732.87	37.696
733.19	37.549
733.50	37.489
733.81	37.266
734.13	37.189
734.44	37.024
734.76	36.996
735.07	36.707
735.38	36.574
735.70	36.491
736.01	36.439
736.32	36.330
736.64	36.318
736.95	36.191
737.26	36.399
737.58	36.258
737.89	36.278
738.20	36.144
738.52	36.240
738.83	36.253
739.14	36.256
739.45	36.227
739.77	36.038
740.08	35.902
740.39	35.900
740.71	35.515
741.02	35.436
741.33	35.200
741.64	35.143
741.96	35.141
742.27	35.141
742.58	34.896
742.90	34.821
743.21	34.860
743.52	34.791
743.83	34.647
744.14	34.801
744.46	34.842
744.77	34.801
745.08	34.942
745.39	34.808
745.71	34.707
746.02	34.681
746.33	34.782
746.64	34.771
746.95	34.764
747.27	34.666
747.58	34.581
747.89	34.466
748.20	34.538
748.51	34.465
748.82	34.325
749.14	34.100
749.45	34.086
749.76	33.892
750.07	33.826
750.38	33.626
750.69	33.641
751.01	33.675
751.32	33.596
751.63	33.302
751.94	33.149
752.25	33.183
752.56	33.194
752.87	33.331
753.18	33.230
753.49	32.981
753.81	32.999
754.12	33.047
754.43	32.975
754.74	32.967
755.05	33.146
755.36	33.298
755.67	33.471
755.98	33.807
756.29	33.909
756.60	34.068
756.91	34.485
757.22	34.822
757.53	34.887
757.84	34.932
758.15	35.246
758.46	35.150
758.77	35.341
759.09	35.415
759.40	35.455
759.71	35.565
760.02	35.569
760.33	35.507
760.64	35.586
760.95	35.755
761.26	35.817
761.57	35.683
761.88	35.925
762.18	35.801
762.49	35.749
762.80	35.604
763.11	35.547
763.42	35.473
763.73	35.350
764.04	35.044
764.35	34.727
764.66	34.555
764.97	34.366
765.28	33.951
765.59	33.654
765.90	33.340
766.21	33.117
766.52	32.505
766.83	32.314
767.14	32.057
767.44	31.856
767.75	31.618
768.06	31.422
768.37	31.490
768.68	31.349
768.99	31.284
769.30	31.087
769.61	30.781
769.91	30.972
770.22	30.925
770.53	30.936
770.84	30.952
771.15	30.879
771.46	30.681
771.77	30.331
772.07	30.516
772.38	30.279
772.69	30.298
773.00	30.235
773.31	30.048
773.61	29.739
773.92	29.604
774.23	29.431
774.54	29.373
774.85	29.407
775.15	29.248
775.46	29.095
775.77	29.116
776.08	29.074
776.39	29.033
776.69	29.017
777.00	29.034
777.31	28.766
777.62	28.878
777.92	28.938
778.23	28.888
778.54	29.149
778.85	29.286
779.15	29.128
779.46	29.017
779.77	29.251
780.07	29.210
780.38	29.444
780.69	29.581
781.00	29.607
781.30	29.715
781.61	29.740
781.92	29.712
782.22	29.556
782.53	29.699
782.84	29.760
783.14	29.846
783.45	29.942
783.76	29.676
784.06	29.870
784.37	29.859
784.68	29.913
784.98	29.861
785.29	30.015
785.60	30.126
785.90	30.388
786.21	30.466
786.51	30.645
786.82	30.650
787.13	30.702
787.43	30.729
787.74	30.817
788.04	30.830
788.35	30.939
788.66	30.888
788.96	30.594
789.27	30.450
789.57	30.477
789.88	30.281
790.19	30.031
790.49	30.079
790.80	30.027
791.10	30.100
791.41	30.079
791.71	29.978
792.02	29.697
792.32	29.684
792.63	29.392
792.93	29.348
793.24	29.265
793.54	29.678
793.85	29.701
794.15	29.683
794.46	29.772
794.76	29.869
795.07	29.866
795.37	29.956
795.68	30.385
795.98	30.662
796.29	30.868
796.59	30.733
796.90	30.380
797.20	30.518
797.51	30.277
797.81	29.938
798.12	29.811
798.42	29.891
798.72	29.933
799.03	29.849
799.33	29.845
799.64	29.433
799.94	29.795
800.25	29.958
800.55	29.816
800.85	30.145
801.16	30.178
801.46	29.792
801.77	29.826
802.07	29.993
802.37	29.868
802.68	29.764
802.98	30.017
803.28	29.659
803.59	29.845
803.89	29.767
804.20	29.674
804.50	29.510
804.80	29.903
805.11	29.799
805.41	29.383
805.71	29.132
806.02	29.022
806.32	28.703
806.62	28.692
806.93	28.514
807.23	28.476
807.53	28.661
807.83	29.043
808.14	28.983
808.44	29.203
808.74	29.440
809.05	29.694
809.35	29.995
809.65	30.280
809.95	30.421
810.26	30.562
810.56	31.033
810.86	30.711
811.16	30.451
811.47	30.887
811.77	30.860
812.07	31.361
812.37	31.299
812.68	31.738
812.98	31.871
813.28	32.127
813.58	32.414
813.88	32.020
814.19	32.752
814.49	33.277
814.79	33.054
815.09	33.084
815.39	32.944
815.70	33.286
816.00	33.237
816.30	33.556
816.60	33.358
816.90	33.190
817.20	33.309
817.50	32.763
817.81	32.677
818.11	32.645
818.41	32.846
818.71	32.664
819.01	32.572
819.31	32.476
819.61	32.539
819.92	32.645
820.22	32.772
820.52	32.765
820.82	32.838
821.12	32.766
821.42	32.747
821.72	32.692
822.02	32.748
822.32	32.784
822.62	32.830
822.92	32.764
823.22	32.682
823.52	32.617
823.83	32.637
824.13	32.606
824.43	32.557
824.73	32.582
825.03	32.558
825.33	32.520
825.63	32.420
825.93	32.329
826.23	32.184
826.53	32.230
826.83	32.221
827.13	32.055
827.43	31.952
827.73	32.086
828.03	31.984
828.33	32.013
828.63	31.752
828.93	31.738
829.23	31.702
829.53	31.817
829.83	31.798
830.13	31.631
830.42	31.753
830.72	31.755
831.02	31.541
831.32	31.505
831.62	31.159
831.92	31.560
832.22	31.426
832.52	31.417
832.82	31.546
833.12	31.259
833.42	31.260
833.72	31.100
834.01	31.011
834.31	30.997
834.61	31.008
834.91	31.195
835.21	30.645
835.51	30.547
835.81	29.948
836.11	29.584
836.40	29.831
836.70	29.345
837.00	29.000
837.30	29.172
837.60	29.510
837.90	29.516
838.19	29.300
838.49	29.558
838.79	29.757
839.09	30.131
839.39	29.979
839.68	29.384
839.98	29.725
840.28	30.023
840.58	29.555
840.88	29.051
841.17	28.750
841.47	28.575
841.77	28.223
842.07	27.987
842.36	28.033
842.66	28.071
842.96	28.191
843.26	27.689
843.55	27.059
843.85	26.455
844.15	25.640
844.45	24.920
844.74	25.434
845.04	27.092
845.34	27.175
845.63	27.473
845.93	27.344
846.23	28.733
846.53	28.926
846.82	28.972
847.12	29.318
847.42	29.541
847.71	29.467
848.01	27.805
848.31	28.063
848.60	28.097
848.90	27.516
849.19	27.386
849.49	25.407
849.79	24.701
850.08	25.712
850.38	26.241
850.68	25.658
850.97	26.725
851.27	27.762
851.56	25.909
851.86	26.285
852.16	27.191
852.45	27.039
852.75	28.230
853.04	27.790
853.34	28.318
853.64	28.491
853.93	30.574
854.23	30.596
854.52	31.240
854.82	30.722
855.11	30.194
855.41	28.952
855.70	28.361
856.00	28.404
856.30	29.393
856.59	28.702
856.89	27.918
857.18	25.510
857.48	25.168
857.77	24.981
858.07	26.110
858.36	26.789
858.66	28.220
858.95	28.780
859.25	28.072
859.54	27.635
859.84	27.782
860.13	27.898
860.42	28.991
860.72	29.100
861.01	29.363
861.31	29.654
861.60	29.835
861.90	30.219
862.19	28.680
862.49	28.446
862.78	29.363
863.07	28.316
863.37	29.823
863.66	30.315
863.96	29.620
864.25	29.215
864.54	29.224
864.84	28.490
865.13	26.779
865.43	28.135
865.72	30.903
866.01	29.519
866.31	27.772
866.60	17.265
866.89	24.644
>>>>>End Spectral Data<<<<<
