OOIBase32 Version 2.0.0.6 Data File
++++++++++++++++++++++++++++++++++++
Date: 01-22-2012, 21:20:47
User: Valued Ocean Optics Customer
Spectrometer Serial Number: USB2E2917
Spectrometer Channel: Master
Integration Time (msec): 4
Spectra Averaged: 10
Boxcar Smoothing: 5
Correct for Electrical Dark: Enabled
Time Normalized: Disabled
Dual-beam Reference: Disabled
Reference Channel: Master
Temperature: Not acquired
Spectrometer Type: S2000
ADC Type: USB2000
Number of Pixels in File: 2048
Graph Title: 
>>>>>Begin Spectral Data<<<<<
180.30	0.000
180.67	0.000
181.03	39.957
181.40	21.252
181.77	-164.960
182.14	75.179
182.51	641.902
182.88	-15.117
183.25	86.367
183.62	-44.003
183.99	-42.411
184.36	219.120
184.73	18.236
185.10	416.112
185.46	-28.716
185.83	49.141
186.20	18.952
186.57	262.053
186.94	48.449
187.31	-15.115
187.68	-490.275
188.05	-296.122
188.42	-106.367
188.78	220.968
189.15	98.010
189.52	71.266
189.89	62.932
190.26	61.627
190.63	65.764
191.00	43.681
191.37	50.715
191.73	58.128
192.10	52.510
192.47	23.650
192.84	-66.419
193.21	-139.090
193.58	-240.219
193.94	-248.314
194.31	-143.344
194.68	-69.349
195.05	-59.458
195.42	-90.782
195.79	-89.577
196.15	-51.868
196.52	-35.888
196.89	-42.125
197.26	-46.639
197.63	-23.529
198.00	-30.897
198.36	-44.714
198.73	41.750
199.10	55.336
199.47	64.674
199.84	53.689
200.20	10.409
200.57	34.340
200.94	38.541
201.31	54.523
201.68	44.012
202.04	38.008
202.41	38.329
202.78	28.188
203.15	21.799
203.51	16.247
203.88	13.017
204.25	12.820
204.62	1.889
204.98	9.617
205.35	-7.768
205.72	-23.099
206.09	-53.083
206.46	-38.976
206.82	-66.038
207.19	-95.048
207.56	-133.506
207.92	-141.488
208.29	-85.536
208.66	-60.850
209.03	-85.975
209.39	-58.223
209.76	-52.438
210.13	-27.666
210.50	-54.095
210.86	-86.607
211.23	-120.602
211.60	-113.713
211.96	-124.443
212.33	-186.497
212.70	7347.209
213.07	563.310
213.43	422.053
213.80	1130.855
214.17	238.408
214.53	1142.139
214.90	-109.360
215.27	-16.283
215.63	-41.440
216.00	-16.283
216.37	-19.784
216.74	3.354
217.10	-0.835
217.47	-14.338
217.84	-17.991
218.20	-15.880
218.57	-2.504
218.94	-4.643
219.30	2.727
219.67	11.643
220.04	12.442
220.40	26.693
220.77	19.399
221.13	25.067
221.50	33.143
221.87	35.374
222.23	40.635
222.60	31.814
222.97	25.052
223.33	19.071
223.70	9.720
224.07	6.053
224.43	-3.047
224.80	2.042
225.16	-0.387
225.53	-3.076
225.90	-2.341
226.26	-1.412
226.63	-1.663
226.99	-2.488
227.36	-2.488
227.73	-0.826
228.09	-0.545
228.46	1.809
228.82	0.247
229.19	0.690
229.56	-2.216
229.92	-3.596
230.29	-3.654
230.65	-2.680
231.02	-4.591
231.38	-3.786
231.75	-4.740
232.12	-4.069
232.48	-5.998
232.85	-4.908
233.21	-5.608
233.58	-1.110
233.94	1.512
234.31	2.734
234.68	1.183
235.04	6.849
235.41	6.577
235.77	7.037
236.14	6.555
236.50	8.211
236.87	8.289
237.23	9.556
237.60	6.258
237.96	4.731
238.33	2.689
238.69	2.870
239.06	1.110
239.42	1.041
239.79	1.595
240.15	2.475
240.52	2.341
240.88	1.511
241.25	0.516
241.61	1.128
241.98	1.816
242.34	2.408
242.71	2.899
243.07	3.060
243.44	3.099
243.80	2.626
244.17	1.787
244.53	1.265
244.90	1.732
245.26	2.292
245.63	2.514
245.99	2.297
246.36	2.089
246.72	2.059
247.09	1.870
247.45	2.196
247.81	2.496
248.18	2.765
248.54	3.280
248.91	3.101
249.27	2.683
249.64	2.697
250.00	2.756
250.36	3.465
250.73	2.709
251.09	2.265
251.46	1.694
251.82	1.485
252.19	1.576
252.55	1.291
252.91	1.672
253.28	1.796
253.64	1.835
254.01	1.269
254.37	0.832
254.73	1.481
255.10	2.369
255.46	3.203
255.83	2.796
256.19	2.488
256.55	2.414
256.92	2.734
257.28	2.799
257.65	2.839
258.01	3.007
258.37	2.938
258.74	2.867
259.10	2.954
259.46	2.568
259.83	2.861
260.19	3.105
260.55	2.986
260.92	2.584
261.28	2.678
261.64	2.448
262.01	2.237
262.37	2.070
262.73	1.986
263.10	1.324
263.46	1.540
263.82	1.140
264.19	0.920
264.55	1.474
264.91	1.663
265.28	1.740
265.64	1.684
266.00	1.705
266.37	2.195
266.73	2.488
267.09	2.446
267.46	2.150
267.82	2.463
268.18	2.640
268.54	2.355
268.91	2.489
269.27	2.472
269.63	2.665
270.00	2.749
270.36	2.664
270.72	2.513
271.08	2.601
271.45	2.564
271.81	2.678
272.17	2.866
272.53	3.043
272.90	3.099
273.26	2.845
273.62	2.873
273.98	3.180
274.35	2.925
274.71	2.871
275.07	3.198
275.43	3.612
275.80	3.595
276.16	3.568
276.52	3.558
276.88	3.425
277.25	3.220
277.61	3.208
277.97	3.161
278.33	3.325
278.69	3.546
279.06	3.282
279.42	3.181
279.78	3.182
280.14	3.106
280.50	3.197
280.87	3.163
281.23	3.382
281.59	3.439
281.95	3.269
282.31	3.194
282.68	3.223
283.04	3.214
283.40	2.903
283.76	2.715
284.12	2.734
284.48	2.687
284.85	2.617
285.21	2.606
285.57	2.491
285.93	2.513
286.29	2.354
286.65	2.284
287.02	2.417
287.38	2.599
287.74	2.807
288.10	2.587
288.46	2.364
288.82	2.316
289.18	2.113
289.54	2.110
289.91	2.149
290.27	2.639
290.63	2.562
290.99	2.425
291.35	2.382
291.71	2.258
292.07	2.316
292.43	2.335
292.79	2.484
293.16	2.695
293.52	2.782
293.88	2.702
294.24	2.516
294.60	2.530
294.96	2.583
295.32	2.703
295.68	2.456
296.04	2.571
296.40	2.594
296.76	2.485
297.12	2.531
297.49	2.567
297.85	2.828
298.21	2.796
298.57	2.649
298.93	2.626
299.29	2.618
299.65	3.011
300.01	2.906
300.37	3.100
300.73	3.134
301.09	3.179
301.45	2.983
301.81	2.808
302.17	2.704
302.53	2.782
302.89	2.834
303.25	2.836
303.61	2.653
303.97	2.694
304.33	2.757
304.69	2.931
305.05	2.989
305.41	3.208
305.77	3.112
306.13	3.232
306.49	3.456
306.85	3.595
307.21	3.468
307.57	3.521
307.93	3.508
308.29	3.420
308.65	3.168
309.01	3.136
309.37	3.032
309.73	3.194
310.09	3.126
310.45	2.960
310.81	2.857
311.17	2.880
311.53	2.915
311.89	3.033
312.25	3.028
312.61	3.209
312.96	3.195
313.32	3.160
313.68	3.054
314.04	3.197
314.40	3.193
314.76	3.246
315.12	3.398
315.48	3.473
315.84	3.223
316.20	3.130
316.56	3.133
316.92	2.947
317.27	3.114
317.63	2.974
317.99	2.804
318.35	2.845
318.71	2.942
319.07	2.990
319.43	2.744
319.79	2.885
320.15	2.980
320.50	3.093
320.86	3.270
321.22	3.245
321.58	3.280
321.94	3.312
322.30	3.511
322.66	3.486
323.01	3.335
323.37	3.577
323.73	3.475
324.09	3.712
324.45	3.671
324.81	3.681
325.17	3.705
325.52	3.893
325.88	3.874
326.24	3.645
326.60	3.630
326.96	3.657
327.31	3.329
327.67	3.520
328.03	3.237
328.39	3.135
328.75	3.094
329.11	3.022
329.46	3.011
329.82	3.098
330.18	3.267
330.54	3.221
330.90	3.240
331.25	3.410
331.61	3.368
331.97	3.412
332.33	3.424
332.68	3.404
333.04	3.468
333.40	3.420
333.76	3.458
334.11	3.372
334.47	3.438
334.83	3.457
335.19	3.517
335.54	3.445
335.90	3.428
336.26	3.390
336.62	3.470
336.97	3.368
337.33	3.363
337.69	3.287
338.05	3.363
338.40	3.291
338.76	3.307
339.12	3.191
339.48	3.126
339.83	3.117
340.19	3.252
340.55	3.201
340.90	3.222
341.26	3.208
341.62	3.229
341.97	3.168
342.33	3.255
342.69	3.286
343.04	3.360
343.40	3.500
343.76	3.507
344.12	3.501
344.47	3.508
344.83	3.523
345.19	3.520
345.54	3.442
345.90	3.399
346.26	3.335
346.61	3.225
346.97	3.294
347.32	3.226
347.68	3.280
348.04	3.290
348.39	3.294
348.75	3.376
349.11	3.366
349.46	3.434
349.82	3.416
350.18	3.364
350.53	3.473
350.89	3.393
351.24	3.406
351.60	3.365
351.96	3.339
352.31	3.365
352.67	3.231
353.02	3.249
353.38	3.245
353.74	3.288
354.09	3.327
354.45	3.214
354.80	3.168
355.16	3.189
355.52	3.172
355.87	3.103
356.23	3.078
356.58	3.150
356.94	3.150
357.29	3.159
357.65	3.169
358.00	3.215
358.36	3.289
358.72	3.274
359.07	3.221
359.43	3.272
359.78	3.317
360.14	3.319
360.49	3.305
360.85	3.241
361.20	3.248
361.56	3.275
361.91	3.208
362.27	3.185
362.62	3.238
362.98	3.288
363.33	3.217
363.69	3.203
364.04	3.189
364.40	3.189
364.75	3.194
365.11	3.145
365.46	3.080
365.82	3.026
366.17	2.935
366.53	2.895
366.88	2.870
367.24	2.920
367.59	2.920
367.95	2.942
368.30	2.960
368.66	2.999
369.01	3.052
369.37	3.087
369.72	3.146
370.08	3.270
370.43	3.315
370.78	3.385
371.14	3.346
371.49	3.325
371.85	3.304
372.20	3.298
372.56	3.316
372.91	3.299
373.26	3.335
373.62	3.305
373.97	3.240
374.33	3.195
374.68	3.120
375.03	3.125
375.39	3.089
375.74	3.074
376.10	3.105
376.45	3.101
376.80	3.100
377.16	3.033
377.51	3.054
377.87	3.085
378.22	3.109
378.57	3.102
378.93	3.148
379.28	3.242
379.63	3.269
379.99	3.235
380.34	3.200
380.70	3.229
381.05	3.262
381.40	3.258
381.76	3.273
382.11	3.275
382.46	3.295
382.82	3.296
383.17	3.233
383.52	3.217
383.88	3.222
384.23	3.268
384.58	3.255
384.94	3.290
385.29	3.316
385.64	3.316
385.99	3.301
386.35	3.307
386.70	3.307
387.05	3.324
387.41	3.321
387.76	3.325
388.11	3.330
388.47	3.289
388.82	3.259
389.17	3.252
389.52	3.231
389.88	3.280
390.23	3.313
390.58	3.245
390.93	3.271
391.29	3.326
391.64	3.336
391.99	3.310
392.34	3.363
392.70	3.386
393.05	3.376
393.40	3.411
393.75	3.405
394.11	3.390
394.46	3.461
394.81	3.459
395.16	3.449
395.52	3.478
395.87	3.507
396.22	3.509
396.57	3.494
396.92	3.519
397.28	3.505
397.63	3.503
397.98	3.512
398.33	3.514
398.68	3.526
399.04	3.484
399.39	3.451
399.74	3.469
400.09	3.509
400.44	3.520
400.80	3.521
401.15	3.537
401.50	3.561
401.85	3.573
402.20	3.597
402.55	3.601
402.90	3.644
403.26	3.663
403.61	3.649
403.96	3.635
404.31	3.685
404.66	3.709
405.01	3.742
405.36	3.748
405.72	3.784
406.07	3.804
406.42	3.863
406.77	3.867
407.12	3.904
407.47	3.980
407.82	3.997
408.17	3.967
408.53	3.997
408.88	4.019
409.23	4.014
409.58	4.045
409.93	4.072
410.28	4.045
410.63	4.087
410.98	4.119
411.33	4.112
411.68	4.160
412.03	4.204
412.38	4.230
412.73	4.264
413.09	4.301
413.44	4.310
413.79	4.343
414.14	4.393
414.49	4.413
414.84	4.419
415.19	4.438
415.54	4.438
415.89	4.434
416.24	4.437
416.59	4.448
416.94	4.463
417.29	4.453
417.64	4.453
417.99	4.470
418.34	4.473
418.69	4.483
419.04	4.508
419.39	4.547
419.74	4.587
420.09	4.613
420.44	4.633
420.79	4.654
421.14	4.694
421.49	4.733
421.84	4.752
422.19	4.795
422.54	4.840
422.89	4.864
423.24	4.883
423.59	4.909
423.94	4.954
424.29	4.979
424.64	5.056
424.99	5.125
425.34	5.173
425.68	5.220
426.03	5.292
426.38	5.341
426.73	5.372
427.08	5.412
427.43	5.471
427.78	5.508
428.13	5.553
428.48	5.575
428.83	5.595
429.18	5.596
429.53	5.646
429.87	5.673
430.22	5.700
430.57	5.757
430.92	5.760
431.27	5.792
431.62	5.814
431.97	5.846
432.32	5.856
432.67	5.884
433.01	5.955
433.36	5.990
433.71	6.022
434.06	6.057
434.41	6.081
434.76	6.163
435.11	6.231
435.45	6.286
435.80	6.324
436.15	6.372
436.50	6.400
436.85	6.412
437.20	6.428
437.54	6.439
437.89	6.460
438.24	6.489
438.59	6.513
438.94	6.510
439.29	6.531
439.63	6.570
439.98	6.602
440.33	6.648
440.68	6.686
441.03	6.725
441.37	6.769
441.72	6.818
442.07	6.876
442.42	6.901
442.76	6.932
443.11	6.948
443.46	6.971
443.81	6.992
444.16	7.004
444.50	7.016
444.85	7.040
445.20	7.074
445.55	7.100
445.89	7.120
446.24	7.166
446.59	7.210
446.94	7.270
447.28	7.324
447.63	7.381
447.98	7.432
448.32	7.492
448.67	7.533
449.02	7.582
449.37	7.650
449.71	7.697
450.06	7.751
450.41	7.796
450.75	7.843
451.10	7.883
451.45	7.932
451.79	7.988
452.14	8.041
452.49	8.086
452.84	8.108
453.18	8.126
453.53	8.154
453.88	8.188
454.22	8.212
454.57	8.206
454.92	8.228
455.26	8.238
455.61	8.249
455.95	8.272
456.30	8.302
456.65	8.323
456.99	8.349
457.34	8.381
457.69	8.380
458.03	8.409
458.38	8.478
458.73	8.524
459.07	8.565
459.42	8.619
459.76	8.652
460.11	8.717
460.46	8.800
460.80	8.853
461.15	8.892
461.49	8.971
461.84	9.030
462.19	9.059
462.53	9.095
462.88	9.137
463.22	9.171
463.57	9.237
463.91	9.252
464.26	9.291
464.61	9.336
464.95	9.400
465.30	9.463
465.64	9.506
465.99	9.543
466.33	9.601
466.68	9.621
467.02	9.667
467.37	9.696
467.71	9.723
468.06	9.728
468.41	9.749
468.75	9.762
469.10	9.761
469.44	9.782
469.79	9.819
470.13	9.819
470.48	9.884
470.82	9.912
471.17	9.927
471.51	9.974
471.86	10.021
472.20	10.040
472.55	10.071
472.89	10.093
473.23	10.106
473.58	10.120
473.92	10.155
474.27	10.157
474.61	10.161
474.96	10.172
475.30	10.196
475.65	10.208
475.99	10.258
476.34	10.255
476.68	10.281
477.02	10.312
477.37	10.320
477.71	10.327
478.06	10.343
478.40	10.350
478.75	10.380
479.09	10.415
479.43	10.471
479.78	10.535
480.12	10.629
480.47	10.717
480.81	10.814
481.15	10.915
481.50	11.030
481.84	11.178
482.19	11.335
482.53	11.457
482.87	11.491
483.22	11.449
483.56	11.336
483.90	11.202
484.25	11.108
484.59	11.065
484.94	11.007
485.28	10.929
485.62	10.814
485.97	10.680
486.31	10.577
486.65	10.559
487.00	10.636
487.34	10.789
487.68	10.960
488.03	11.079
488.37	11.115
488.71	11.149
489.06	11.183
489.40	11.202
489.74	11.234
490.09	11.271
490.43	11.313
490.77	11.338
491.11	11.360
491.46	11.393
491.80	11.417
492.14	11.438
492.49	11.479
492.83	11.500
493.17	11.542
493.51	11.578
493.86	11.616
494.20	11.640
494.54	11.651
494.88	11.692
495.23	11.731
495.57	11.760
495.91	11.807
496.25	11.835
496.60	11.885
496.94	11.928
497.28	11.979
497.62	12.013
497.97	12.062
498.31	12.137
498.65	12.183
498.99	12.235
499.33	12.309
499.68	12.355
500.02	12.428
500.36	12.482
500.70	12.534
501.04	12.579
501.39	12.629
501.73	12.671
502.07	12.707
502.41	12.751
502.75	12.786
503.09	12.808
503.44	12.844
503.78	12.866
504.12	12.907
504.46	12.952
504.80	12.995
505.14	13.018
505.49	13.060
505.83	13.090
506.17	13.111
506.51	13.134
506.85	13.148
507.19	13.177
507.53	13.201
507.87	13.235
508.22	13.274
508.56	13.320
508.90	13.364
509.24	13.413
509.58	13.457
509.92	13.497
510.26	13.552
510.60	13.600
510.94	13.640
511.28	13.692
511.63	13.750
511.97	13.785
512.31	13.817
512.65	13.886
512.99	13.936
513.33	13.996
513.67	14.033
514.01	14.070
514.35	14.143
514.69	14.193
515.03	14.243
515.37	14.265
515.71	14.305
516.05	14.326
516.39	14.349
516.73	14.368
517.07	14.393
517.41	14.442
517.75	14.504
518.09	14.525
518.43	14.554
518.77	14.606
519.11	14.662
519.45	14.719
519.79	14.764
520.13	14.807
520.47	14.863
520.81	14.922
521.15	14.974
521.49	14.968
521.83	14.996
522.17	15.036
522.51	15.048
522.85	15.068
523.19	15.088
523.53	15.162
523.87	15.249
524.21	15.326
524.55	15.407
524.89	15.481
525.23	15.574
525.57	15.650
525.91	15.726
526.25	15.795
526.58	15.863
526.92	15.938
527.26	15.998
527.60	16.027
527.94	16.060
528.28	16.077
528.62	16.098
528.96	16.117
529.30	16.128
529.64	16.138
529.97	16.152
530.31	16.162
530.65	16.155
530.99	16.161
531.33	16.185
531.67	16.208
532.01	16.244
532.35	16.287
532.68	16.314
533.02	16.366
533.36	16.383
533.70	16.418
534.04	16.461
534.38	16.505
534.71	16.545
535.05	16.582
535.39	16.613
535.73	16.652
536.07	16.662
536.41	16.710
536.74	16.740
537.08	16.813
537.42	16.871
537.76	16.917
538.10	16.959
538.43	17.002
538.77	17.038
539.11	17.091
539.45	17.125
539.79	17.178
540.12	17.216
540.46	17.258
540.80	17.267
541.14	17.295
541.47	17.315
541.81	17.352
542.15	17.378
542.49	17.417
542.82	17.440
543.16	17.472
543.50	17.504
543.84	17.540
544.17	17.551
544.51	17.623
544.85	17.662
545.18	17.708
545.52	17.769
545.86	17.839
546.20	17.914
546.53	17.977
546.87	18.073
547.21	18.156
547.54	18.205
547.88	18.313
548.22	18.397
548.55	18.428
548.89	18.476
549.23	18.512
549.56	18.528
549.90	18.556
550.24	18.589
550.57	18.584
550.91	18.585
551.25	18.621
551.58	18.642
551.92	18.640
552.26	18.707
552.59	18.759
552.93	18.816
553.27	18.867
553.60	18.921
553.94	18.950
554.27	19.017
554.61	19.080
554.95	19.146
555.28	19.185
555.62	19.197
555.95	19.225
556.29	19.264
556.63	19.291
556.96	19.323
557.30	19.343
557.63	19.376
557.97	19.407
558.31	19.408
558.64	19.413
558.98	19.443
559.31	19.506
559.65	19.508
559.98	19.508
560.32	19.522
560.65	19.545
560.99	19.524
561.33	19.555
561.66	19.535
562.00	19.557
562.33	19.567
562.67	19.571
563.00	19.562
563.34	19.600
563.67	19.629
564.01	19.642
564.34	19.655
564.68	19.698
565.01	19.696
565.35	19.742
565.68	19.796
566.02	19.815
566.35	19.865
566.69	19.900
567.02	19.910
567.36	19.935
567.69	19.950
568.03	19.955
568.36	19.964
568.69	20.008
569.03	19.994
569.36	20.004
569.70	20.023
570.03	20.031
570.37	20.062
570.70	20.102
571.04	20.115
571.37	20.129
571.70	20.169
572.04	20.204
572.37	20.215
572.71	20.270
573.04	20.267
573.37	20.309
573.71	20.319
574.04	20.343
574.38	20.390
574.71	20.444
575.04	20.514
575.38	20.579
575.71	20.651
576.05	20.720
576.38	20.778
576.71	20.847
577.05	20.923
577.38	20.995
577.71	21.054
578.05	21.071
578.38	21.071
578.71	21.096
579.05	21.107
579.38	21.120
579.71	21.137
580.05	21.146
580.38	21.190
580.71	21.209
581.05	21.241
581.38	21.243
581.71	21.248
582.05	21.289
582.38	21.248
582.71	21.251
583.04	21.260
583.38	21.258
583.71	21.273
584.04	21.246
584.38	21.241
584.71	21.223
585.04	21.247
585.37	21.260
585.71	21.278
586.04	21.329
586.37	21.343
586.70	21.337
587.04	21.365
587.37	21.386
587.70	21.388
588.03	21.390
588.37	21.408
588.70	21.406
589.03	21.410
589.36	21.419
589.69	21.424
590.03	21.428
590.36	21.426
590.69	21.412
591.02	21.409
591.35	21.433
591.69	21.401
592.02	21.368
592.35	21.378
592.68	21.349
593.01	21.292
593.35	21.291
593.68	21.249
594.01	21.233
594.34	21.227
594.67	21.201
595.00	21.131
595.34	21.136
595.67	21.120
596.00	21.105
596.33	21.115
596.66	21.180
596.99	21.178
597.32	21.220
597.65	21.223
597.99	21.221
598.32	21.218
598.65	21.247
598.98	21.196
599.31	21.213
599.64	21.183
599.97	21.166
600.30	21.108
600.63	21.075
600.96	21.085
601.30	21.082
601.63	21.041
601.96	21.019
602.29	21.023
602.62	21.056
602.95	21.048
603.28	21.038
603.61	21.046
603.94	21.056
604.27	21.044
604.60	21.037
604.93	21.064
605.26	21.090
605.59	21.100
605.92	21.124
606.25	21.175
606.58	21.173
606.91	21.190
607.24	21.184
607.57	21.177
607.90	21.191
608.23	21.195
608.56	21.172
608.89	21.180
609.22	21.193
609.55	21.218
609.88	21.176
610.21	21.214
610.54	21.227
610.87	21.262
611.20	21.262
611.53	21.323
611.86	21.295
612.19	21.292
612.52	21.284
612.85	21.294
613.18	21.247
613.51	21.225
613.84	21.203
614.17	21.171
614.49	21.108
614.82	21.130
615.15	21.075
615.48	21.075
615.81	21.115
616.14	21.114
616.47	21.109
616.80	21.127
617.13	21.135
617.46	21.117
617.78	21.111
618.11	21.190
618.44	21.168
618.77	21.212
619.10	21.164
619.43	21.127
619.76	21.116
620.09	21.107
620.41	21.099
620.74	21.125
621.07	21.136
621.40	21.154
621.73	21.101
622.06	21.110
622.38	21.108
622.71	21.172
623.04	21.125
623.37	21.093
623.70	21.086
624.02	21.046
624.35	21.002
624.68	21.017
625.01	21.042
625.34	21.017
625.66	21.022
625.99	20.963
626.32	20.934
626.65	20.976
626.98	21.056
627.30	21.065
627.63	21.082
627.96	21.105
628.29	21.076
628.61	21.011
628.94	21.041
629.27	21.007
629.60	20.994
629.92	20.974
630.25	20.927
630.58	20.825
630.91	20.804
631.23	20.792
631.56	20.753
631.89	20.717
632.21	20.751
632.54	20.722
632.87	20.735
633.19	20.774
633.52	20.741
633.85	20.731
634.18	20.746
634.50	20.744
634.83	20.738
635.16	20.750
635.48	20.755
635.81	20.765
636.14	20.753
636.46	20.710
636.79	20.655
637.11	20.714
637.44	20.744
637.77	20.769
638.09	20.724
638.42	20.741
638.75	20.704
639.07	20.703
639.40	20.643
639.73	20.619
640.05	20.590
640.38	20.574
640.70	20.510
641.03	20.461
641.36	20.427
641.68	20.434
642.01	20.405
642.33	20.394
642.66	20.373
642.98	20.385
643.31	20.350
643.64	20.392
643.96	20.426
644.29	20.420
644.61	20.406
644.94	20.423
645.26	20.462
645.59	20.473
645.91	20.497
646.24	20.496
646.56	20.485
646.89	20.540
647.22	20.522
647.54	20.474
647.87	20.479
648.19	20.521
648.52	20.462
648.84	20.402
649.17	20.360
649.49	20.283
649.82	20.279
650.14	20.257
650.47	20.220
650.79	20.216
651.11	20.247
651.44	20.263
651.76	20.244
652.09	20.252
652.41	20.268
652.74	20.271
653.06	20.283
653.39	20.264
653.71	20.230
654.04	20.218
654.36	20.176
654.68	20.129
655.01	20.071
655.33	20.046
655.66	19.983
655.98	19.917
656.30	19.891
656.63	19.871
656.95	19.833
657.28	19.808
657.60	19.824
657.92	19.818
658.25	19.793
658.57	19.747
658.90	19.705
659.22	19.749
659.54	19.696
659.87	19.674
660.19	19.645
660.51	19.638
660.84	19.612
661.16	19.589
661.48	19.566
661.81	19.540
662.13	19.579
662.45	19.574
662.78	19.525
663.10	19.578
663.42	19.598
663.75	19.661
664.07	19.615
664.39	19.642
664.72	19.557
665.04	19.570
665.36	19.564
665.69	19.510
666.01	19.516
666.33	19.475
666.65	19.433
666.98	19.374
667.30	19.352
667.62	19.408
667.94	19.419
668.27	19.477
668.59	19.463
668.91	19.460
669.23	19.473
669.56	19.382
669.88	19.417
670.20	19.425
670.52	19.375
670.85	19.396
671.17	19.352
671.49	19.335
671.81	19.283
672.13	19.198
672.46	19.181
672.78	19.170
673.10	19.245
673.42	19.238
673.74	19.276
674.07	19.401
674.39	19.362
674.71	19.365
675.03	19.347
675.35	19.335
675.67	19.357
676.00	19.334
676.32	19.340
676.64	19.299
676.96	19.337
677.28	19.332
677.60	19.209
677.92	19.170
678.25	19.111
678.57	19.101
678.89	19.102
679.21	19.143
679.53	19.164
679.85	19.110
680.17	19.125
680.49	19.086
680.81	19.081
681.13	19.132
681.46	19.095
681.78	19.125
682.10	19.116
682.42	19.083
682.74	19.049
683.06	19.018
683.38	19.052
683.70	19.061
684.02	19.041
684.34	18.990
684.66	19.047
684.98	19.106
685.30	19.198
685.62	19.199
685.94	19.203
686.26	19.200
686.58	19.245
686.90	19.223
687.22	19.215
687.54	19.194
687.86	19.190
688.18	19.171
688.50	19.156
688.82	19.051
689.14	19.025
689.46	19.025
689.78	18.998
690.10	18.953
690.42	18.903
690.74	18.882
691.06	18.939
691.38	18.909
691.70	18.794
692.02	18.711
692.34	18.655
692.66	18.597
692.98	18.537
693.30	18.533
693.62	18.501
693.94	18.545
694.26	18.457
694.57	18.417
694.89	18.371
695.21	18.354
695.53	18.388
695.85	18.416
696.17	18.465
696.49	18.474
696.81	18.452
697.13	18.488
697.44	18.515
697.76	18.615
698.08	18.554
698.40	18.597
698.72	18.522
699.04	18.462
699.36	18.440
699.67	18.322
699.99	18.266
700.31	18.233
700.63	18.077
700.95	17.966
701.27	17.792
701.58	17.773
701.90	17.693
702.22	17.745
702.54	17.825
702.86	17.766
703.17	17.803
703.49	17.786
703.81	17.804
704.13	17.850
704.45	17.826
704.76	17.760
705.08	17.819
705.40	17.782
705.72	17.714
706.03	17.673
706.35	17.650
706.67	17.688
706.99	17.744
707.30	17.674
707.62	17.751
707.94	17.829
708.26	17.907
708.57	17.847
708.89	17.957
709.21	18.073
709.53	18.072
709.84	18.214
710.16	18.129
710.48	18.163
710.79	18.207
711.11	18.109
711.43	18.130
711.74	18.122
712.06	18.131
712.38	18.053
712.69	18.019
713.01	18.075
713.33	18.011
713.64	18.164
713.96	18.204
714.28	18.235
714.59	18.324
714.91	18.367
715.23	18.495
715.54	18.490
715.86	18.483
716.17	18.523
716.49	18.429
716.81	18.401
717.12	18.296
717.44	18.201
717.76	18.236
718.07	18.162
718.39	18.014
718.70	17.822
719.02	17.802
719.33	17.842
719.65	17.784
719.97	17.840
720.28	17.817
720.60	17.900
720.91	18.024
721.23	17.888
721.54	17.900
721.86	18.007
722.17	18.108
722.49	18.128
722.81	18.261
723.12	18.323
723.44	18.365
723.75	18.395
724.07	18.316
724.38	18.174
724.70	18.115
725.01	18.077
725.33	18.018
725.64	17.993
725.96	18.078
726.27	18.009
726.59	18.031
726.90	17.949
727.22	18.004
727.53	18.113
727.84	18.058
728.16	18.177
728.47	18.255
728.79	18.271
729.10	18.267
729.42	18.215
729.73	18.112
730.05	18.106
730.36	18.046
730.67	17.984
730.99	17.832
731.30	17.807
731.62	17.805
731.93	17.761
732.24	17.507
732.56	17.557
732.87	17.471
733.19	17.486
733.50	17.437
733.81	17.353
734.13	17.291
734.44	17.342
734.76	17.509
735.07	17.385
735.38	17.333
735.70	17.412
736.01	17.288
736.32	17.260
736.64	17.218
736.95	17.062
737.26	17.204
737.58	17.189
737.89	17.148
738.20	16.921
738.52	16.920
738.83	16.954
739.14	17.079
739.45	17.057
739.77	16.873
740.08	16.840
740.39	16.752
740.71	16.589
741.02	16.407
741.33	16.391
741.64	16.381
741.96	16.318
742.27	16.176
742.58	16.014
742.90	15.899
743.21	16.000
743.52	16.025
743.83	15.952
744.14	15.867
744.46	15.722
744.77	15.629
745.08	15.769
745.39	15.682
745.71	15.675
746.02	15.668
746.33	15.662
746.64	15.822
746.95	15.719
747.27	15.733
747.58	15.910
747.89	16.257
748.20	16.100
748.51	15.994
748.82	16.004
749.14	16.082
749.45	16.175
749.76	16.061
750.07	15.952
750.38	15.954
750.69	16.168
751.01	16.106
751.32	15.874
751.63	15.885
751.94	15.947
752.25	16.053
752.56	15.875
752.87	15.899
753.18	15.973
753.49	15.897
753.81	15.966
754.12	15.850
754.43	15.956
754.74	16.137
755.05	16.343
755.36	16.285
755.67	16.481
755.98	16.871
756.29	16.861
756.60	17.021
756.91	17.273
757.22	17.510
757.53	17.775
757.84	17.766
758.15	18.044
758.46	18.204
758.77	18.571
759.09	18.656
759.40	18.805
759.71	19.021
760.02	19.059
760.33	19.076
760.64	18.948
760.95	18.951
761.26	19.056
761.57	18.911
761.88	18.831
762.18	18.694
762.49	18.613
762.80	18.453
763.11	18.313
763.42	18.275
763.73	18.132
764.04	18.094
764.35	17.978
764.66	17.770
764.97	17.654
765.28	17.544
765.59	17.369
765.90	17.140
766.21	16.951
766.52	16.609
766.83	16.430
767.14	16.310
767.44	16.184
767.75	15.958
768.06	15.874
768.37	15.733
768.68	15.771
768.99	15.630
769.30	15.576
769.61	15.299
769.91	15.360
770.22	15.179
770.53	15.234
770.84	15.038
771.15	15.297
771.46	15.388
771.77	15.359
772.07	15.061
772.38	15.142
772.69	15.071
773.00	15.006
773.31	15.314
773.61	15.390
773.92	15.359
774.23	15.532
774.54	15.121
774.85	15.121
775.15	15.129
775.46	15.238
775.77	15.117
776.08	15.272
776.39	15.250
776.69	15.013
777.00	14.984
777.31	14.774
777.62	14.618
777.92	15.178
778.23	15.000
778.54	14.918
778.85	14.846
779.15	14.905
779.46	14.866
779.77	15.342
780.07	15.317
780.38	15.389
780.69	15.326
781.00	15.581
781.30	15.164
781.61	15.255
781.92	15.231
782.22	15.222
782.53	15.171
782.84	15.076
783.14	14.758
783.45	15.051
783.76	15.367
784.06	15.419
784.37	15.664
784.68	15.850
784.98	15.900
785.29	16.321
785.60	16.535
785.90	16.760
786.21	16.834
786.51	17.272
786.82	17.018
787.13	17.113
787.43	17.234
787.74	16.983
788.04	16.881
788.35	16.892
788.66	16.463
788.96	16.350
789.27	16.174
789.57	16.222
789.88	15.817
790.19	16.049
790.49	15.850
790.80	15.773
791.10	15.930
791.41	16.103
791.71	15.972
792.02	16.389
792.32	16.369
792.63	16.541
792.93	16.470
793.24	16.574
793.54	16.596
793.85	16.820
794.15	17.140
794.46	17.222
794.76	17.176
795.07	17.261
795.37	17.296
795.68	17.646
795.98	17.578
796.29	17.573
796.59	17.766
796.90	17.615
797.20	17.281
797.51	17.261
797.81	17.201
798.12	17.154
798.42	17.512
798.72	17.486
799.03	17.596
799.33	17.655
799.64	17.656
799.94	17.631
800.25	17.615
800.55	17.748
800.85	17.529
801.16	17.470
801.46	17.567
801.77	17.401
802.07	17.376
802.37	16.843
802.68	17.013
802.98	17.525
803.28	17.312
803.59	17.671
803.89	17.458
804.20	17.708
804.50	17.490
804.80	17.354
805.11	16.989
805.41	16.717
805.71	16.971
806.02	16.629
806.32	16.181
806.62	16.339
806.93	16.268
807.23	16.548
807.53	16.798
807.83	17.250
808.14	17.343
808.44	17.704
808.74	18.035
809.05	17.929
809.35	18.271
809.65	18.574
809.95	18.912
810.26	18.770
810.56	19.029
810.86	18.671
811.16	18.326
811.47	18.688
811.77	18.850
812.07	18.929
812.37	18.815
812.68	19.163
812.98	19.127
813.28	18.901
813.58	19.248
813.88	18.937
814.19	19.628
814.49	20.121
814.79	19.981
815.09	19.932
815.39	20.154
815.70	20.688
816.00	20.479
816.30	20.527
816.60	20.564
816.90	20.487
817.20	20.791
817.50	20.287
817.81	20.166
818.11	20.250
818.41	20.206
818.71	20.155
819.01	20.182
819.31	20.238
819.61	20.281
819.92	20.261
820.22	20.328
820.52	20.286
820.82	20.350
821.12	20.320
821.42	20.280
821.72	20.314
822.02	20.295
822.32	20.285
822.62	20.350
822.92	20.333
823.22	20.370
823.52	20.351
823.83	20.375
824.13	20.378
824.43	20.359
824.73	20.419
825.03	20.425
825.33	20.507
825.63	20.462
825.93	20.292
826.23	20.281
826.53	20.268
826.83	20.195
827.13	20.079
827.43	20.113
827.73	20.188
828.03	20.180
828.33	20.139
828.63	19.922
828.93	19.953
829.23	19.951
829.53	19.945
829.83	19.843
830.13	19.900
830.42	19.973
830.72	19.727
831.02	19.839
831.32	19.691
831.62	19.536
831.92	20.005
832.22	20.144
832.52	20.127
832.82	20.275
833.12	20.192
833.42	20.199
833.72	20.283
834.01	20.177
834.31	20.014
834.61	20.150
834.91	20.381
835.21	20.211
835.51	19.879
835.81	19.793
836.11	19.727
836.40	19.873
836.70	19.547
837.00	19.329
837.30	19.921
837.60	20.181
837.90	20.095
838.19	20.122
838.49	20.015
838.79	20.117
839.09	19.951
839.39	19.915
839.68	19.914
839.98	19.984
840.28	20.145
840.58	19.974
840.88	19.645
841.17	19.457
841.47	19.289
841.77	18.724
842.07	19.392
842.36	20.102
842.66	19.845
842.96	19.112
843.26	19.034
843.55	19.019
843.85	18.602
844.15	18.764
844.45	18.650
844.74	18.552
845.04	18.544
845.34	17.212
845.63	17.093
845.93	16.578
846.23	18.363
846.53	18.849
846.82	18.257
847.12	17.687
847.42	16.998
847.71	17.818
848.01	17.946
848.31	18.747
848.60	19.386
848.90	19.456
849.19	19.594
849.49	18.270
849.79	17.432
850.08	18.416
850.38	19.487
850.68	19.411
850.97	18.644
851.27	19.003
851.56	18.742
851.86	18.321
852.16	17.998
852.45	18.938
852.75	20.017
853.04	19.114
853.34	18.064
853.64	17.018
853.93	17.809
854.23	18.701
854.52	18.918
854.82	19.398
855.11	19.995
855.41	18.360
855.70	17.385
856.00	15.958
856.30	16.762
856.59	16.944
856.89	16.944
857.18	17.508
857.48	16.778
857.77	16.385
858.07	17.158
858.36	17.720
858.66	19.689
858.95	20.163
859.25	20.595
859.54	21.924
859.84	23.718
860.13	24.376
860.42	24.948
860.72	24.893
861.01	25.065
861.31	24.260
861.60	24.171
861.90	24.347
862.19	23.239
862.49	23.175
862.78	23.257
863.07	20.767
863.37	20.564
863.66	20.005
863.96	19.478
864.25	20.222
864.54	19.859
864.84	19.284
865.13	18.868
865.43	19.107
865.72	29.770
866.01	18.488
866.31	21.734
866.60	19.677
866.89	11.130
>>>>>End Spectral Data<<<<<
