OOIBase32 Version 2.0.0.6 Data File
++++++++++++++++++++++++++++++++++++
Date: 01-19-2012, 17:37:03
User: Valued Ocean Optics Customer
Spectrometer Serial Number: USB2E2917
Spectrometer Channel: Master
Integration Time (msec): 6
Spectra Averaged: 10
Boxcar Smoothing: 5
Correct for Electrical Dark: Enabled
Time Normalized: Disabled
Dual-beam Reference: Disabled
Reference Channel: Master
Temperature: Not acquired
Spectrometer Type: S2000
ADC Type: USB2000
Number of Pixels in File: 2048
Graph Title: 
>>>>>Begin Spectral Data<<<<<
180.30	0.000
180.67	0.000
181.03	65.770
181.40	-6.766
181.77	-30.667
182.14	-198.883
182.51	21.082
182.88	118.836
183.25	-185.537
183.62	23.674
183.99	-9.222
184.36	59.821
184.73	219.284
185.10	117.453
185.46	55.139
185.83	91.792
186.20	47.531
186.57	168.293
186.94	305.929
187.31	-48.987
187.68	91.510
188.05	107.667
188.42	87.441
188.78	77.392
189.15	68.238
189.52	67.470
189.89	56.129
190.26	44.034
190.63	41.660
191.00	41.653
191.37	47.310
191.73	39.651
192.10	28.833
192.47	30.305
192.84	32.373
193.21	27.646
193.58	8.236
193.94	3.020
194.31	-1.419
194.68	-2.865
195.05	-15.845
195.42	-37.975
195.79	-51.659
196.15	-21.873
196.52	-22.638
196.89	-34.679
197.26	-39.858
197.63	-22.168
198.00	-18.059
198.36	-10.879
198.73	-17.697
199.10	-8.246
199.47	-14.262
199.84	-5.799
200.20	-3.311
200.57	-6.124
200.94	10.436
201.31	9.210
201.68	2.319
202.04	-2.340
202.41	-7.343
202.78	-2.197
203.15	-5.868
203.51	12.011
203.88	14.280
204.25	17.276
204.62	17.816
204.98	6.283
205.35	11.702
205.72	2.180
206.09	5.169
206.46	17.284
206.82	6.764
207.19	-0.364
207.56	-19.180
207.92	-14.027
208.29	-47.057
208.66	-66.181
209.03	-68.404
209.39	-91.371
209.76	-49.343
210.13	-46.507
210.50	-36.148
210.86	-18.925
211.23	-11.725
211.60	-2.613
211.96	-0.779
212.33	13.725
212.70	20.834
213.07	18.338
213.43	25.381
213.80	17.025
214.17	20.545
214.53	17.916
214.90	16.974
215.27	17.322
215.63	6.956
216.00	9.222
216.37	0.654
216.74	0.219
217.10	8.315
217.47	5.865
217.84	10.793
218.20	15.017
218.57	12.436
218.94	3.524
219.30	1.512
219.67	11.618
220.04	7.181
220.40	11.078
220.77	10.049
221.13	4.406
221.50	3.695
221.87	2.157
222.23	0.140
222.60	-1.151
222.97	2.289
223.33	6.093
223.70	1.375
224.07	-0.882
224.43	-1.861
224.80	-1.833
225.16	2.852
225.53	3.870
225.90	4.248
226.26	3.362
226.63	1.727
226.99	2.713
227.36	1.796
227.73	2.416
228.09	2.209
228.46	2.966
228.82	4.083
229.19	2.228
229.56	1.091
229.92	0.436
230.29	1.971
230.65	3.984
231.02	3.415
231.38	3.532
231.75	2.441
232.12	3.846
232.48	3.868
232.85	3.561
233.21	4.246
233.58	3.780
233.94	3.952
234.31	3.182
234.68	0.948
235.04	1.719
235.41	1.880
235.77	1.732
236.14	1.359
236.50	1.970
236.87	1.528
237.23	1.418
237.60	1.252
237.96	1.200
238.33	1.626
238.69	2.298
239.06	1.468
239.42	1.231
239.79	1.354
240.15	1.914
240.52	1.866
240.88	1.612
241.25	1.882
241.61	2.201
241.98	2.118
242.34	1.797
242.71	1.782
243.07	1.737
243.44	1.851
243.80	2.062
244.17	1.758
244.53	1.506
244.90	1.353
245.26	1.265
245.63	1.128
245.99	1.142
246.36	1.410
246.72	1.523
247.09	1.502
247.45	1.518
247.81	1.291
248.18	1.198
248.54	1.054
248.91	1.554
249.27	1.315
249.64	1.354
250.00	1.365
250.36	0.828
250.73	0.310
251.09	0.480
251.46	0.701
251.82	0.771
252.19	0.833
252.55	1.244
252.91	0.925
253.28	1.480
253.64	1.851
254.01	2.315
254.37	2.472
254.73	2.600
255.10	2.629
255.46	2.473
255.83	2.465
256.19	2.452
256.55	2.268
256.92	2.293
257.28	2.025
257.65	1.940
258.01	1.930
258.37	1.899
258.74	1.913
259.10	1.781
259.46	1.637
259.83	1.711
260.19	1.648
260.55	1.629
260.92	1.442
261.28	1.502
261.64	1.492
262.01	1.413
262.37	1.536
262.73	1.637
263.10	1.747
263.46	1.616
263.82	1.414
264.19	1.187
264.55	1.220
264.91	1.520
265.28	1.774
265.64	1.933
266.00	1.555
266.37	1.396
266.73	1.504
267.09	1.545
267.46	1.696
267.82	1.760
268.18	1.996
268.54	1.941
268.91	1.838
269.27	1.713
269.63	1.515
270.00	1.764
270.36	1.630
270.72	1.748
271.08	1.760
271.45	1.880
271.81	2.008
272.17	2.083
272.53	2.139
272.90	1.988
273.26	1.834
273.62	1.745
273.98	1.720
274.35	1.852
274.71	1.843
275.07	1.682
275.43	1.268
275.80	1.164
276.16	1.117
276.52	1.212
276.88	1.221
277.25	1.469
277.61	1.600
277.97	1.647
278.33	1.620
278.69	1.212
279.06	1.375
279.42	1.835
279.78	1.662
280.14	1.384
280.50	1.398
280.87	1.625
281.23	1.531
281.59	1.527
281.95	1.522
282.31	1.533
282.68	1.563
283.04	1.479
283.40	1.276
283.76	1.445
284.12	1.652
284.48	1.518
284.85	1.248
285.21	1.120
285.57	1.188
285.93	0.995
286.29	0.893
286.65	1.111
287.02	1.106
287.38	1.193
287.74	1.151
288.10	1.139
288.46	1.230
288.82	1.464
289.18	1.649
289.54	1.529
289.91	1.764
290.27	1.898
290.63	1.774
290.99	1.776
291.35	1.704
291.71	1.575
292.07	1.487
292.43	1.405
292.79	1.402
293.16	1.350
293.52	1.341
293.88	1.260
294.24	1.348
294.60	1.265
294.96	1.270
295.32	1.240
295.68	1.256
296.04	1.303
296.40	1.264
296.76	1.213
297.12	1.209
297.49	1.360
297.85	1.429
298.21	1.424
298.57	1.464
298.93	1.496
299.29	1.578
299.65	1.542
300.01	1.530
300.37	1.804
300.73	1.869
301.09	1.708
301.45	1.601
301.81	1.434
302.17	1.416
302.53	1.378
302.89	1.397
303.25	1.520
303.61	1.626
303.97	1.722
304.33	1.595
304.69	1.458
305.05	1.614
305.41	1.623
305.77	1.829
306.13	1.816
306.49	1.933
306.85	1.880
307.21	1.834
307.57	1.944
307.93	1.936
308.29	1.880
308.65	1.917
309.01	1.989
309.37	1.999
309.73	1.937
310.09	1.845
310.45	1.915
310.81	2.003
311.17	2.013
311.53	1.852
311.89	1.757
312.25	1.801
312.61	1.923
312.96	1.878
313.32	1.990
313.68	1.962
314.04	2.027
314.40	1.918
314.76	1.928
315.12	1.778
315.48	1.859
315.84	1.918
316.20	1.947
316.56	1.851
316.92	1.947
317.27	1.768
317.63	1.761
317.99	1.845
318.35	1.883
318.71	1.770
319.07	1.657
319.43	1.728
319.79	1.662
320.15	1.664
320.50	1.749
320.86	1.552
321.22	1.709
321.58	1.813
321.94	1.848
322.30	1.844
322.66	1.900
323.01	2.178
323.37	2.165
323.73	2.220
324.09	2.213
324.45	2.051
324.81	2.110
325.17	1.961
325.52	1.865
325.88	1.812
326.24	1.820
326.60	1.804
326.96	1.739
327.31	1.676
327.67	1.705
328.03	1.629
328.39	1.757
328.75	1.733
329.11	1.745
329.46	1.814
329.82	1.812
330.18	1.785
330.54	1.749
330.90	1.689
331.25	1.798
331.61	1.890
331.97	1.919
332.33	1.855
332.68	1.833
333.04	1.959
333.40	1.943
333.76	1.981
334.11	1.949
334.47	2.049
334.83	2.072
335.19	1.985
335.54	1.924
335.90	1.929
336.26	1.969
336.62	1.982
336.97	1.883
337.33	1.851
337.69	1.832
338.05	1.886
338.40	1.831
338.76	1.765
339.12	1.751
339.48	1.682
339.83	1.794
340.19	1.815
340.55	1.892
340.90	1.939
341.26	2.030
341.62	2.003
341.97	2.041
342.33	2.010
342.69	2.060
343.04	2.102
343.40	2.194
343.76	2.122
344.12	2.084
344.47	2.025
344.83	2.082
345.19	2.010
345.54	2.061
345.90	1.982
346.26	2.062
346.61	2.085
346.97	2.090
347.32	2.035
347.68	2.092
348.04	2.174
348.39	2.248
348.75	2.182
349.11	2.199
349.46	2.168
349.82	2.191
350.18	2.161
350.53	2.186
350.89	2.145
351.24	2.192
351.60	2.194
351.96	2.071
352.31	2.044
352.67	2.095
353.02	2.120
353.38	2.136
353.74	2.098
354.09	2.115
354.45	2.107
354.80	2.180
355.16	2.190
355.52	2.171
355.87	2.170
356.23	2.145
356.58	2.073
356.94	2.051
357.29	2.012
357.65	2.077
358.00	2.083
358.36	2.119
358.72	2.102
359.07	1.975
359.43	1.919
359.78	1.949
360.14	1.917
360.49	1.981
360.85	2.009
361.20	2.070
361.56	2.075
361.91	2.064
362.27	2.008
362.62	2.004
362.98	2.109
363.33	2.134
363.69	2.200
364.04	2.196
364.40	2.180
364.75	2.172
365.11	2.124
365.46	2.075
365.82	2.091
366.17	2.086
366.53	2.066
366.88	2.057
367.24	2.079
367.59	2.046
367.95	2.111
368.30	2.142
368.66	2.131
369.01	2.162
369.37	2.216
369.72	2.167
370.08	2.172
370.43	2.216
370.78	2.232
371.14	2.232
371.49	2.203
371.85	2.194
372.20	2.203
372.56	2.231
372.91	2.203
373.26	2.209
373.62	2.250
373.97	2.273
374.33	2.237
374.68	2.236
375.03	2.189
375.39	2.227
375.74	2.216
376.10	2.171
376.45	2.147
376.80	2.159
377.16	2.161
377.51	2.135
377.87	2.130
378.22	2.169
378.57	2.149
378.93	2.195
379.28	2.224
379.63	2.249
379.99	2.243
380.34	2.265
380.70	2.248
381.05	2.249
381.40	2.280
381.76	2.281
382.11	2.230
382.46	2.250
382.82	2.242
383.17	2.200
383.52	2.171
383.88	2.184
384.23	2.135
384.58	2.173
384.94	2.158
385.29	2.150
385.64	2.097
385.99	2.114
386.35	2.112
386.70	2.131
387.05	2.107
387.41	2.122
387.76	2.137
388.11	2.173
388.47	2.152
388.82	2.143
389.17	2.144
389.52	2.197
389.88	2.180
390.23	2.165
390.58	2.154
390.93	2.200
391.29	2.191
391.64	2.156
391.99	2.121
392.34	2.128
392.70	2.146
393.05	2.142
393.40	2.164
393.75	2.198
394.11	2.212
394.46	2.192
394.81	2.153
395.16	2.161
395.52	2.184
395.87	2.193
396.22	2.216
396.57	2.232
396.92	2.250
397.28	2.230
397.63	2.226
397.98	2.213
398.33	2.224
398.68	2.247
399.04	2.255
399.39	2.274
399.74	2.239
400.09	2.201
400.44	2.185
400.80	2.166
401.15	2.166
401.50	2.168
401.85	2.180
402.20	2.189
402.55	2.188
402.90	2.180
403.26	2.156
403.61	2.196
403.96	2.223
404.31	2.241
404.66	2.268
405.01	2.272
405.36	2.265
405.72	2.272
406.07	2.290
406.42	2.304
406.77	2.316
407.12	2.321
407.47	2.348
407.82	2.371
408.17	2.350
408.53	2.363
408.88	2.361
409.23	2.358
409.58	2.338
409.93	2.319
410.28	2.305
410.63	2.280
410.98	2.272
411.33	2.272
411.68	2.233
412.03	2.232
412.38	2.206
412.73	2.212
413.09	2.212
413.44	2.235
413.79	2.245
414.14	2.242
414.49	2.248
414.84	2.249
415.19	2.244
415.54	2.245
415.89	2.225
416.24	2.230
416.59	2.231
416.94	2.222
417.29	2.202
417.64	2.192
417.99	2.199
418.34	2.201
418.69	2.212
419.04	2.207
419.39	2.217
419.74	2.227
420.09	2.220
420.44	2.216
420.79	2.225
421.14	2.241
421.49	2.239
421.84	2.244
422.19	2.240
422.54	2.236
422.89	2.243
423.24	2.243
423.59	2.245
423.94	2.258
424.29	2.274
424.64	2.289
424.99	2.282
425.34	2.294
425.68	2.294
426.03	2.311
426.38	2.325
426.73	2.339
427.08	2.344
427.43	2.377
427.78	2.380
428.13	2.383
428.48	2.390
428.83	2.400
429.18	2.407
429.53	2.406
429.87	2.405
430.22	2.409
430.57	2.407
430.92	2.404
431.27	2.401
431.62	2.407
431.97	2.396
432.32	2.393
432.67	2.400
433.01	2.413
433.36	2.409
433.71	2.427
434.06	2.419
434.41	2.428
434.76	2.429
435.11	2.441
435.45	2.427
435.80	2.435
436.15	2.428
436.50	2.422
436.85	2.406
437.20	2.428
437.54	2.412
437.89	2.427
438.24	2.425
438.59	2.436
438.94	2.427
439.29	2.440
439.63	2.444
439.98	2.450
440.33	2.451
440.68	2.455
441.03	2.447
441.37	2.477
441.72	2.479
442.07	2.483
442.42	2.462
442.76	2.455
443.11	2.447
443.46	2.441
443.81	2.461
444.16	2.465
444.50	2.467
444.85	2.480
445.20	2.458
445.55	2.460
445.89	2.452
446.24	2.468
446.59	2.485
446.94	2.486
447.28	2.505
447.63	2.509
447.98	2.531
448.32	2.555
448.67	2.542
449.02	2.563
449.37	2.576
449.71	2.593
450.06	2.598
450.41	2.594
450.75	2.613
451.10	2.625
451.45	2.611
451.79	2.614
452.14	2.619
452.49	2.628
452.84	2.629
453.18	2.631
453.53	2.642
453.88	2.658
454.22	2.666
454.57	2.671
454.92	2.663
455.26	2.664
455.61	2.656
455.95	2.640
456.30	2.639
456.65	2.644
456.99	2.632
457.34	2.639
457.69	2.642
458.03	2.640
458.38	2.650
458.73	2.658
459.07	2.671
459.42	2.685
459.76	2.705
460.11	2.731
460.46	2.745
460.80	2.764
461.15	2.773
461.49	2.780
461.84	2.790
462.19	2.804
462.53	2.814
462.88	2.822
463.22	2.829
463.57	2.843
463.91	2.833
464.26	2.847
464.61	2.863
464.95	2.868
465.30	2.876
465.64	2.898
465.99	2.893
466.33	2.891
466.68	2.892
467.02	2.898
467.37	2.897
467.71	2.922
468.06	2.917
468.41	2.911
468.75	2.918
469.10	2.915
469.44	2.916
469.79	2.930
470.13	2.953
470.48	2.966
470.82	2.976
471.17	2.985
471.51	2.956
471.86	2.954
472.20	2.979
472.55	2.970
472.89	2.989
473.23	2.982
473.58	2.988
473.92	2.982
474.27	2.980
474.61	2.973
474.96	2.978
475.30	3.003
475.65	3.012
475.99	3.003
476.34	3.014
476.68	3.002
477.02	3.010
477.37	3.002
477.71	3.016
478.06	3.018
478.40	3.031
478.75	3.036
479.09	3.042
479.43	3.094
479.78	3.162
480.12	3.235
480.47	3.305
480.81	3.383
481.15	3.459
481.50	3.525
481.84	3.610
482.19	3.699
482.53	3.784
482.87	3.866
483.22	3.892
483.56	3.873
483.90	3.823
484.25	3.764
484.59	3.688
484.94	3.605
485.28	3.522
485.62	3.422
485.97	3.317
486.31	3.226
486.65	3.146
487.00	3.094
487.34	3.066
487.68	3.064
488.03	3.074
488.37	3.084
488.71	3.099
489.06	3.111
489.40	3.128
489.74	3.142
490.09	3.160
490.43	3.173
490.77	3.188
491.11	3.201
491.46	3.214
491.80	3.219
492.14	3.232
492.49	3.242
492.83	3.257
493.17	3.263
493.51	3.275
493.86	3.272
494.20	3.281
494.54	3.282
494.88	3.287
495.23	3.295
495.57	3.300
495.91	3.316
496.25	3.313
496.60	3.317
496.94	3.331
497.28	3.338
497.62	3.351
497.97	3.354
498.31	3.360
498.65	3.384
498.99	3.390
499.33	3.400
499.68	3.392
500.02	3.409
500.36	3.418
500.70	3.429
501.04	3.446
501.39	3.466
501.73	3.467
502.07	3.477
502.41	3.466
502.75	3.459
503.09	3.469
503.44	3.463
503.78	3.474
504.12	3.465
504.46	3.460
504.80	3.458
505.14	3.448
505.49	3.452
505.83	3.450
506.17	3.465
506.51	3.482
506.85	3.467
507.19	3.482
507.53	3.477
507.87	3.491
508.22	3.499
508.56	3.495
508.90	3.505
509.24	3.510
509.58	3.514
509.92	3.520
510.26	3.523
510.60	3.547
510.94	3.556
511.28	3.562
511.63	3.577
511.97	3.588
512.31	3.606
512.65	3.615
512.99	3.621
513.33	3.647
513.67	3.648
514.01	3.641
514.35	3.637
514.69	3.634
515.03	3.634
515.37	3.636
515.71	3.638
516.05	3.646
516.39	3.646
516.73	3.654
517.07	3.642
517.41	3.645
517.75	3.663
518.09	3.679
518.43	3.686
518.77	3.708
519.11	3.709
519.45	3.720
519.79	3.727
520.13	3.730
520.47	3.742
520.81	3.760
521.15	3.763
521.49	3.764
521.83	3.768
522.17	3.778
522.51	3.763
522.85	3.767
523.19	3.769
523.53	3.774
523.87	3.797
524.21	3.805
524.55	3.844
524.89	3.896
525.23	3.952
525.57	3.996
525.91	4.037
526.25	4.088
526.58	4.133
526.92	4.175
527.26	4.201
527.60	4.198
527.94	4.180
528.28	4.122
528.62	4.054
528.96	3.977
529.30	3.949
529.64	3.913
529.97	3.870
530.31	3.831
530.65	3.797
530.99	3.774
531.33	3.780
531.67	3.805
532.01	3.854
532.35	3.905
532.68	3.955
533.02	3.952
533.36	3.963
533.70	3.978
534.04	3.987
534.38	3.984
534.71	3.986
535.05	3.984
535.39	4.000
535.73	4.008
536.07	4.025
536.41	4.043
536.74	4.055
537.08	4.062
537.42	4.069
537.76	4.068
538.10	4.085
538.43	4.101
538.77	4.114
539.11	4.123
539.45	4.138
539.79	4.144
540.12	4.146
540.46	4.156
540.80	4.165
541.14	4.164
541.47	4.176
541.81	4.182
542.15	4.189
542.49	4.196
542.82	4.200
543.16	4.205
543.50	4.219
543.84	4.224
544.17	4.241
544.51	4.245
544.85	4.269
545.18	4.272
545.52	4.274
545.86	4.280
546.20	4.300
546.53	4.307
546.87	4.325
547.21	4.334
547.54	4.350
547.88	4.362
548.22	4.386
548.55	4.396
548.89	4.439
549.23	4.459
549.56	4.473
549.90	4.474
550.24	4.490
550.57	4.493
550.91	4.494
551.25	4.500
551.58	4.501
551.92	4.508
552.26	4.533
552.59	4.516
552.93	4.519
553.27	4.532
553.60	4.546
553.94	4.560
554.27	4.575
554.61	4.584
554.95	4.604
555.28	4.609
555.62	4.608
555.95	4.602
556.29	4.630
556.63	4.653
556.96	4.668
557.30	4.664
557.63	4.674
557.97	4.679
558.31	4.690
558.64	4.702
558.98	4.709
559.31	4.714
559.65	4.722
559.98	4.725
560.32	4.735
560.65	4.748
560.99	4.768
561.33	4.775
561.66	4.770
562.00	4.784
562.33	4.795
562.67	4.809
563.00	4.825
563.34	4.821
563.67	4.843
564.01	4.837
564.34	4.841
564.68	4.858
565.01	4.866
565.35	4.878
565.68	4.892
566.02	4.897
566.35	4.904
566.69	4.920
567.02	4.942
567.36	4.932
567.69	4.953
568.03	4.959
568.36	4.967
568.69	4.957
569.03	4.958
569.36	4.967
569.70	4.978
570.03	4.976
570.37	4.977
570.70	4.973
571.04	4.982
571.37	4.965
571.70	4.975
572.04	4.964
572.37	4.985
572.71	4.998
573.04	4.993
573.37	5.001
573.71	5.026
574.04	5.036
574.38	5.066
574.71	5.067
575.04	5.092
575.38	5.097
575.71	5.138
576.05	5.139
576.38	5.144
576.71	5.174
577.05	5.174
577.38	5.177
577.71	5.207
578.05	5.211
578.38	5.231
578.71	5.252
579.05	5.265
579.38	5.243
579.71	5.257
580.05	5.296
580.38	5.310
580.71	5.337
581.05	5.335
581.38	5.342
581.71	5.352
582.05	5.382
582.38	5.399
582.71	5.419
583.04	5.447
583.38	5.480
583.71	5.491
584.04	5.493
584.38	5.513
584.71	5.550
585.04	5.561
585.37	5.557
585.71	5.547
586.04	5.530
586.37	5.531
586.70	5.534
587.04	5.527
587.37	5.516
587.70	5.524
588.03	5.537
588.37	5.536
588.70	5.556
589.03	5.572
589.36	5.610
589.69	5.629
590.03	5.659
590.36	5.692
590.69	5.729
591.02	5.758
591.35	5.774
591.69	5.788
592.02	5.789
592.35	5.774
592.68	5.784
593.01	5.766
593.35	5.792
593.68	5.791
594.01	5.784
594.34	5.768
594.67	5.771
595.00	5.775
595.34	5.776
595.67	5.804
596.00	5.829
596.33	5.841
596.66	5.885
596.99	5.889
597.32	5.913
597.65	5.942
597.99	5.979
598.32	6.003
598.65	6.030
598.98	6.071
599.31	6.067
599.64	6.084
599.97	6.106
600.30	6.103
600.63	6.120
600.96	6.115
601.30	6.105
601.63	6.118
601.96	6.121
602.29	6.123
602.62	6.111
602.95	6.150
603.28	6.164
603.61	6.183
603.94	6.191
604.27	6.220
604.60	6.244
604.93	6.265
605.26	6.293
605.59	6.315
605.92	6.373
606.25	6.401
606.58	6.431
606.91	6.459
607.24	6.480
607.57	6.528
607.90	6.565
608.23	6.589
608.56	6.648
608.89	6.678
609.22	6.713
609.55	6.707
609.88	6.751
610.21	6.765
610.54	6.789
610.87	6.833
611.20	6.878
611.53	6.900
611.86	6.924
612.19	6.938
612.52	6.958
612.85	7.004
613.18	7.032
613.51	7.070
613.84	7.095
614.17	7.131
614.49	7.149
614.82	7.144
615.15	7.177
615.48	7.200
615.81	7.252
616.14	7.290
616.47	7.293
616.80	7.344
617.13	7.362
617.46	7.409
617.78	7.457
618.11	7.482
618.44	7.510
618.77	7.531
619.10	7.580
619.43	7.587
619.76	7.607
620.09	7.662
620.41	7.676
620.74	7.690
621.07	7.726
621.40	7.748
621.73	7.789
622.06	7.828
622.38	7.856
622.71	7.902
623.04	7.933
623.37	7.954
623.70	7.960
624.02	7.977
624.35	7.997
624.68	8.023
625.01	8.016
625.34	8.043
625.66	8.047
625.99	8.051
626.32	8.074
626.65	8.078
626.98	8.103
627.30	8.153
627.63	8.202
627.96	8.238
628.29	8.266
628.61	8.311
628.94	8.340
629.27	8.386
629.60	8.440
629.92	8.469
630.25	8.527
630.58	8.561
630.91	8.573
631.23	8.612
631.56	8.649
631.89	8.651
632.21	8.678
632.54	8.681
632.87	8.695
633.19	8.709
633.52	8.714
633.85	8.738
634.18	8.757
634.50	8.798
634.83	8.776
635.16	8.800
635.48	8.822
635.81	8.848
636.14	8.910
636.46	8.938
636.79	8.953
637.11	9.005
637.44	9.033
637.77	9.043
638.09	9.028
638.42	9.060
638.75	9.067
639.07	9.100
639.40	9.140
639.73	9.141
640.05	9.180
640.38	9.241
640.70	9.243
641.03	9.264
641.36	9.341
641.68	9.414
642.01	9.481
642.33	9.521
642.66	9.577
642.98	9.593
643.31	9.640
643.64	9.662
643.96	9.697
644.29	9.729
644.61	9.760
644.94	9.762
645.26	9.785
645.59	9.772
645.91	9.779
646.24	9.813
646.56	9.830
646.89	9.839
647.22	9.848
647.54	9.840
647.87	9.869
648.19	9.906
648.52	9.905
648.84	9.901
649.17	9.948
649.49	9.969
649.82	9.981
650.14	10.018
650.47	10.031
650.79	10.062
651.11	10.094
651.44	10.131
651.76	10.122
652.09	10.165
652.41	10.211
652.74	10.265
653.06	10.344
653.39	10.354
653.71	10.402
654.04	10.424
654.36	10.421
654.68	10.424
655.01	10.360
655.33	10.372
655.66	10.379
655.98	10.353
656.30	10.315
656.63	10.276
656.95	10.239
657.28	10.227
657.60	10.230
657.92	10.228
658.25	10.273
658.57	10.330
658.90	10.349
659.22	10.412
659.54	10.456
659.87	10.489
660.19	10.494
660.51	10.539
660.84	10.580
661.16	10.600
661.48	10.717
661.81	10.714
662.13	10.791
662.45	10.863
662.78	10.851
663.10	10.883
663.42	10.902
663.75	10.991
664.07	11.045
664.39	11.063
664.72	11.090
665.04	11.036
665.36	11.022
665.69	11.019
666.01	10.960
666.33	10.972
666.65	11.010
666.98	11.049
667.30	11.052
667.62	11.087
667.94	11.078
668.27	11.114
668.59	11.195
668.91	11.278
669.23	11.347
669.56	11.455
669.88	11.488
670.20	11.479
670.52	11.536
670.85	11.599
671.17	11.645
671.49	11.698
671.81	11.740
672.13	11.781
672.46	11.801
672.78	11.791
673.10	11.792
673.42	11.901
673.74	11.961
674.07	11.976
674.39	11.964
674.71	11.954
675.03	11.984
675.35	12.032
675.67	12.025
676.00	12.053
676.32	12.067
676.64	12.069
676.96	12.009
677.28	12.017
677.60	11.997
677.92	12.039
678.25	12.066
678.57	12.097
678.89	12.063
679.21	12.035
679.53	12.035
679.85	12.066
680.17	12.136
680.49	12.166
680.81	12.219
681.13	12.272
681.46	12.301
681.78	12.338
682.10	12.351
682.42	12.434
682.74	12.546
683.06	12.637
683.38	12.650
683.70	12.641
684.02	12.647
684.34	12.676
684.66	12.747
684.98	12.736
685.30	12.759
685.62	12.851
685.94	12.854
686.26	12.871
686.58	12.876
686.90	12.929
687.22	12.966
687.54	13.040
687.86	13.033
688.18	13.051
688.50	13.090
688.82	13.118
689.14	13.100
689.46	13.138
689.78	13.159
690.10	13.249
690.42	13.258
690.74	13.247
691.06	13.226
691.38	13.208
691.70	13.221
692.02	13.254
692.34	13.288
692.66	13.320
692.98	13.356
693.30	13.387
693.62	13.346
693.94	13.355
694.26	13.417
694.57	13.465
694.89	13.561
695.21	13.572
695.53	13.601
695.85	13.610
696.17	13.614
696.49	13.658
696.81	13.677
697.13	13.669
697.44	13.721
697.76	13.747
698.08	13.758
698.40	13.796
698.72	13.817
699.04	13.891
699.36	13.979
699.67	13.981
699.99	14.054
700.31	14.138
700.63	14.227
700.95	14.291
701.27	14.373
701.58	14.494
701.90	14.548
702.22	14.631
702.54	14.598
702.86	14.644
703.17	14.725
703.49	14.743
703.81	14.791
704.13	14.954
704.45	14.994
704.76	15.024
705.08	14.992
705.40	14.982
705.72	14.994
706.03	15.104
706.35	15.137
706.67	15.172
706.99	15.131
707.30	15.156
707.62	15.061
707.94	15.069
708.26	15.022
708.57	15.047
708.89	15.049
709.21	15.044
709.53	15.100
709.84	15.117
710.16	15.117
710.48	15.144
710.79	15.077
711.11	15.117
711.43	15.197
711.74	15.273
712.06	15.339
712.38	15.431
712.69	15.524
713.01	15.465
713.33	15.491
713.64	15.529
713.96	15.595
714.28	15.643
714.59	15.740
714.91	15.716
715.23	15.886
715.54	15.965
715.86	16.023
716.17	16.087
716.49	16.126
716.81	16.110
717.12	16.307
717.44	16.338
717.76	16.372
718.07	16.377
718.39	16.445
718.70	16.308
719.02	16.364
719.33	16.254
719.65	16.159
719.97	16.264
720.28	16.311
720.60	16.209
720.91	16.254
721.23	16.380
721.54	16.382
721.86	16.458
722.17	16.503
722.49	16.551
722.81	16.765
723.12	16.947
723.44	16.919
723.75	16.929
724.07	17.003
724.38	17.118
724.70	17.165
725.01	17.234
725.33	17.239
725.64	17.346
725.96	17.350
726.27	17.359
726.59	17.348
726.90	17.408
727.22	17.509
727.53	17.577
727.84	17.599
728.16	17.629
728.47	17.632
728.79	17.605
729.10	17.663
729.42	17.728
729.73	17.727
730.05	17.675
730.36	17.719
730.67	17.793
730.99	17.825
731.30	17.889
731.62	17.954
731.93	18.047
732.24	18.087
732.56	18.064
732.87	18.017
733.19	18.093
733.50	18.254
733.81	18.439
734.13	18.464
734.44	18.595
734.76	18.635
735.07	18.712
735.38	18.606
735.70	18.756
736.01	18.783
736.32	18.868
736.64	18.895
736.95	18.917
737.26	18.801
737.58	18.815
737.89	18.770
738.20	18.857
738.52	18.764
738.83	18.922
739.14	18.919
739.45	19.013
739.77	19.005
740.08	19.002
740.39	19.088
740.71	19.233
741.02	19.231
741.33	19.307
741.64	19.235
741.96	19.389
742.27	19.390
742.58	19.441
742.90	19.549
743.21	19.535
743.52	19.629
743.83	19.651
744.14	19.591
744.46	19.634
744.77	19.585
745.08	19.697
745.39	19.526
745.71	19.563
746.02	19.588
746.33	19.522
746.64	19.631
746.95	19.633
747.27	19.703
747.58	19.668
747.89	19.710
748.20	19.655
748.51	19.585
748.82	19.794
749.14	20.024
749.45	19.946
749.76	19.960
750.07	20.007
750.38	20.063
750.69	20.196
751.01	20.374
751.32	20.488
751.63	20.675
751.94	20.739
752.25	20.802
752.56	20.668
752.87	20.833
753.18	20.822
753.49	20.913
753.81	20.895
754.12	20.702
754.43	20.571
754.74	20.561
755.05	20.542
755.36	20.661
755.67	20.652
755.98	20.706
756.29	20.662
756.60	20.766
756.91	20.669
757.22	20.754
757.53	20.987
757.84	21.188
758.15	21.378
758.46	21.470
758.77	21.620
759.09	21.665
759.40	21.760
759.71	21.877
760.02	21.956
760.33	22.148
760.64	22.245
760.95	22.160
761.26	22.262
761.57	22.173
761.88	22.202
762.18	22.126
762.49	22.204
762.80	22.267
763.11	22.250
763.42	22.235
763.73	22.318
764.04	22.317
764.35	22.392
764.66	22.381
764.97	22.509
765.28	22.682
765.59	22.738
765.90	22.800
766.21	22.761
766.52	22.833
766.83	22.840
767.14	22.722
767.44	22.890
767.75	22.922
768.06	22.841
768.37	22.898
768.68	22.824
768.99	22.972
769.30	22.850
769.61	22.961
769.91	23.123
770.22	23.492
770.53	23.510
770.84	23.267
771.15	23.328
771.46	23.444
771.77	23.601
772.07	23.522
772.38	23.508
772.69	23.763
773.00	23.763
773.31	23.625
773.61	23.513
773.92	23.573
774.23	23.945
774.54	24.084
774.85	24.340
775.15	24.153
775.46	24.145
775.77	24.211
776.08	24.380
776.39	24.511
776.69	24.696
777.00	24.797
777.31	24.977
777.62	24.791
777.92	24.793
778.23	24.642
778.54	24.841
778.85	24.817
779.15	24.879
779.46	24.695
779.77	24.760
780.07	24.923
780.38	25.118
780.69	25.020
781.00	25.426
781.30	25.417
781.61	25.505
781.92	25.499
782.22	25.907
782.53	25.889
782.84	26.098
783.14	26.214
783.45	26.253
783.76	26.071
784.06	26.253
784.37	26.038
784.68	26.155
784.98	26.166
785.29	26.028
785.60	25.755
785.90	25.937
786.21	25.905
786.51	25.832
786.82	25.774
787.13	25.898
787.43	26.008
787.74	25.945
788.04	26.045
788.35	26.382
788.66	26.502
788.96	26.536
789.27	26.508
789.57	26.476
789.88	26.833
790.19	26.844
790.49	26.536
790.80	26.512
791.10	26.634
791.41	26.328
791.71	26.268
792.02	26.358
792.32	26.643
792.63	26.684
792.93	26.623
793.24	26.710
793.54	26.922
793.85	27.249
794.15	27.257
794.46	27.398
794.76	27.832
795.07	27.783
795.37	27.790
795.68	28.005
795.98	28.019
796.29	28.195
796.59	27.753
796.90	27.801
797.20	27.851
797.51	27.949
797.81	27.756
798.12	27.865
798.42	27.823
798.72	27.920
799.03	27.487
799.33	27.380
799.64	27.466
799.94	27.533
800.25	27.568
800.55	27.681
800.85	27.857
801.16	28.002
801.46	27.886
801.77	28.205
802.07	28.752
802.37	29.252
802.68	29.061
802.98	29.004
803.28	29.289
803.59	29.370
803.89	29.425
804.20	29.276
804.50	29.522
804.80	29.196
805.11	29.000
805.41	28.673
805.71	28.459
806.02	29.256
806.32	29.532
806.62	29.447
806.93	29.278
807.23	29.345
807.53	29.472
807.83	29.806
808.14	30.073
808.44	30.406
808.74	30.596
809.05	30.583
809.35	30.317
809.65	30.091
809.95	30.304
810.26	30.900
810.56	30.984
810.86	31.419
811.16	31.235
811.47	31.443
811.77	31.243
812.07	31.285
812.37	31.672
812.68	31.848
812.98	32.155
813.28	32.270
813.58	31.951
813.88	31.945
814.19	31.858
814.49	31.908
814.79	32.046
815.09	31.820
815.39	31.664
815.70	31.794
816.00	31.615
816.30	31.801
816.60	31.774
816.90	31.873
817.20	32.198
817.50	32.385
817.81	32.219
818.11	32.078
818.41	32.222
818.71	32.148
819.01	32.037
819.31	31.896
819.61	31.750
819.92	31.652
820.22	31.576
820.52	31.439
820.82	31.355
821.12	31.317
821.42	31.332
821.72	31.193
822.02	31.152
822.32	31.164
822.62	31.212
822.92	31.298
823.22	31.385
823.52	31.514
823.83	31.653
824.13	31.717
824.43	31.769
824.73	31.857
825.03	32.136
825.33	32.274
825.63	32.355
825.93	32.493
826.23	32.508
826.53	32.441
826.83	32.283
827.13	32.306
827.43	32.289
827.73	32.525
828.03	32.450
828.33	32.437
828.63	32.549
828.93	32.671
829.23	32.635
829.53	32.753
829.83	32.983
830.13	33.258
830.42	33.163
830.72	33.130
831.02	33.205
831.32	33.646
831.62	33.502
831.92	33.300
832.22	33.230
832.52	33.330
832.82	33.361
833.12	33.260
833.42	33.321
833.72	33.374
834.01	33.671
834.31	33.452
834.61	33.275
834.91	33.645
835.21	33.902
835.51	34.154
835.81	34.114
836.11	33.978
836.40	34.451
836.70	34.737
837.00	34.772
837.30	34.693
837.60	34.884
837.90	35.322
838.19	35.200
838.49	35.976
838.79	35.738
839.09	36.228
839.39	36.548
839.68	36.783
839.98	36.278
840.28	36.818
840.58	37.137
840.88	38.093
841.17	37.558
841.47	37.850
841.77	37.727
842.07	38.361
842.36	38.721
842.66	39.927
842.96	39.947
843.26	40.949
843.55	40.945
843.85	41.445
844.15	40.138
844.45	41.633
844.74	42.373
845.04	41.237
845.34	40.759
845.63	40.684
845.93	39.421
846.23	39.332
846.53	39.279
846.82	39.712
847.12	39.992
847.42	41.566
847.71	40.910
848.01	39.588
848.31	41.001
848.60	41.670
848.90	41.702
849.19	41.615
849.49	41.450
849.79	41.670
850.08	41.554
850.38	40.729
850.68	41.793
850.97	42.924
851.27	41.718
851.56	40.680
851.86	41.278
852.16	41.694
852.45	41.296
852.75	42.703
853.04	42.143
853.34	41.987
853.64	42.441
853.93	41.167
854.23	38.968
854.52	41.102
854.82	40.564
855.11	40.065
855.41	40.982
855.70	42.117
856.00	41.346
856.30	42.825
856.59	42.256
856.89	41.670
857.18	40.472
857.48	42.645
857.77	43.830
858.07	45.236
858.36	43.756
858.66	42.281
858.95	42.778
859.25	42.285
859.54	42.531
859.84	43.776
860.13	43.588
860.42	44.435
860.72	43.239
861.01	41.975
861.31	42.052
861.60	43.061
861.90	43.407
862.19	42.270
862.49	43.202
862.78	42.646
863.07	42.312
863.37	43.343
863.66	43.774
863.96	43.530
864.25	41.957
864.54	43.118
864.84	42.888
865.13	43.757
865.43	44.777
865.72	27.318
866.01	55.208
866.31	39.390
866.60	52.549
866.89	48.611
>>>>>End Spectral Data<<<<<
