OOIBase32 Version 2.0.0.6 Data File
++++++++++++++++++++++++++++++++++++
Date: 01-19-2012, 15:41:35
User: Valued Ocean Optics Customer
Spectrometer Serial Number: USB2E2917
Spectrometer Channel: Master
Integration Time (msec): 5
Spectra Averaged: 10
Boxcar Smoothing: 5
Correct for Electrical Dark: Enabled
Time Normalized: Disabled
Dual-beam Reference: Disabled
Reference Channel: Master
Temperature: Not acquired
Spectrometer Type: S2000
ADC Type: USB2000
Number of Pixels in File: 2048
Graph Title: 
>>>>>Begin Spectral Data<<<<<
180.30	0.000
180.67	0.000
181.03	-182.192
181.40	-217.713
181.77	-9.230
182.14	75.505
182.51	43.461
182.88	65.571
183.25	-41.857
183.62	87.924
183.99	-24200.174
184.36	194.915
184.73	146.620
185.10	61.052
185.46	83.215
185.83	12.424
186.20	203.935
186.57	-79.170
186.94	-2.432
187.31	5.021
187.68	130.768
188.05	-6.736
188.42	-23.281
188.78	-11.251
189.15	17.393
189.52	23.845
189.89	34.898
190.26	44.398
190.63	51.551
191.00	54.076
191.37	56.308
191.73	59.239
192.10	73.973
192.47	70.289
192.84	65.108
193.21	56.764
193.58	39.830
193.94	29.279
194.31	25.899
194.68	16.750
195.05	9.938
195.42	14.246
195.79	23.012
196.15	20.696
196.52	21.626
196.89	22.125
197.26	38.486
197.63	42.197
198.00	83.711
198.36	90.292
198.73	81.720
199.10	93.529
199.47	117.056
199.84	103.891
200.20	85.384
200.57	86.510
200.94	86.845
201.31	72.274
201.68	84.875
202.04	54.422
202.41	44.600
202.78	39.280
203.15	40.889
203.51	36.300
203.88	17.979
204.25	28.466
204.62	35.421
204.98	23.576
205.35	25.370
205.72	20.439
206.09	15.983
206.46	2.961
206.82	16.250
207.19	8.610
207.56	24.709
207.92	42.153
208.29	37.043
208.66	33.974
209.03	39.855
209.39	46.288
209.76	42.010
210.13	46.068
210.50	54.885
210.86	51.726
211.23	34.942
211.60	38.891
211.96	42.965
212.33	21.726
212.70	5.655
213.07	-13.150
213.43	-10.617
213.80	13.275
214.17	33.221
214.53	33.522
214.90	21.559
215.27	46.198
215.63	44.321
216.00	39.246
216.37	52.348
216.74	46.879
217.10	56.262
217.47	47.881
217.84	42.168
218.20	41.176
218.57	50.016
218.94	53.806
219.30	54.378
219.67	52.862
220.04	50.015
220.40	38.021
220.77	37.966
221.13	29.347
221.50	27.012
221.87	21.358
222.23	19.845
222.60	14.624
222.97	13.546
223.33	16.146
223.70	11.969
224.07	11.344
224.43	13.757
224.80	9.660
225.16	9.901
225.53	10.997
225.90	12.199
226.26	11.252
226.63	8.594
226.99	7.538
227.36	6.715
227.73	6.428
228.09	5.735
228.46	6.117
228.82	6.798
229.19	6.434
229.56	3.261
229.92	3.733
230.29	3.337
230.65	4.826
231.02	5.341
231.38	4.250
231.75	4.038
232.12	4.862
232.48	3.322
232.85	4.409
233.21	6.228
233.58	9.893
233.94	9.114
234.31	8.519
234.68	8.789
235.04	7.493
235.41	7.897
235.77	7.518
236.14	8.564
236.50	9.104
236.87	8.601
237.23	7.608
237.60	7.234
237.96	6.874
238.33	6.952
238.69	5.698
239.06	5.757
239.42	5.762
239.79	4.933
240.15	4.645
240.52	4.747
240.88	4.857
241.25	4.907
241.61	4.250
241.98	4.333
242.34	4.575
242.71	4.989
243.07	5.455
243.44	5.800
243.80	5.807
244.17	5.576
244.53	5.418
244.90	4.872
245.26	4.247
245.63	3.862
245.99	3.533
246.36	3.273
246.72	2.841
247.09	2.774
247.45	2.238
247.81	2.465
248.18	2.638
248.54	2.617
248.91	2.673
249.27	3.364
249.64	4.015
250.00	4.445
250.36	4.704
250.73	5.000
251.09	4.404
251.46	4.375
251.82	4.032
252.19	3.595
252.55	3.193
252.91	3.399
253.28	3.537
253.64	3.387
254.01	3.207
254.37	3.052
254.73	3.291
255.10	3.798
255.46	4.031
255.83	4.377
256.19	4.039
256.55	4.233
256.92	4.614
257.28	4.432
257.65	4.367
258.01	4.268
258.37	4.210
258.74	4.097
259.10	3.856
259.46	3.884
259.83	3.522
260.19	3.807
260.55	3.675
260.92	3.341
261.28	3.290
261.64	3.047
262.01	3.087
262.37	3.197
262.73	2.975
263.10	3.375
263.46	3.076
263.82	3.448
264.19	3.254
264.55	3.488
264.91	3.256
265.28	2.909
265.64	3.145
266.00	3.295
266.37	3.445
266.73	4.248
267.09	4.125
267.46	4.184
267.82	4.286
268.18	4.646
268.54	4.872
268.91	4.952
269.27	5.034
269.63	4.973
270.00	4.995
270.36	4.782
270.72	4.127
271.08	4.075
271.45	4.143
271.81	4.084
272.17	3.749
272.53	3.650
272.90	3.775
273.26	3.998
273.62	4.124
273.98	3.913
274.35	3.931
274.71	4.052
275.07	3.693
275.43	3.869
275.80	3.763
276.16	3.561
276.52	3.457
276.88	3.464
277.25	3.302
277.61	3.268
277.97	3.243
278.33	3.301
278.69	3.282
279.06	3.376
279.42	3.095
279.78	3.340
280.14	3.857
280.50	3.901
280.87	3.899
281.23	3.950
281.59	3.982
281.95	4.294
282.31	4.356
282.68	4.500
283.04	4.730
283.40	4.719
283.76	4.533
284.12	4.288
284.48	4.129
284.85	3.934
285.21	3.880
285.57	3.682
285.93	3.509
286.29	3.301
286.65	3.163
287.02	3.126
287.38	3.142
287.74	3.077
288.10	3.285
288.46	3.420
288.82	3.540
289.18	3.363
289.54	3.409
289.91	3.365
290.27	3.612
290.63	3.685
290.99	3.452
291.35	3.267
291.71	3.662
292.07	3.635
292.43	3.637
292.79	3.504
293.16	3.588
293.52	3.962
293.88	4.220
294.24	4.068
294.60	3.893
294.96	4.286
295.32	4.464
295.68	4.256
296.04	4.187
296.40	4.434
296.76	4.591
297.12	4.672
297.49	4.353
297.85	4.026
298.21	4.049
298.57	4.244
298.93	4.136
299.29	4.284
299.65	4.251
300.01	4.307
300.37	4.087
300.73	4.008
301.09	3.931
301.45	4.088
301.81	4.166
302.17	4.243
302.53	4.365
302.89	4.388
303.25	4.248
303.61	4.199
303.97	4.193
304.33	4.039
304.69	4.325
305.05	4.451
305.41	4.564
305.77	4.588
306.13	4.544
306.49	4.394
306.85	4.077
307.21	4.190
307.57	4.310
307.93	4.325
308.29	4.392
308.65	4.237
309.01	4.123
309.37	4.012
309.73	3.968
310.09	3.982
310.45	4.068
310.81	4.378
311.17	4.239
311.53	4.128
311.89	4.087
312.25	4.060
312.61	4.193
312.96	4.288
313.32	4.169
313.68	4.190
314.04	4.168
314.40	4.006
314.76	3.879
315.12	3.991
315.48	3.912
315.84	3.859
316.20	4.025
316.56	3.978
316.92	3.867
317.27	3.792
317.63	3.547
317.99	3.433
318.35	3.471
318.71	3.380
319.07	3.178
319.43	3.302
319.79	3.294
320.15	3.256
320.50	3.148
320.86	3.245
321.22	3.516
321.58	3.685
321.94	3.695
322.30	3.635
322.66	3.617
323.01	3.780
323.37	3.765
323.73	3.794
324.09	3.578
324.45	3.577
324.81	3.468
325.17	3.433
325.52	3.379
325.88	3.458
326.24	3.466
326.60	3.386
326.96	3.361
327.31	3.288
327.67	3.185
328.03	3.312
328.39	3.302
328.75	3.475
329.11	3.389
329.46	3.511
329.82	3.302
330.18	3.302
330.54	3.300
330.90	3.378
331.25	3.502
331.61	3.537
331.97	3.386
332.33	3.553
332.68	3.617
333.04	3.714
333.40	3.776
333.76	3.978
334.11	4.008
334.47	4.122
334.83	4.031
335.19	3.930
335.54	3.932
335.90	4.045
336.26	3.821
336.62	3.737
336.97	3.715
337.33	3.682
337.69	3.643
338.05	3.691
338.40	3.670
338.76	3.856
339.12	3.808
339.48	3.869
339.83	3.923
340.19	4.045
340.55	4.095
340.90	4.149
341.26	4.073
341.62	4.083
341.97	4.080
342.33	4.129
342.69	4.005
343.04	4.059
343.40	3.895
343.76	3.796
344.12	3.642
344.47	3.520
344.83	3.418
345.19	3.462
345.54	3.443
345.90	3.497
346.26	3.369
346.61	3.354
346.97	3.494
347.32	3.686
347.68	3.686
348.04	3.726
348.39	3.725
348.75	3.686
349.11	3.574
349.46	3.549
349.82	3.452
350.18	3.508
350.53	3.546
350.89	3.357
351.24	3.310
351.60	3.317
351.96	3.333
352.31	3.369
352.67	3.453
353.02	3.528
353.38	3.616
353.74	3.722
354.09	3.724
354.45	3.627
354.80	3.660
355.16	3.649
355.52	3.632
355.87	3.680
356.23	3.764
356.58	3.723
356.94	3.724
357.29	3.682
357.65	3.634
358.00	3.664
358.36	3.753
358.72	3.864
359.07	3.897
359.43	3.957
359.78	4.037
360.14	4.020
360.49	3.990
360.85	3.992
361.20	3.942
361.56	3.866
361.91	3.817
362.27	3.754
362.62	3.655
362.98	3.582
363.33	3.506
363.69	3.421
364.04	3.393
364.40	3.385
364.75	3.359
365.11	3.395
365.46	3.447
365.82	3.427
366.17	3.442
366.53	3.508
366.88	3.511
367.24	3.518
367.59	3.501
367.95	3.431
368.30	3.512
368.66	3.539
369.01	3.578
369.37	3.586
369.72	3.685
370.08	3.701
370.43	3.759
370.78	3.809
371.14	3.867
371.49	3.907
371.85	3.990
372.20	3.952
372.56	4.022
372.91	4.035
373.26	4.029
373.62	3.998
373.97	4.022
374.33	3.963
374.68	3.997
375.03	3.983
375.39	4.046
375.74	4.057
376.10	4.026
376.45	4.005
376.80	4.066
377.16	4.069
377.51	4.116
377.87	4.163
378.22	4.227
378.57	4.265
378.93	4.411
379.28	4.438
379.63	4.484
379.99	4.661
380.34	4.734
380.70	4.788
381.05	4.930
381.40	5.001
381.76	5.038
382.11	5.027
382.46	5.080
382.82	5.085
383.17	5.135
383.52	5.151
383.88	5.125
384.23	5.111
384.58	5.159
384.94	5.164
385.29	5.157
385.64	5.202
385.99	5.293
386.35	5.314
386.70	5.283
387.05	5.311
387.41	5.391
387.76	5.439
388.11	5.489
388.47	5.523
388.82	5.548
389.17	5.626
389.52	5.696
389.88	5.764
390.23	5.830
390.58	5.965
390.93	6.073
391.29	6.113
391.64	6.225
391.99	6.297
392.34	6.286
392.70	6.323
393.05	6.345
393.40	6.297
393.75	6.329
394.11	6.339
394.46	6.313
394.81	6.282
395.16	6.271
395.52	6.199
395.87	6.182
396.22	6.164
396.57	6.132
396.92	6.106
397.28	6.132
397.63	6.147
397.98	6.103
398.33	6.088
398.68	6.059
399.04	6.093
399.39	6.071
399.74	6.064
400.09	6.153
400.44	6.238
400.80	6.269
401.15	6.283
401.50	6.272
401.85	6.342
402.20	6.407
402.55	6.494
402.90	6.524
403.26	6.643
403.61	6.698
403.96	6.695
404.31	6.703
404.66	6.726
405.01	6.775
405.36	6.840
405.72	6.859
406.07	6.882
406.42	6.903
406.77	6.952
407.12	6.964
407.47	7.023
407.82	7.079
408.17	7.122
408.53	7.166
408.88	7.207
409.23	7.159
409.58	7.202
409.93	7.180
410.28	7.155
410.63	7.115
410.98	7.084
411.33	7.063
411.68	7.089
412.03	7.110
412.38	7.171
412.73	7.244
413.09	7.329
413.44	7.396
413.79	7.542
414.14	7.624
414.49	7.752
414.84	7.836
415.19	7.957
415.54	8.023
415.89	8.081
416.24	8.151
416.59	8.216
416.94	8.265
417.29	8.313
417.64	8.346
417.99	8.380
418.34	8.422
418.69	8.435
419.04	8.474
419.39	8.490
419.74	8.519
420.09	8.524
420.44	8.524
420.79	8.532
421.14	8.525
421.49	8.516
421.84	8.516
422.19	8.487
422.54	8.502
422.89	8.451
423.24	8.416
423.59	8.384
423.94	8.343
424.29	8.290
424.64	8.248
424.99	8.196
425.34	8.127
425.68	8.064
426.03	8.013
426.38	7.980
426.73	7.935
427.08	7.934
427.43	7.924
427.78	7.950
428.13	7.963
428.48	8.010
428.83	8.075
429.18	8.135
429.53	8.179
429.87	8.195
430.22	8.189
430.57	8.196
430.92	8.219
431.27	8.202
431.62	8.193
431.97	8.188
432.32	8.182
432.67	8.133
433.01	8.120
433.36	8.112
433.71	8.102
434.06	8.115
434.41	8.160
434.76	8.147
435.11	8.212
435.45	8.254
435.80	8.290
436.15	8.310
436.50	8.343
436.85	8.368
437.20	8.381
437.54	8.445
437.89	8.439
438.24	8.431
438.59	8.417
438.94	8.359
439.29	8.294
439.63	8.242
439.98	8.210
440.33	8.172
440.68	8.118
441.03	8.068
441.37	8.020
441.72	8.019
442.07	8.005
442.42	7.998
442.76	8.018
443.11	8.031
443.46	8.039
443.81	8.029
444.16	8.035
444.50	8.041
444.85	8.020
445.20	7.961
445.55	7.897
445.89	7.843
446.24	7.780
446.59	7.708
446.94	7.619
447.28	7.550
447.63	7.447
447.98	7.341
448.32	7.240
448.67	7.158
449.02	7.112
449.37	7.068
449.71	7.010
450.06	6.973
450.41	6.945
450.75	6.975
451.10	6.948
451.45	6.949
451.79	6.938
452.14	6.928
452.49	6.922
452.84	6.911
453.18	6.910
453.53	6.922
453.88	6.927
454.22	6.955
454.57	6.969
454.92	7.050
455.26	7.100
455.61	7.182
455.95	7.269
456.30	7.360
456.65	7.444
456.99	7.523
457.34	7.588
457.69	7.681
458.03	7.739
458.38	7.760
458.73	7.764
459.07	7.780
459.42	7.771
459.76	7.746
460.11	7.719
460.46	7.696
460.80	7.654
461.15	7.633
461.49	7.591
461.84	7.556
462.19	7.593
462.53	7.609
462.88	7.657
463.22	7.706
463.57	7.780
463.91	7.844
464.26	7.873
464.61	7.942
464.95	7.998
465.30	8.061
465.64	8.122
465.99	8.156
466.33	8.185
466.68	8.224
467.02	8.238
467.37	8.239
467.71	8.267
468.06	8.301
468.41	8.315
468.75	8.315
469.10	8.323
469.44	8.303
469.79	8.273
470.13	8.292
470.48	8.245
470.82	8.231
471.17	8.214
471.51	8.185
471.86	8.159
472.20	8.133
472.55	8.126
472.89	8.076
473.23	8.039
473.58	8.015
473.92	7.950
474.27	7.931
474.61	7.915
474.96	7.883
475.30	7.861
475.65	7.842
475.99	7.824
476.34	7.817
476.68	7.844
477.02	7.838
477.37	7.844
477.71	7.898
478.06	7.964
478.40	8.099
478.75	8.295
479.09	8.506
479.43	8.726
479.78	8.930
480.12	9.132
480.47	9.298
480.81	9.457
481.15	9.619
481.50	9.737
481.84	9.862
482.19	9.968
482.53	10.065
482.87	10.120
483.22	10.144
483.56	10.155
483.90	10.139
484.25	10.128
484.59	10.111
484.94	10.077
485.28	10.052
485.62	10.002
485.97	9.938
486.31	9.874
486.65	9.838
487.00	9.828
487.34	9.824
487.68	9.832
488.03	9.838
488.37	9.849
488.71	9.877
489.06	9.900
489.40	9.938
489.74	9.985
490.09	10.008
490.43	10.034
490.77	10.035
491.11	10.030
491.46	10.021
491.80	10.032
492.14	10.076
492.49	10.091
492.83	10.125
493.17	10.137
493.51	10.188
493.86	10.252
494.20	10.344
494.54	10.486
494.88	10.667
495.23	10.862
495.57	11.051
495.91	11.215
496.25	11.405
496.60	11.606
496.94	11.826
497.28	12.018
497.62	12.236
497.97	12.445
498.31	12.673
498.65	12.891
498.99	13.156
499.33	13.414
499.68	13.711
500.02	14.004
500.36	14.303
500.70	14.622
501.04	14.946
501.39	15.255
501.73	15.614
502.07	15.950
502.41	16.307
502.75	16.663
503.09	17.048
503.44	17.406
503.78	17.804
504.12	18.215
504.46	18.608
504.80	19.024
505.14	19.438
505.49	19.866
505.83	20.305
506.17	20.758
506.51	21.166
506.85	21.597
507.19	22.039
507.53	22.441
507.87	22.849
508.22	23.285
508.56	23.728
508.90	24.186
509.24	24.595
509.58	25.028
509.92	25.436
510.26	25.867
510.60	26.251
510.94	26.648
511.28	27.088
511.63	27.496
511.97	27.901
512.31	28.319
512.65	28.765
512.99	29.229
513.33	29.716
513.67	30.244
514.01	30.801
514.35	31.361
514.69	31.915
515.03	32.422
515.37	32.916
515.71	33.378
516.05	33.789
516.39	34.170
516.73	34.516
517.07	34.875
517.41	35.173
517.75	35.441
518.09	35.695
518.43	35.963
518.77	36.253
519.11	36.521
519.45	36.810
519.79	37.083
520.13	37.389
520.47	37.729
520.81	38.047
521.15	38.415
521.49	38.793
521.83	39.187
522.17	39.541
522.51	39.886
522.85	40.335
523.19	40.845
523.53	41.457
523.87	42.061
524.21	42.695
524.55	43.311
524.89	43.814
525.23	44.310
525.57	44.713
525.91	45.128
526.25	45.508
526.58	45.794
526.92	46.051
527.26	46.241
527.60	46.396
527.94	46.489
528.28	46.552
528.62	46.643
528.96	46.717
529.30	46.802
529.64	46.831
529.97	46.845
530.31	46.922
530.65	46.973
530.99	47.070
531.33	47.180
531.67	47.302
532.01	47.401
532.35	47.505
532.68	47.545
533.02	47.598
533.36	47.689
533.70	47.747
534.04	47.773
534.38	47.856
534.71	47.879
535.05	47.956
535.39	48.046
535.73	48.128
536.07	48.216
536.41	48.402
536.74	48.650
537.08	48.879
537.42	49.141
537.76	49.447
538.10	49.717
538.43	50.012
538.77	50.221
539.11	50.457
539.45	50.686
539.79	50.872
540.12	51.030
540.46	51.107
540.80	51.143
541.14	51.178
541.47	51.140
541.81	51.127
542.15	51.098
542.49	51.072
542.82	50.963
543.16	50.900
543.50	50.838
543.84	50.737
544.17	50.713
544.51	50.702
544.85	50.700
545.18	50.749
545.52	50.709
545.86	50.686
546.20	50.679
546.53	50.722
546.87	50.716
547.21	50.749
547.54	50.815
547.88	50.829
548.22	50.906
548.55	50.972
548.89	51.022
549.23	51.101
549.56	51.193
549.90	51.283
550.24	51.357
550.57	51.379
550.91	51.424
551.25	51.460
551.58	51.518
551.92	51.549
552.26	51.574
552.59	51.622
552.93	51.659
553.27	51.643
553.60	51.671
553.94	51.693
554.27	51.793
554.61	51.869
554.95	51.945
555.28	52.011
555.62	52.071
555.95	52.089
556.29	52.143
556.63	52.226
556.96	52.327
557.30	52.419
557.63	52.499
557.97	52.525
558.31	52.550
558.64	52.643
558.98	52.703
559.31	52.758
559.65	52.821
559.98	52.863
560.32	52.893
560.65	52.936
560.99	53.007
561.33	53.122
561.66	53.232
562.00	53.347
562.33	53.370
562.67	53.439
563.00	53.552
563.34	53.722
563.67	53.831
564.01	53.948
564.34	54.058
564.68	54.105
565.01	54.124
565.35	54.175
565.68	54.223
566.02	54.323
566.35	54.396
566.69	54.445
567.02	54.418
567.36	54.412
567.69	54.399
568.03	54.438
568.36	54.510
568.69	54.536
569.03	54.593
569.36	54.620
569.70	54.646
570.03	54.719
570.37	54.769
570.70	54.819
571.04	54.891
571.37	54.949
571.70	54.999
572.04	55.054
572.37	55.130
572.71	55.172
573.04	55.243
573.37	55.221
573.71	55.190
574.04	55.170
574.38	55.208
574.71	55.221
575.04	55.248
575.38	55.216
575.71	55.147
576.05	55.084
576.38	55.066
576.71	54.944
577.05	54.925
577.38	54.888
577.71	54.865
578.05	54.845
578.38	54.827
578.71	54.788
579.05	54.821
579.38	54.825
579.71	54.854
580.05	54.843
580.38	54.923
580.71	54.921
581.05	54.987
581.38	54.990
581.71	55.007
582.05	55.009
582.38	55.027
582.71	55.004
583.04	55.037
583.38	55.071
583.71	55.049
584.04	55.118
584.38	55.162
584.71	55.208
585.04	55.274
585.37	55.307
585.71	55.349
586.04	55.424
586.37	55.466
586.70	55.510
587.04	55.492
587.37	55.568
587.70	55.586
588.03	55.672
588.37	55.633
588.70	55.629
589.03	55.593
589.36	55.619
589.69	55.655
590.03	55.683
590.36	55.671
590.69	55.753
591.02	55.720
591.35	55.711
591.69	55.674
592.02	55.730
592.35	55.696
592.68	55.706
593.01	55.774
593.35	55.749
593.68	55.801
594.01	55.861
594.34	55.863
594.67	55.926
595.00	55.936
595.34	56.018
595.67	56.015
596.00	56.079
596.33	56.149
596.66	56.097
596.99	56.080
597.32	56.005
597.65	55.961
597.99	55.900
598.32	55.819
598.65	55.765
598.98	55.725
599.31	55.712
599.64	55.652
599.97	55.640
600.30	55.656
600.63	55.703
600.96	55.744
601.30	55.746
601.63	55.805
601.96	55.893
602.29	55.932
602.62	55.866
602.95	55.875
603.28	55.889
603.61	55.862
603.94	55.874
604.27	55.854
604.60	55.814
604.93	55.842
605.26	55.794
605.59	55.767
605.92	55.775
606.25	55.773
606.58	55.749
606.91	55.746
607.24	55.771
607.57	55.794
607.90	55.730
608.23	55.705
608.56	55.646
608.89	55.616
609.22	55.552
609.55	55.494
609.88	55.472
610.21	55.437
610.54	55.422
610.87	55.327
611.20	55.161
611.53	55.127
611.86	55.147
612.19	55.082
612.52	54.990
612.85	54.972
613.18	54.877
613.51	54.855
613.84	54.803
614.17	54.774
614.49	54.744
614.82	54.701
615.15	54.643
615.48	54.583
615.81	54.574
616.14	54.602
616.47	54.550
616.80	54.544
617.13	54.476
617.46	54.504
617.78	54.424
618.11	54.431
618.44	54.388
618.77	54.392
619.10	54.346
619.43	54.246
619.76	54.220
620.09	54.134
620.41	54.126
620.74	54.058
621.07	53.934
621.40	53.913
621.73	53.903
622.06	53.894
622.38	53.788
622.71	53.771
623.04	53.767
623.37	53.724
623.70	53.757
624.02	53.717
624.35	53.731
624.68	53.744
625.01	53.708
625.34	53.628
625.66	53.641
625.99	53.695
626.32	53.613
626.65	53.557
626.98	53.510
627.30	53.427
627.63	53.315
627.96	53.317
628.29	53.188
628.61	53.100
628.94	53.011
629.27	52.961
629.60	52.848
629.92	52.794
630.25	52.747
630.58	52.700
630.91	52.669
631.23	52.626
631.56	52.520
631.89	52.522
632.21	52.479
632.54	52.475
632.87	52.387
633.19	52.209
633.52	52.129
633.85	52.065
634.18	51.958
634.50	51.826
634.83	51.756
635.16	51.668
635.48	51.547
635.81	51.403
636.14	51.223
636.46	51.061
636.79	51.091
637.11	51.042
637.44	50.967
637.77	50.916
638.09	50.899
638.42	50.792
638.75	50.715
639.07	50.627
639.40	50.609
639.73	50.566
640.05	50.525
640.38	50.479
640.70	50.412
641.03	50.317
641.36	50.246
641.68	50.122
642.01	50.122
642.33	50.105
642.66	50.101
642.98	50.047
643.31	49.989
643.64	49.958
643.96	49.868
644.29	49.750
644.61	49.733
644.94	49.722
645.26	49.722
645.59	49.608
645.91	49.489
646.24	49.336
646.56	49.322
646.89	49.263
647.22	49.158
647.54	49.133
647.87	49.189
648.19	49.083
648.52	48.999
648.84	48.872
649.17	48.873
649.49	48.757
649.82	48.772
650.14	48.631
650.47	48.590
650.79	48.540
651.11	48.489
651.44	48.437
651.76	48.482
652.09	48.321
652.41	48.243
652.74	48.085
653.06	48.089
653.39	47.965
653.71	47.948
654.04	47.866
654.36	47.749
654.68	47.700
655.01	47.521
655.33	47.379
655.66	47.385
655.98	47.353
656.30	47.312
656.63	47.275
656.95	47.261
657.28	47.195
657.60	47.149
657.92	47.200
658.25	47.072
658.57	47.034
658.90	46.955
659.22	46.876
659.54	46.821
659.87	46.746
660.19	46.622
660.51	46.488
660.84	46.320
661.16	46.071
661.48	45.931
661.81	45.856
662.13	45.819
662.45	45.702
662.78	45.511
663.10	45.333
663.42	45.275
663.75	45.182
664.07	45.105
664.39	45.105
664.72	45.153
665.04	45.112
665.36	45.072
665.69	44.895
666.01	44.830
666.33	44.876
666.65	44.844
666.98	44.781
667.30	44.755
667.62	44.609
667.94	44.540
668.27	44.464
668.59	44.334
668.91	44.225
669.23	44.098
669.56	44.022
669.88	43.975
670.20	43.890
670.52	43.758
670.85	43.641
671.17	43.619
671.49	43.551
671.81	43.539
672.13	43.351
672.46	43.299
672.78	43.297
673.10	43.211
673.42	43.117
673.74	43.132
674.07	43.087
674.39	43.099
674.71	43.142
675.03	43.102
675.35	43.024
675.67	43.170
676.00	43.031
676.32	42.981
676.64	43.005
676.96	43.020
677.28	43.018
677.60	43.048
677.92	42.930
678.25	42.886
678.57	42.779
678.89	42.739
679.21	42.593
679.53	42.525
679.85	42.502
680.17	42.423
680.49	42.266
680.81	42.163
681.13	42.091
681.46	42.089
681.78	42.030
682.10	42.004
682.42	41.960
682.74	41.926
683.06	41.998
683.38	41.961
683.70	41.970
684.02	41.967
684.34	41.979
684.66	41.908
684.98	41.845
685.30	41.805
685.62	41.814
685.94	41.727
686.26	41.680
686.58	41.652
686.90	41.638
687.22	41.500
687.54	41.376
687.86	41.227
688.18	41.156
688.50	40.997
688.82	40.827
689.14	40.653
689.46	40.573
689.78	40.496
690.10	40.324
690.42	40.219
690.74	40.174
691.06	40.151
691.38	40.044
691.70	39.966
692.02	39.929
692.34	39.915
692.66	39.870
692.98	39.821
693.30	39.823
693.62	39.840
693.94	39.859
694.26	39.789
694.57	39.794
694.89	39.879
695.21	39.876
695.53	39.876
695.85	39.852
696.17	39.936
696.49	39.969
696.81	40.015
697.13	39.956
697.44	39.832
697.76	39.794
698.08	39.670
698.40	39.578
698.72	39.563
699.04	39.541
699.36	39.489
699.67	39.259
699.99	39.156
700.31	38.816
700.63	38.676
700.95	38.612
701.27	38.415
701.58	38.224
701.90	38.049
702.22	37.884
702.54	37.620
702.86	37.516
703.17	37.538
703.49	37.393
703.81	37.402
704.13	37.377
704.45	37.155
704.76	37.192
705.08	37.218
705.40	37.165
705.72	37.102
706.03	37.131
706.35	37.058
706.67	36.932
706.99	36.894
707.30	36.839
707.62	36.754
707.94	36.945
708.26	37.000
708.57	37.058
708.89	37.011
709.21	37.033
709.53	37.003
709.84	36.981
710.16	37.020
710.48	37.078
710.79	37.109
711.11	37.188
711.43	37.089
711.74	36.970
712.06	36.993
712.38	36.934
712.69	36.863
713.01	36.842
713.33	36.768
713.64	36.765
713.96	36.653
714.28	36.603
714.59	36.448
714.91	36.360
715.23	36.346
715.54	36.383
715.86	36.350
716.17	36.344
716.49	36.279
716.81	36.311
717.12	36.224
717.44	36.218
717.76	36.061
718.07	36.029
718.39	36.088
718.70	36.071
719.02	35.911
719.33	35.935
719.65	35.813
719.97	35.812
720.28	35.909
720.60	35.953
720.91	36.007
721.23	36.116
721.54	36.087
721.86	35.902
722.17	35.850
722.49	35.683
722.81	35.612
723.12	35.594
723.44	35.630
723.75	35.495
724.07	35.396
724.38	35.148
724.70	35.079
725.01	35.140
725.33	35.136
725.64	35.164
725.96	35.243
726.27	35.167
726.59	35.091
726.90	35.013
727.22	34.887
727.53	34.858
727.84	34.912
728.16	34.951
728.47	34.864
728.79	34.833
729.10	34.746
729.42	34.603
729.73	34.524
730.05	34.604
730.36	34.541
730.67	34.500
730.99	34.414
731.30	34.321
731.62	34.128
731.93	34.039
732.24	33.998
732.56	33.856
732.87	33.727
733.19	33.611
733.50	33.298
733.81	33.273
734.13	33.076
734.44	32.903
734.76	32.949
735.07	32.921
735.38	32.826
735.70	32.760
736.01	32.759
736.32	32.733
736.64	32.783
736.95	32.864
737.26	32.714
737.58	32.759
737.89	32.800
738.20	32.673
738.52	32.577
738.83	32.436
739.14	32.269
739.45	32.076
739.77	31.927
740.08	31.657
740.39	31.557
740.71	31.492
741.02	31.442
741.33	31.227
741.64	31.109
741.96	30.993
742.27	31.071
742.58	31.038
742.90	31.215
743.21	31.139
743.52	31.160
743.83	31.127
744.14	31.049
744.46	30.831
744.77	30.656
745.08	30.408
745.39	30.357
745.71	30.194
746.02	30.208
746.33	29.864
746.64	29.862
746.95	30.055
747.27	29.920
747.58	29.881
747.89	29.966
748.20	30.133
748.51	30.145
748.82	30.135
749.14	30.084
749.45	29.894
749.76	29.867
750.07	29.770
750.38	29.526
750.69	29.433
751.01	29.343
751.32	29.347
751.63	29.427
751.94	29.297
752.25	29.246
752.56	29.206
752.87	29.309
753.18	29.394
753.49	29.399
753.81	29.484
754.12	29.703
754.43	29.558
754.74	29.399
755.05	29.333
755.36	29.496
755.67	29.609
755.98	29.747
756.29	29.861
756.60	30.125
756.91	30.512
757.22	30.870
757.53	30.794
757.84	31.415
758.15	31.850
758.46	32.063
758.77	32.338
759.09	32.470
759.40	32.678
759.71	32.780
760.02	32.696
760.33	32.686
760.64	32.707
760.95	32.804
761.26	32.654
761.57	32.575
761.88	32.590
762.18	32.494
762.49	32.369
762.80	32.173
763.11	32.080
763.42	32.009
763.73	31.791
764.04	31.457
764.35	31.308
764.66	30.932
764.97	30.764
765.28	30.285
765.59	29.913
765.90	29.635
766.21	29.423
766.52	28.963
766.83	28.427
767.14	28.077
767.44	27.827
767.75	27.443
768.06	27.173
768.37	26.612
768.68	26.198
768.99	25.927
769.30	25.758
769.61	25.528
769.91	25.462
770.22	25.561
770.53	25.724
770.84	25.495
771.15	25.386
771.46	25.218
771.77	25.279
772.07	25.393
772.38	25.559
772.69	25.353
773.00	25.203
773.31	24.924
773.61	25.224
773.92	25.076
774.23	25.048
774.54	25.235
774.85	25.321
775.15	25.608
775.46	26.065
775.77	26.058
776.08	25.980
776.39	25.908
776.69	26.144
777.00	26.064
777.31	26.140
777.62	26.101
777.92	25.797
778.23	25.934
778.54	25.366
778.85	24.911
779.15	25.220
779.46	25.474
779.77	25.604
780.07	25.427
780.38	24.732
780.69	24.384
781.00	24.424
781.30	24.513
781.61	24.269
781.92	24.384
782.22	24.509
782.53	24.123
782.84	23.882
783.14	23.527
783.45	23.688
783.76	24.460
784.06	24.374
784.37	24.405
784.68	24.390
784.98	24.691
785.29	24.931
785.60	25.280
785.90	25.504
786.21	25.779
786.51	26.270
786.82	26.235
787.13	25.816
787.43	26.098
787.74	26.113
788.04	26.065
788.35	26.149
788.66	25.895
788.96	25.175
789.27	24.977
789.57	24.760
789.88	24.278
790.19	24.330
790.49	24.171
790.80	23.874
791.10	23.886
791.41	23.793
791.71	24.007
792.02	23.917
792.32	24.169
792.63	24.050
792.93	24.008
793.24	24.498
793.54	24.566
793.85	24.994
794.15	24.935
794.46	24.905
794.76	24.706
795.07	24.339
795.37	24.541
795.68	24.601
795.98	24.770
796.29	25.230
796.59	24.966
796.90	24.778
797.20	24.485
797.51	24.683
797.81	24.808
798.12	25.338
798.42	25.267
798.72	25.360
799.03	25.516
799.33	25.196
799.64	25.285
799.94	25.392
800.25	25.364
800.55	25.247
800.85	25.238
801.16	24.827
801.46	24.714
801.77	25.100
802.07	25.034
802.37	24.856
802.68	25.111
802.98	24.516
803.28	24.199
803.59	24.124
803.89	24.181
804.20	24.195
804.50	24.647
804.80	24.374
805.11	24.557
805.41	24.959
805.71	24.992
806.02	24.772
806.32	24.720
806.62	24.582
806.93	24.633
807.23	24.753
807.53	24.857
807.83	24.838
808.14	25.034
808.44	24.697
808.74	23.930
809.05	24.039
809.35	23.956
809.65	24.043
809.95	24.241
810.26	24.289
810.56	23.998
810.86	23.855
811.16	23.535
811.47	23.807
811.77	23.456
812.07	24.106
812.37	24.955
812.68	25.191
812.98	25.660
813.28	26.382
813.58	26.401
813.88	26.833
814.19	26.916
814.49	27.089
814.79	26.629
815.09	27.528
815.39	27.357
815.70	26.432
816.00	26.286
816.30	26.141
816.60	25.954
816.90	26.428
817.20	26.897
817.50	27.251
817.81	27.589
818.11	28.491
818.41	28.691
818.71	29.126
819.01	29.456
819.31	29.795
819.61	29.928
819.92	30.168
820.22	30.227
820.52	30.230
820.82	30.327
821.12	30.410
821.42	30.375
821.72	30.424
822.02	30.325
822.32	30.283
822.62	30.263
822.92	30.271
823.22	30.114
823.52	30.037
823.83	30.020
824.13	29.853
824.43	29.794
824.73	29.638
825.03	29.435
825.33	29.323
825.63	29.372
825.93	29.206
826.23	29.132
826.53	28.979
826.83	29.005
827.13	28.693
827.43	28.600
827.73	28.397
828.03	28.407
828.33	28.153
828.63	28.004
828.93	27.657
829.23	27.357
829.53	27.041
829.83	27.268
830.13	27.090
830.42	27.625
830.72	27.804
831.02	27.862
831.32	27.711
831.62	27.742
831.92	28.111
832.22	27.977
832.52	27.865
832.82	27.816
833.12	27.597
833.42	27.291
833.72	26.984
834.01	26.661
834.31	26.648
834.61	26.601
834.91	26.484
835.21	25.991
835.51	25.791
835.81	25.525
836.11	25.115
836.40	24.965
836.70	24.207
837.00	23.964
837.30	23.833
837.60	23.716
837.90	23.385
838.19	23.347
838.49	23.611
838.79	23.879
839.09	24.019
839.39	24.026
839.68	23.254
839.98	24.159
840.28	23.351
840.58	23.205
840.88	22.615
841.17	22.425
841.47	22.205
841.77	21.546
842.07	21.103
842.36	20.504
842.66	19.868
842.96	20.351
843.26	19.077
843.55	19.141
843.85	18.480
844.15	18.986
844.45	18.140
844.74	15.821
845.04	13.929
845.34	13.699
845.63	14.525
845.93	14.842
846.23	14.654
846.53	15.421
846.82	16.167
847.12	16.756
847.42	14.777
847.71	15.238
848.01	16.773
848.31	18.382
848.60	18.849
848.90	18.514
849.19	18.035
849.49	16.772
849.79	14.950
850.08	14.110
850.38	13.747
850.68	15.775
850.97	15.081
851.27	16.414
851.56	16.772
851.86	15.160
852.16	16.913
852.45	18.476
852.75	19.009
853.04	20.694
853.34	21.468
853.64	21.560
853.93	20.487
854.23	20.293
854.52	19.012
854.82	18.813
855.11	20.234
855.41	19.101
855.70	18.018
856.00	19.223
856.30	19.439
856.59	17.971
856.89	16.985
857.18	15.315
857.48	14.217
857.77	13.736
858.07	13.717
858.36	12.938
858.66	14.085
858.95	14.035
859.25	11.297
859.54	12.189
859.84	11.961
860.13	14.562
860.42	14.576
860.72	16.493
861.01	17.170
861.31	17.305
861.60	16.940
861.90	17.937
862.19	17.819
862.49	19.434
862.78	18.859
863.07	20.619
863.37	21.179
863.66	22.018
863.96	22.830
864.25	23.075
864.54	24.358
864.84	23.987
865.13	20.089
865.43	20.691
865.72	20.007
866.01	29.853
866.31	12.614
866.60	-9.355
866.89	26.894
>>>>>End Spectral Data<<<<<
