OOIBase32 Version 2.0.0.6 Data File
++++++++++++++++++++++++++++++++++++
Date: 01-22-2012, 21:11:07
User: Valued Ocean Optics Customer
Spectrometer Serial Number: USB2E2917
Spectrometer Channel: Master
Integration Time (msec): 4
Spectra Averaged: 10
Boxcar Smoothing: 5
Correct for Electrical Dark: Enabled
Time Normalized: Disabled
Dual-beam Reference: Disabled
Reference Channel: Master
Temperature: Not acquired
Spectrometer Type: S2000
ADC Type: USB2000
Number of Pixels in File: 2048
Graph Title: 
>>>>>Begin Spectral Data<<<<<
180.30	0.000
180.67	0.000
181.03	80.100
181.40	165.375
181.77	-117.725
182.14	84.485
182.51	441.654
182.88	45.306
183.25	77.182
183.62	48.386
183.99	1.707
184.36	-49.628
184.73	49.931
185.10	1671.155
185.46	71.562
185.83	-4.756
186.20	135.056
186.57	345.591
186.94	59.349
187.31	-167.064
187.68	-5410.356
188.05	-276.359
188.42	-245.866
188.78	306.573
189.15	119.409
189.52	53.253
189.89	22.373
190.26	18.440
190.63	9.337
191.00	-13.531
191.37	-25.354
191.73	-20.767
192.10	-7.731
192.47	-4.949
192.84	-115.768
193.21	-126.721
193.58	-50.160
193.94	-67.065
194.31	-22.474
194.68	-32.838
195.05	-37.700
195.42	-71.122
195.79	-75.112
196.15	-59.990
196.52	-48.297
196.89	-46.236
197.26	-54.917
197.63	-68.615
198.00	-93.716
198.36	-163.857
198.73	-217.669
199.10	-117.620
199.47	-8.735
199.84	13.835
200.20	-21.158
200.57	4.666
200.94	24.879
201.31	34.177
201.68	30.867
202.04	22.820
202.41	15.761
202.78	15.468
203.15	15.360
203.51	16.011
203.88	16.628
204.25	22.622
204.62	14.640
204.98	15.732
205.35	-4.179
205.72	-33.367
206.09	-93.174
206.46	-33.367
206.82	-57.438
207.19	-80.697
207.56	-133.037
207.92	-157.633
208.29	-113.582
208.66	-110.803
209.03	-151.049
209.39	-97.184
209.76	-59.328
210.13	-19.151
210.50	-39.424
210.86	-52.907
211.23	-55.435
211.60	-44.506
211.96	-87.455
212.33	-201.567
212.70	6994.752
213.07	474.957
213.43	407.389
213.80	1314.543
214.17	237.719
214.53	1328.489
214.90	-147.827
215.27	-62.945
215.63	-150.506
216.00	-74.443
216.37	-21.614
216.74	-10.929
217.10	-21.714
217.47	-31.913
217.84	-30.703
218.20	-23.152
218.57	-9.000
218.94	-15.664
219.30	-14.017
219.67	5.162
220.04	6.524
220.40	4.867
220.77	7.077
221.13	10.052
221.50	14.594
221.87	12.636
222.23	12.491
222.60	10.468
222.97	1.073
223.33	-4.226
223.70	-10.418
224.07	-5.821
224.43	-0.733
224.80	2.365
225.16	1.993
225.53	6.616
225.90	5.085
226.26	6.687
226.63	6.121
226.99	8.110
227.36	7.823
227.73	8.590
228.09	7.810
228.46	7.349
228.82	5.819
229.19	6.970
229.56	4.060
229.92	6.819
230.29	7.652
230.65	7.756
231.02	6.300
231.38	8.141
231.75	7.145
232.12	7.818
232.48	6.725
232.85	9.173
233.21	7.710
233.58	10.243
233.94	7.545
234.31	4.005
234.68	1.405
235.04	3.341
235.41	2.300
235.77	2.154
236.14	2.135
236.50	4.074
236.87	3.714
237.23	6.067
237.60	4.565
237.96	4.899
238.33	4.442
238.69	5.492
239.06	4.527
239.42	4.745
239.79	4.893
240.15	4.363
240.52	3.542
240.88	2.931
241.25	1.496
241.61	0.850
241.98	0.693
242.34	1.000
242.71	1.203
243.07	1.690
243.44	1.965
243.80	2.301
244.17	2.069
244.53	1.738
244.90	2.283
245.26	2.880
245.63	3.091
245.99	3.378
246.36	3.307
246.72	3.073
247.09	2.845
247.45	2.635
247.81	2.519
248.18	2.700
248.54	2.764
248.91	2.541
249.27	2.129
249.64	2.382
250.00	2.835
250.36	3.278
250.73	3.628
251.09	3.466
251.46	3.370
251.82	3.584
252.19	3.806
252.55	4.454
252.91	4.637
253.28	4.567
253.64	4.493
254.01	3.510
254.37	3.469
254.73	3.200
255.10	3.510
255.46	3.778
255.83	3.649
256.19	3.704
256.55	3.670
256.92	3.785
257.28	3.876
257.65	4.017
258.01	3.936
258.37	3.819
258.74	3.866
259.10	3.985
259.46	3.951
259.83	4.061
260.19	4.143
260.55	4.129
260.92	3.859
261.28	3.593
261.64	3.581
262.01	3.806
262.37	3.948
262.73	4.000
263.10	3.728
263.46	3.701
263.82	3.469
264.19	3.158
264.55	3.473
264.91	3.671
265.28	4.248
265.64	4.104
266.00	3.934
266.37	3.897
266.73	3.918
267.09	4.015
267.46	3.863
267.82	3.999
268.18	4.165
268.54	3.917
268.91	4.139
269.27	3.826
269.63	3.786
270.00	3.913
270.36	3.972
270.72	3.825
271.08	3.866
271.45	3.921
271.81	4.081
272.17	4.200
272.53	4.354
272.90	4.181
273.26	4.127
273.62	4.066
273.98	4.399
274.35	4.417
274.71	4.246
275.07	4.489
275.43	4.731
275.80	4.543
276.16	4.303
276.52	4.326
276.88	4.556
277.25	4.478
277.61	4.737
277.97	4.448
278.33	4.475
278.69	4.810
279.06	4.509
279.42	4.226
279.78	4.149
280.14	4.201
280.50	4.169
280.87	3.906
281.23	4.133
281.59	4.102
281.95	4.100
282.31	3.909
282.68	3.881
283.04	3.828
283.40	3.769
283.76	3.645
284.12	3.626
284.48	3.553
284.85	3.549
285.21	3.630
285.57	3.730
285.93	3.846
286.29	3.873
286.65	3.739
287.02	3.733
287.38	3.898
287.74	4.069
288.10	4.071
288.46	3.940
288.82	3.969
289.18	3.654
289.54	3.446
289.91	3.294
290.27	3.592
290.63	3.777
290.99	3.805
291.35	3.711
291.71	3.560
292.07	3.467
292.43	3.456
292.79	3.520
293.16	3.656
293.52	3.692
293.88	3.761
294.24	3.563
294.60	3.521
294.96	3.658
295.32	3.772
295.68	3.838
296.04	3.969
296.40	4.108
296.76	4.006
297.12	4.100
297.49	4.010
297.85	4.147
298.21	4.207
298.57	4.184
298.93	4.151
299.29	4.144
299.65	4.355
300.01	4.157
300.37	4.232
300.73	4.454
301.09	4.638
301.45	4.652
301.81	4.473
302.17	4.358
302.53	4.444
302.89	4.475
303.25	4.377
303.61	4.240
303.97	4.457
304.33	4.412
304.69	4.396
305.05	4.170
305.41	4.335
305.77	4.354
306.13	4.616
306.49	4.573
306.85	4.638
307.21	4.629
307.57	4.572
307.93	4.498
308.29	4.590
308.65	4.442
309.01	4.518
309.37	4.455
309.73	4.516
310.09	4.347
310.45	4.321
310.81	4.216
311.17	4.206
311.53	4.313
311.89	4.355
312.25	4.252
312.61	4.262
312.96	4.251
313.32	4.255
313.68	4.054
314.04	4.247
314.40	4.242
314.76	4.232
315.12	4.331
315.48	4.349
315.84	4.197
316.20	4.082
316.56	4.094
316.92	4.107
317.27	4.251
317.63	4.382
317.99	4.140
318.35	4.157
318.71	4.285
319.07	4.404
319.43	4.188
319.79	4.279
320.15	4.445
320.50	4.593
320.86	4.467
321.22	4.437
321.58	4.344
321.94	4.490
322.30	4.692
322.66	4.698
323.01	4.647
323.37	4.830
323.73	4.833
324.09	4.933
324.45	4.866
324.81	4.977
325.17	4.875
325.52	5.012
325.88	4.928
326.24	4.741
326.60	4.670
326.96	4.710
327.31	4.582
327.67	4.689
328.03	4.527
328.39	4.392
328.75	4.427
329.11	4.519
329.46	4.468
329.82	4.531
330.18	4.727
330.54	4.784
330.90	4.655
331.25	4.682
331.61	4.626
331.97	4.657
332.33	4.762
332.68	4.741
333.04	4.760
333.40	4.747
333.76	4.708
334.11	4.593
334.47	4.655
334.83	4.723
335.19	4.806
335.54	4.812
335.90	4.868
336.26	4.872
336.62	4.893
336.97	4.832
337.33	4.876
337.69	4.866
338.05	4.957
338.40	4.830
338.76	4.907
339.12	4.966
339.48	4.852
339.83	4.806
340.19	4.904
340.55	4.877
340.90	4.839
341.26	4.872
341.62	4.944
341.97	4.906
342.33	4.985
342.69	4.945
343.04	4.866
343.40	5.117
343.76	5.134
344.12	5.129
344.47	5.213
344.83	5.309
345.19	5.247
345.54	5.267
345.90	5.205
346.26	5.224
346.61	5.120
346.97	5.219
347.32	5.143
347.68	5.240
348.04	5.252
348.39	5.253
348.75	5.273
349.11	5.320
349.46	5.368
349.82	5.415
350.18	5.498
350.53	5.664
350.89	5.675
351.24	5.698
351.60	5.654
351.96	5.616
352.31	5.632
352.67	5.654
353.02	5.744
353.38	5.815
353.74	5.914
354.09	5.904
354.45	5.859
354.80	5.818
355.16	5.860
355.52	5.969
355.87	6.015
356.23	6.055
356.58	6.104
356.94	6.126
357.29	6.031
357.65	6.007
358.00	6.037
358.36	6.085
358.72	6.086
359.07	6.095
359.43	6.043
359.78	6.119
360.14	6.172
360.49	6.173
360.85	6.144
361.20	6.220
361.56	6.264
361.91	6.279
362.27	6.338
362.62	6.434
362.98	6.490
363.33	6.525
363.69	6.522
364.04	6.460
364.40	6.494
364.75	6.580
365.11	6.619
365.46	6.626
365.82	6.567
366.17	6.557
366.53	6.575
366.88	6.685
367.24	6.743
367.59	6.783
367.95	6.918
368.30	6.899
368.66	6.923
369.01	6.975
369.37	7.018
369.72	7.148
370.08	7.200
370.43	7.199
370.78	7.159
371.14	7.161
371.49	7.105
371.85	7.094
372.20	7.174
372.56	7.203
372.91	7.178
373.26	7.222
373.62	7.171
373.97	7.206
374.33	7.250
374.68	7.298
375.03	7.330
375.39	7.334
375.74	7.359
376.10	7.441
376.45	7.486
376.80	7.560
377.16	7.520
377.51	7.625
377.87	7.663
378.22	7.674
378.57	7.681
378.93	7.699
379.28	7.808
379.63	7.835
379.99	7.776
380.34	7.763
380.70	7.763
381.05	7.826
381.40	7.800
381.76	7.819
382.11	7.828
382.46	7.847
382.82	7.828
383.17	7.841
383.52	7.831
383.88	7.884
384.23	7.899
384.58	7.894
384.94	7.920
385.29	7.989
385.64	7.941
385.99	7.945
386.35	7.922
386.70	7.993
387.05	8.008
387.41	8.041
387.76	8.025
388.11	8.036
388.47	8.015
388.82	7.992
389.17	7.959
389.52	7.983
389.88	8.003
390.23	8.033
390.58	7.977
390.93	8.008
391.29	8.036
391.64	8.043
391.99	8.039
392.34	8.129
392.70	8.192
393.05	8.220
393.40	8.282
393.75	8.310
394.11	8.307
394.46	8.371
394.81	8.382
395.16	8.380
395.52	8.445
395.87	8.501
396.22	8.463
396.57	8.470
396.92	8.456
397.28	8.417
397.63	8.431
397.98	8.459
398.33	8.504
398.68	8.524
399.04	8.495
399.39	8.479
399.74	8.473
400.09	8.511
400.44	8.489
400.80	8.515
401.15	8.535
401.50	8.546
401.85	8.541
402.20	8.531
402.55	8.499
402.90	8.557
403.26	8.570
403.61	8.597
403.96	8.627
404.31	8.678
404.66	8.694
405.01	8.751
405.36	8.778
405.72	8.839
406.07	8.854
406.42	8.959
406.77	8.951
407.12	8.976
407.47	8.973
407.82	8.949
408.17	8.942
408.53	8.992
408.88	8.989
409.23	8.993
409.58	9.000
409.93	9.028
410.28	9.009
410.63	9.019
410.98	9.022
411.33	9.021
411.68	9.035
412.03	9.039
412.38	9.023
412.73	9.039
413.09	9.030
413.44	9.020
413.79	9.003
414.14	9.001
414.49	8.996
414.84	9.005
415.19	9.005
415.54	9.005
415.89	8.983
416.24	8.975
416.59	8.965
416.94	8.978
417.29	8.956
417.64	8.952
417.99	8.938
418.34	8.942
418.69	8.921
419.04	8.928
419.39	8.954
419.74	8.989
420.09	8.983
420.44	8.976
420.79	8.987
421.14	8.995
421.49	9.018
421.84	9.036
422.19	9.050
422.54	9.091
422.89	9.107
423.24	9.109
423.59	9.132
423.94	9.173
424.29	9.204
424.64	9.238
424.99	9.311
425.34	9.351
425.68	9.383
426.03	9.431
426.38	9.442
426.73	9.484
427.08	9.509
427.43	9.515
427.78	9.533
428.13	9.562
428.48	9.564
428.83	9.543
429.18	9.526
429.53	9.558
429.87	9.561
430.22	9.571
430.57	9.580
430.92	9.595
431.27	9.596
431.62	9.585
431.97	9.588
432.32	9.609
432.67	9.630
433.01	9.654
433.36	9.655
433.71	9.683
434.06	9.720
434.41	9.754
434.76	9.766
435.11	9.816
435.45	9.827
435.80	9.836
436.15	9.843
436.50	9.821
436.85	9.821
437.20	9.798
437.54	9.782
437.89	9.777
438.24	9.746
438.59	9.762
438.94	9.730
439.29	9.742
439.63	9.740
439.98	9.728
440.33	9.756
440.68	9.768
441.03	9.804
441.37	9.818
441.72	9.820
442.07	9.843
442.42	9.841
442.76	9.869
443.11	9.882
443.46	9.896
443.81	9.908
444.16	9.921
444.50	9.927
444.85	9.932
445.20	9.954
445.55	9.955
445.89	9.964
446.24	9.985
446.59	10.008
446.94	10.041
447.28	10.072
447.63	10.114
447.98	10.153
448.32	10.187
448.67	10.200
449.02	10.219
449.37	10.286
449.71	10.316
450.06	10.355
450.41	10.378
450.75	10.377
451.10	10.401
451.45	10.416
451.79	10.429
452.14	10.467
452.49	10.511
452.84	10.521
453.18	10.526
453.53	10.550
453.88	10.540
454.22	10.533
454.57	10.539
454.92	10.550
455.26	10.542
455.61	10.528
455.95	10.493
456.30	10.480
456.65	10.491
456.99	10.489
457.34	10.502
457.69	10.521
458.03	10.508
458.38	10.522
458.73	10.543
459.07	10.565
459.42	10.591
459.76	10.627
460.11	10.664
460.46	10.676
460.80	10.709
461.15	10.725
461.49	10.740
461.84	10.814
462.19	10.883
462.53	10.894
462.88	10.918
463.22	10.952
463.57	11.006
463.91	11.025
464.26	11.081
464.61	11.105
464.95	11.148
465.30	11.192
465.64	11.198
465.99	11.199
466.33	11.212
466.68	11.231
467.02	11.227
467.37	11.228
467.71	11.237
468.06	11.242
468.41	11.236
468.75	11.245
469.10	11.245
469.44	11.262
469.79	11.265
470.13	11.252
470.48	11.273
470.82	11.296
471.17	11.288
471.51	11.301
471.86	11.317
472.20	11.321
472.55	11.316
472.89	11.314
473.23	11.308
473.58	11.284
473.92	11.312
474.27	11.301
474.61	11.301
474.96	11.312
475.30	11.304
475.65	11.304
475.99	11.327
476.34	11.335
476.68	11.327
477.02	11.346
477.37	11.378
477.71	11.372
478.06	11.376
478.40	11.365
478.75	11.401
479.09	11.441
479.43	11.492
479.78	11.565
480.12	11.637
480.47	11.736
480.81	11.836
481.15	11.940
481.50	12.058
481.84	12.202
482.19	12.363
482.53	12.475
482.87	12.517
483.22	12.455
483.56	12.311
483.90	12.161
484.25	12.047
484.59	11.967
484.94	11.877
485.28	11.774
485.62	11.629
485.97	11.468
486.31	11.339
486.65	11.290
487.00	11.337
487.34	11.487
487.68	11.637
488.03	11.748
488.37	11.767
488.71	11.798
489.06	11.831
489.40	11.853
489.74	11.872
490.09	11.892
490.43	11.914
490.77	11.942
491.11	11.943
491.46	11.970
491.80	11.959
492.14	11.975
492.49	11.983
492.83	11.978
493.17	11.993
493.51	11.998
493.86	12.010
494.20	12.012
494.54	12.021
494.88	12.061
495.23	12.057
495.57	12.080
495.91	12.101
496.25	12.119
496.60	12.131
496.94	12.173
497.28	12.203
497.62	12.210
497.97	12.226
498.31	12.265
498.65	12.273
498.99	12.320
499.33	12.351
499.68	12.379
500.02	12.401
500.36	12.441
500.70	12.465
501.04	12.499
501.39	12.543
501.73	12.573
502.07	12.582
502.41	12.613
502.75	12.625
503.09	12.639
503.44	12.659
503.78	12.680
504.12	12.701
504.46	12.689
504.80	12.715
505.14	12.736
505.49	12.743
505.83	12.750
506.17	12.770
506.51	12.792
506.85	12.814
507.19	12.845
507.53	12.876
507.87	12.899
508.22	12.928
508.56	12.950
508.90	12.942
509.24	12.973
509.58	13.000
509.92	13.009
510.26	13.027
510.60	13.061
510.94	13.106
511.28	13.126
511.63	13.166
511.97	13.206
512.31	13.219
512.65	13.273
512.99	13.306
513.33	13.341
513.67	13.364
514.01	13.389
514.35	13.414
514.69	13.429
515.03	13.467
515.37	13.454
515.71	13.470
516.05	13.494
516.39	13.500
516.73	13.505
517.07	13.530
517.41	13.563
517.75	13.588
518.09	13.591
518.43	13.610
518.77	13.612
519.11	13.650
519.45	13.660
519.79	13.681
520.13	13.714
520.47	13.761
520.81	13.781
521.15	13.799
521.49	13.811
521.83	13.824
522.17	13.816
522.51	13.810
522.85	13.821
523.19	13.846
523.53	13.914
523.87	13.988
524.21	14.054
524.55	14.124
524.89	14.196
525.23	14.258
525.57	14.325
525.91	14.372
526.25	14.443
526.58	14.514
526.92	14.586
527.26	14.621
527.60	14.628
527.94	14.626
528.28	14.624
528.62	14.609
528.96	14.609
529.30	14.591
529.64	14.598
529.97	14.586
530.31	14.551
530.65	14.519
530.99	14.494
531.33	14.487
531.67	14.501
532.01	14.514
532.35	14.530
532.68	14.555
533.02	14.587
533.36	14.602
533.70	14.614
534.04	14.629
534.38	14.621
534.71	14.635
535.05	14.660
535.39	14.663
535.73	14.670
536.07	14.685
536.41	14.706
536.74	14.726
537.08	14.744
537.42	14.767
537.76	14.811
538.10	14.858
538.43	14.874
538.77	14.904
539.11	14.928
539.45	14.951
539.79	14.968
540.12	14.972
540.46	14.976
540.80	14.986
541.14	14.992
541.47	14.999
541.81	14.992
542.15	14.990
542.49	14.994
542.82	15.008
543.16	15.001
543.50	15.028
543.84	15.032
544.17	15.051
544.51	15.091
544.85	15.112
545.18	15.116
545.52	15.160
545.86	15.207
546.20	15.234
546.53	15.276
546.87	15.323
547.21	15.356
547.54	15.411
547.88	15.451
548.22	15.451
548.55	15.479
548.89	15.521
549.23	15.547
549.56	15.568
549.90	15.583
550.24	15.603
550.57	15.645
550.91	15.660
551.25	15.668
551.58	15.691
551.92	15.720
552.26	15.767
552.59	15.786
552.93	15.818
553.27	15.853
553.60	15.888
553.94	15.916
554.27	15.944
554.61	15.956
554.95	15.992
555.28	16.006
555.62	16.007
555.95	16.005
556.29	16.029
556.63	16.033
556.96	16.034
557.30	16.050
557.63	16.028
557.97	16.046
558.31	16.052
558.64	16.057
558.98	16.080
559.31	16.115
559.65	16.112
559.98	16.071
560.32	16.078
560.65	16.080
560.99	16.071
561.33	16.074
561.66	16.046
562.00	16.045
562.33	16.017
562.67	16.006
563.00	15.983
563.34	15.989
563.67	16.017
564.01	15.993
564.34	15.998
564.68	16.004
565.01	16.016
565.35	16.036
565.68	16.049
566.02	16.072
566.35	16.092
566.69	16.101
567.02	16.102
567.36	16.127
567.69	16.129
568.03	16.103
568.36	16.075
568.69	16.058
569.03	16.061
569.36	16.036
569.70	16.021
570.03	15.988
570.37	16.017
570.70	16.025
571.04	16.000
571.37	16.004
571.70	16.034
572.04	16.056
572.37	16.081
572.71	16.076
573.04	16.088
573.37	16.117
573.71	16.162
574.04	16.157
574.38	16.204
574.71	16.228
575.04	16.290
575.38	16.323
575.71	16.369
576.05	16.406
576.38	16.446
576.71	16.483
577.05	16.527
577.38	16.544
577.71	16.572
578.05	16.523
578.38	16.551
578.71	16.541
579.05	16.540
579.38	16.546
579.71	16.542
580.05	16.512
580.38	16.543
580.71	16.518
581.05	16.513
581.38	16.505
581.71	16.551
582.05	16.539
582.38	16.547
582.71	16.547
583.04	16.560
583.38	16.573
583.71	16.603
584.04	16.592
584.38	16.595
584.71	16.618
585.04	16.622
585.37	16.601
585.71	16.622
586.04	16.586
586.37	16.610
586.70	16.597
587.04	16.608
587.37	16.580
587.70	16.567
588.03	16.555
588.37	16.539
588.70	16.560
589.03	16.553
589.36	16.544
589.69	16.567
590.03	16.567
590.36	16.557
590.69	16.499
591.02	16.539
591.35	16.526
591.69	16.525
592.02	16.477
592.35	16.462
592.68	16.455
593.01	16.438
593.35	16.404
593.68	16.333
594.01	16.304
594.34	16.344
594.67	16.300
595.00	16.284
595.34	16.297
595.67	16.312
596.00	16.305
596.33	16.315
596.66	16.322
596.99	16.329
597.32	16.371
597.65	16.378
597.99	16.340
598.32	16.359
598.65	16.337
598.98	16.278
599.31	16.298
599.64	16.272
599.97	16.254
600.30	16.225
600.63	16.218
600.96	16.218
601.30	16.226
601.63	16.208
601.96	16.191
602.29	16.223
602.62	16.236
602.95	16.206
603.28	16.199
603.61	16.175
603.94	16.176
604.27	16.192
604.60	16.178
604.93	16.180
605.26	16.204
605.59	16.227
605.92	16.240
606.25	16.263
606.58	16.281
606.91	16.293
607.24	16.316
607.57	16.331
607.90	16.316
608.23	16.306
608.56	16.309
608.89	16.310
609.22	16.271
609.55	16.254
609.88	16.244
610.21	16.243
610.54	16.243
610.87	16.234
611.20	16.221
611.53	16.260
611.86	16.281
612.19	16.305
612.52	16.298
612.85	16.348
613.18	16.353
613.51	16.352
613.84	16.334
614.17	16.339
614.49	16.324
614.82	16.405
615.15	16.396
615.48	16.389
615.81	16.386
616.14	16.408
616.47	16.398
616.80	16.399
617.13	16.450
617.46	16.436
617.78	16.416
618.11	16.473
618.44	16.420
618.77	16.412
619.10	16.413
619.43	16.436
619.76	16.431
620.09	16.416
620.41	16.423
620.74	16.398
621.07	16.434
621.40	16.481
621.73	16.502
622.06	16.516
622.38	16.546
622.71	16.573
623.04	16.541
623.37	16.535
623.70	16.543
624.02	16.544
624.35	16.536
624.68	16.568
625.01	16.583
625.34	16.541
625.66	16.555
625.99	16.513
626.32	16.520
626.65	16.559
626.98	16.571
627.30	16.630
627.63	16.663
627.96	16.700
628.29	16.692
628.61	16.682
628.94	16.709
629.27	16.698
629.60	16.732
629.92	16.743
630.25	16.681
630.58	16.682
630.91	16.663
631.23	16.656
631.56	16.613
631.89	16.631
632.21	16.646
632.54	16.670
632.87	16.679
633.19	16.695
633.52	16.673
633.85	16.705
634.18	16.699
634.50	16.660
634.83	16.684
635.16	16.697
635.48	16.658
635.81	16.610
636.14	16.569
636.46	16.566
636.79	16.535
637.11	16.514
637.44	16.514
637.77	16.563
638.09	16.557
638.42	16.491
638.75	16.458
639.07	16.417
639.40	16.412
639.73	16.423
640.05	16.335
640.38	16.341
640.70	16.315
641.03	16.310
641.36	16.279
641.68	16.294
642.01	16.361
642.33	16.415
642.66	16.471
642.98	16.501
643.31	16.505
643.64	16.636
643.96	16.644
644.29	16.718
644.61	16.725
644.94	16.734
645.26	16.774
645.59	16.756
645.91	16.810
646.24	16.802
646.56	16.807
646.89	16.846
647.22	16.779
647.54	16.766
647.87	16.742
648.19	16.766
648.52	16.728
648.84	16.672
649.17	16.630
649.49	16.527
649.82	16.538
650.14	16.550
650.47	16.516
650.79	16.540
651.11	16.528
651.44	16.531
651.76	16.537
652.09	16.633
652.41	16.692
652.74	16.697
653.06	16.711
653.39	16.717
653.71	16.734
654.04	16.776
654.36	16.778
654.68	16.813
655.01	16.860
655.33	16.886
655.66	16.791
655.98	16.748
656.30	16.745
656.63	16.761
656.95	16.743
657.28	16.716
657.60	16.702
657.92	16.646
658.25	16.670
658.57	16.619
658.90	16.498
659.22	16.545
659.54	16.530
659.87	16.551
660.19	16.548
660.51	16.554
660.84	16.521
661.16	16.520
661.48	16.561
661.81	16.529
662.13	16.496
662.45	16.620
662.78	16.601
663.10	16.605
663.42	16.631
663.75	16.676
664.07	16.698
664.39	16.722
664.72	16.727
665.04	16.751
665.36	16.734
665.69	16.793
666.01	16.759
666.33	16.788
666.65	16.812
666.98	16.776
667.30	16.811
667.62	16.828
667.94	16.861
668.27	16.869
668.59	16.865
668.91	16.881
669.23	16.902
669.56	16.947
669.88	16.929
670.20	16.873
670.52	16.902
670.85	16.863
671.17	16.831
671.49	16.854
671.81	16.819
672.13	16.830
672.46	16.852
672.78	16.832
673.10	16.753
673.42	16.775
673.74	16.886
674.07	16.980
674.39	16.962
674.71	17.018
675.03	16.997
675.35	17.015
675.67	16.967
676.00	17.030
676.32	17.056
676.64	17.161
676.96	17.198
677.28	17.263
677.60	17.230
677.92	17.313
678.25	17.330
678.57	17.370
678.89	17.427
679.21	17.585
679.53	17.583
679.85	17.674
680.17	17.733
680.49	17.782
680.81	17.787
681.13	17.861
681.46	17.902
681.78	17.965
682.10	18.051
682.42	18.187
682.74	18.177
683.06	18.298
683.38	18.328
683.70	18.376
684.02	18.415
684.34	18.545
684.66	18.659
684.98	18.781
685.30	18.853
685.62	18.982
685.94	18.973
686.26	19.085
686.58	19.158
686.90	19.210
687.22	19.310
687.54	19.424
687.86	19.414
688.18	19.445
688.50	19.452
688.82	19.573
689.14	19.547
689.46	19.628
689.78	19.718
690.10	19.754
690.42	19.839
690.74	19.870
691.06	19.950
691.38	20.033
691.70	20.110
692.02	20.186
692.34	20.185
692.66	20.252
692.98	20.397
693.30	20.395
693.62	20.510
693.94	20.641
694.26	20.686
694.57	20.755
694.89	20.783
695.21	20.834
695.53	20.938
695.85	21.061
696.17	21.167
696.49	21.154
696.81	21.282
697.13	21.360
697.44	21.432
697.76	21.602
698.08	21.684
698.40	21.799
698.72	21.852
699.04	21.889
699.36	21.919
699.67	21.992
699.99	22.092
700.31	22.195
700.63	22.164
700.95	22.227
701.27	22.099
701.58	22.174
701.90	22.235
702.22	22.325
702.54	22.462
702.86	22.554
703.17	22.606
703.49	22.709
703.81	22.648
704.13	22.736
704.45	22.709
704.76	22.947
705.08	22.996
705.40	23.107
705.72	23.238
706.03	23.387
706.35	23.528
706.67	23.683
706.99	23.783
707.30	23.943
707.62	24.101
707.94	24.330
708.26	24.375
708.57	24.518
708.89	24.613
709.21	24.653
709.53	24.661
709.84	24.794
710.16	24.807
710.48	24.918
710.79	24.956
711.11	25.027
711.43	25.079
711.74	25.101
712.06	25.075
712.38	25.230
712.69	25.376
713.01	25.540
713.33	25.504
713.64	25.690
713.96	25.827
714.28	26.008
714.59	26.190
714.91	26.342
715.23	26.556
715.54	26.636
715.86	26.677
716.17	26.778
716.49	26.701
716.81	26.864
717.12	26.923
717.44	26.839
717.76	26.909
718.07	26.820
718.39	26.755
718.70	26.698
719.02	26.859
719.33	26.799
719.65	26.732
719.97	26.717
720.28	26.761
720.60	26.719
720.91	26.952
721.23	26.927
721.54	27.082
721.86	27.283
722.17	27.487
722.49	27.589
722.81	27.908
723.12	28.043
723.44	28.365
723.75	28.451
724.07	28.498
724.38	28.492
724.70	28.607
725.01	28.631
725.33	28.625
725.64	28.650
725.96	28.585
726.27	28.564
726.59	28.702
726.90	28.638
727.22	28.671
727.53	28.757
727.84	28.676
728.16	28.714
728.47	28.840
728.79	28.857
729.10	28.709
729.42	28.835
729.73	28.768
730.05	28.751
730.36	28.795
730.67	28.815
730.99	28.879
731.30	28.922
731.62	28.962
731.93	28.970
732.24	28.883
732.56	29.062
732.87	29.085
733.19	29.156
733.50	29.308
733.81	29.242
734.13	29.225
734.44	29.217
734.76	29.488
735.07	29.375
735.38	29.357
735.70	29.365
736.01	29.396
736.32	29.355
736.64	29.431
736.95	29.155
737.26	29.322
737.58	29.362
737.89	29.462
738.20	29.386
738.52	29.476
738.83	29.560
739.14	29.754
739.45	29.812
739.77	29.833
740.08	29.778
740.39	29.850
740.71	29.670
741.02	29.576
741.33	29.513
741.64	29.285
741.96	29.397
742.27	29.370
742.58	29.416
742.90	29.345
743.21	29.429
743.52	29.446
743.83	29.499
744.14	29.529
744.46	29.564
744.77	29.475
745.08	29.656
745.39	29.717
745.71	29.792
746.02	29.674
746.33	29.707
746.64	29.796
746.95	29.926
747.27	29.857
747.58	29.963
747.89	30.265
748.20	30.390
748.51	30.452
748.82	30.463
749.14	30.413
749.45	30.599
749.76	30.505
750.07	30.403
750.38	30.218
750.69	30.441
751.01	30.628
751.32	30.421
751.63	30.343
751.94	30.496
752.25	30.492
752.56	30.414
752.87	30.387
753.18	30.451
753.49	30.537
753.81	30.588
754.12	30.539
754.43	30.509
754.74	30.503
755.05	30.764
755.36	30.652
755.67	30.853
755.98	31.050
756.29	31.178
756.60	31.405
756.91	31.631
757.22	32.070
757.53	32.313
757.84	32.425
758.15	32.797
758.46	32.796
758.77	33.090
759.09	33.057
759.40	33.114
759.71	33.289
760.02	33.375
760.33	33.399
760.64	33.342
760.95	33.386
761.26	33.326
761.57	33.237
761.88	33.352
762.18	33.317
762.49	33.399
762.80	33.487
763.11	33.386
763.42	33.330
763.73	33.247
764.04	33.107
764.35	32.903
764.66	32.876
764.97	32.766
765.28	32.572
765.59	32.334
765.90	32.060
766.21	31.900
766.52	31.704
766.83	31.690
767.14	31.512
767.44	31.354
767.75	31.316
768.06	31.265
768.37	31.260
768.68	31.308
768.99	31.498
769.30	31.413
769.61	31.220
769.91	31.158
770.22	31.046
770.53	31.100
770.84	31.186
771.15	31.197
771.46	31.316
771.77	31.284
772.07	31.206
772.38	31.205
772.69	31.297
773.00	31.329
773.31	31.329
773.61	31.307
773.92	31.522
774.23	31.659
774.54	31.543
774.85	31.814
775.15	31.786
775.46	32.073
775.77	31.875
776.08	31.942
776.39	31.990
776.69	32.239
777.00	32.035
777.31	31.885
777.62	31.874
777.92	32.203
778.23	31.827
778.54	31.905
778.85	31.864
779.15	32.079
779.46	32.170
779.77	32.466
780.07	32.335
780.38	32.766
780.69	32.807
781.00	32.964
781.30	32.885
781.61	33.037
781.92	33.151
782.22	33.094
782.53	33.035
782.84	33.049
783.14	32.841
783.45	33.035
783.76	32.994
784.06	33.123
784.37	33.323
784.68	33.396
784.98	33.492
785.29	33.869
785.60	33.800
785.90	33.877
786.21	33.912
786.51	34.140
786.82	34.178
787.13	34.042
787.43	33.937
787.74	33.740
788.04	33.871
788.35	33.949
788.66	33.650
788.96	33.702
789.27	33.711
789.57	33.859
789.88	33.778
790.19	33.812
790.49	33.867
790.80	33.897
791.10	34.147
791.41	34.069
791.71	33.974
792.02	34.078
792.32	34.042
792.63	33.936
792.93	33.807
793.24	33.668
793.54	33.672
793.85	33.645
794.15	33.645
794.46	33.538
794.76	33.701
795.07	33.627
795.37	33.579
795.68	33.858
795.98	33.989
796.29	34.064
796.59	34.111
796.90	33.992
797.20	34.326
797.51	34.553
797.81	34.479
798.12	34.326
798.42	34.516
798.72	34.535
799.03	34.379
799.33	34.323
799.64	34.521
799.94	34.793
800.25	34.901
800.55	34.737
800.85	34.778
801.16	34.809
801.46	34.821
801.77	34.698
802.07	34.926
802.37	34.883
802.68	35.097
802.98	35.284
803.28	35.213
803.59	35.321
803.89	35.037
804.20	34.948
804.50	34.927
804.80	35.021
805.11	34.977
805.41	34.687
805.71	35.066
806.02	35.006
806.32	34.520
806.62	34.372
806.93	34.308
807.23	34.676
807.53	34.866
807.83	35.109
808.14	35.460
808.44	35.658
808.74	36.125
809.05	35.621
809.35	35.743
809.65	36.013
809.95	36.193
810.26	36.639
810.56	37.043
810.86	37.026
811.16	36.916
811.47	36.818
811.77	37.208
812.07	36.933
812.37	37.429
812.68	37.813
812.98	37.772
813.28	37.880
813.58	37.737
813.88	37.502
814.19	37.843
814.49	38.214
814.79	38.473
815.09	38.126
815.39	37.958
815.70	37.794
816.00	37.697
816.30	37.902
816.60	37.696
816.90	37.638
817.20	38.013
817.50	38.147
817.81	38.258
818.11	38.302
818.41	38.966
818.71	39.168
819.01	39.327
819.31	39.428
819.61	39.526
819.92	39.691
820.22	39.847
820.52	39.813
820.82	39.780
821.12	39.669
821.42	39.643
821.72	39.516
822.02	39.532
822.32	39.488
822.62	39.385
822.92	39.292
823.22	39.203
823.52	39.133
823.83	39.103
824.13	39.096
824.43	39.223
824.73	39.323
825.03	39.317
825.33	39.338
825.63	39.256
825.93	39.334
826.23	39.328
826.53	39.371
826.83	39.330
827.13	39.261
827.43	39.150
827.73	38.983
828.03	38.774
828.33	38.719
828.63	38.515
828.93	38.899
829.23	39.040
829.53	39.016
829.83	39.119
830.13	38.990
830.42	38.932
830.72	39.052
831.02	39.224
831.32	39.084
831.62	38.933
831.92	38.961
832.22	38.603
832.52	38.231
832.82	38.511
833.12	38.350
833.42	38.324
833.72	38.242
834.01	38.212
834.31	37.781
834.61	37.981
834.91	37.972
835.21	37.917
835.51	37.956
835.81	37.750
836.11	37.637
836.40	37.579
836.70	37.312
837.00	37.433
837.30	37.638
837.60	38.327
837.90	38.461
838.19	38.677
838.49	39.238
838.79	39.238
839.09	39.955
839.39	39.576
839.68	39.617
839.98	40.044
840.28	40.278
840.58	39.791
840.88	39.645
841.17	39.026
841.47	39.124
841.77	38.608
842.07	39.005
842.36	39.319
842.66	39.774
842.96	39.711
843.26	38.638
843.55	38.092
843.85	37.346
844.15	37.501
844.45	37.455
844.74	37.306
845.04	37.347
845.34	35.951
845.63	35.400
845.93	35.708
846.23	36.800
846.53	38.173
846.82	38.381
847.12	39.222
847.42	39.121
847.71	39.905
848.01	39.455
848.31	39.820
848.60	40.503
848.90	40.462
849.19	39.796
849.49	38.634
849.79	37.465
850.08	37.382
850.38	37.307
850.68	37.279
850.97	36.992
851.27	37.318
851.56	35.933
851.86	36.055
852.16	36.628
852.45	37.286
852.75	38.017
853.04	38.305
853.34	39.564
853.64	40.280
853.93	40.266
854.23	40.882
854.52	40.220
854.82	40.364
855.11	40.076
855.41	38.364
855.70	37.257
856.00	36.149
856.30	37.120
856.59	36.229
856.89	34.358
857.18	33.425
857.48	32.834
857.77	33.743
858.07	34.348
858.36	33.239
858.66	33.907
858.95	33.727
859.25	34.437
859.54	34.633
859.84	34.660
860.13	35.344
860.42	36.422
860.72	35.942
861.01	35.089
861.31	35.203
861.60	36.289
861.90	36.774
862.19	36.763
862.49	36.335
862.78	36.421
863.07	36.073
863.37	37.627
863.66	38.093
863.96	39.157
864.25	40.522
864.54	40.596
864.84	40.536
865.13	40.697
865.43	41.057
865.72	46.357
866.01	35.851
866.31	37.856
866.60	40.049
866.89	34.444
>>>>>End Spectral Data<<<<<
