OOIBase32 Version 2.0.0.6 Data File
++++++++++++++++++++++++++++++++++++
Date: 01-18-2012, 22:39:32
User: Valued Ocean Optics Customer
Spectrometer Serial Number: USB2E2917
Spectrometer Channel: Master
Integration Time (msec): 5
Spectra Averaged: 10
Boxcar Smoothing: 5
Correct for Electrical Dark: Enabled
Time Normalized: Disabled
Dual-beam Reference: Disabled
Reference Channel: Master
Temperature: Not acquired
Spectrometer Type: S2000
ADC Type: USB2000
Number of Pixels in File: 2048
Graph Title: 
>>>>>Begin Spectral Data<<<<<
180.30	0.000
180.67	0.000
181.03	885.878
181.40	-3657.720
181.77	-1055.529
182.14	168.990
182.51	180.571
182.88	-14.782
183.25	-16.985
183.62	-319.661
183.99	694.304
184.36	-264.727
184.73	-62.898
185.10	143.702
185.46	9.018
185.83	14.599
186.20	475.898
186.57	-198.663
186.94	-35.713
187.31	101.838
187.68	-19.025
188.05	8.291
188.42	-23.964
188.78	-28.215
189.15	-42.248
189.52	-72.385
189.89	-61.423
190.26	-43.480
190.63	-22.429
191.00	-21.380
191.37	-38.388
191.73	-32.641
192.10	-21.899
192.47	-40.147
192.84	-70.745
193.21	-53.288
193.58	-6.591
193.94	-13.205
194.31	-14.519
194.68	-25.725
195.05	-23.928
195.42	-19.176
195.79	-17.661
196.15	-29.545
196.52	-18.788
196.89	-7.249
197.26	3.581
197.63	-74.798
198.00	-8.838
198.36	-7.376
198.73	10.322
199.10	21.668
199.47	26.573
199.84	26.462
200.20	33.235
200.57	29.194
200.94	32.849
201.31	29.580
201.68	33.111
202.04	23.925
202.41	24.051
202.78	20.652
203.15	19.037
203.51	30.953
203.88	32.252
204.25	20.272
204.62	25.412
204.98	31.903
205.35	33.846
205.72	30.395
206.09	43.655
206.46	58.430
206.82	70.005
207.19	76.063
207.56	64.768
207.92	54.651
208.29	61.834
208.66	57.149
209.03	50.638
209.39	39.394
209.76	43.341
210.13	32.243
210.50	19.472
210.86	8.922
211.23	-5.389
211.60	-8.102
211.96	-10.765
212.33	-29.231
212.70	-26.008
213.07	-15.173
213.43	-3.870
213.80	-1.837
214.17	-4.877
214.53	-8.269
214.90	-13.721
215.27	-3.982
215.63	5.742
216.00	1.467
216.37	9.453
216.74	20.593
217.10	-4.015
217.47	-6.326
217.84	0.203
218.20	10.558
218.57	13.698
218.94	29.590
219.30	18.727
219.67	13.805
220.04	15.625
220.40	15.025
220.77	3.840
221.13	3.278
221.50	7.722
221.87	6.382
222.23	2.971
222.60	3.385
222.97	-5.299
223.33	8.077
223.70	5.878
224.07	9.898
224.43	8.853
224.80	2.532
225.16	8.641
225.53	10.033
225.90	9.974
226.26	8.004
226.63	6.629
226.99	9.283
227.36	5.990
227.73	4.591
228.09	3.479
228.46	2.845
228.82	5.118
229.19	3.815
229.56	2.265
229.92	2.822
230.29	4.142
230.65	4.144
231.02	1.890
231.38	1.300
231.75	2.465
232.12	3.090
232.48	1.339
232.85	2.144
233.21	2.346
233.58	2.911
233.94	1.724
234.31	0.375
234.68	1.806
235.04	2.019
235.41	4.729
235.77	4.609
236.14	5.672
236.50	8.614
236.87	8.178
237.23	6.481
237.60	6.714
237.96	6.400
238.33	7.397
238.69	7.273
239.06	7.450
239.42	6.136
239.79	6.064
240.15	5.096
240.52	3.457
240.88	3.416
241.25	4.232
241.61	3.096
241.98	3.155
242.34	3.383
242.71	3.145
243.07	2.997
243.44	3.090
243.80	2.991
244.17	2.721
244.53	3.085
244.90	2.616
245.26	1.774
245.63	2.058
245.99	1.734
246.36	1.241
246.72	1.362
247.09	1.514
247.45	2.054
247.81	2.289
248.18	2.285
248.54	2.447
248.91	2.632
249.27	3.334
249.64	3.206
250.00	3.619
250.36	3.897
250.73	4.335
251.09	4.095
251.46	3.580
251.82	3.438
252.19	3.917
252.55	3.562
252.91	4.183
253.28	3.853
253.64	3.227
254.01	2.814
254.37	2.290
254.73	0.887
255.10	0.820
255.46	1.116
255.83	0.896
256.19	0.934
256.55	1.201
256.92	0.869
257.28	0.664
257.65	1.476
258.01	1.106
258.37	1.169
258.74	1.148
259.10	0.509
259.46	-0.012
259.83	0.402
260.19	-0.013
260.55	-0.288
260.92	0.114
261.28	0.532
261.64	0.005
262.01	0.472
262.37	1.007
262.73	1.444
263.10	2.601
263.46	2.956
263.82	2.513
264.19	3.100
264.55	3.247
264.91	2.632
265.28	2.662
265.64	2.397
266.00	2.217
266.37	1.983
266.73	1.400
267.09	1.022
267.46	1.025
267.82	1.160
268.18	0.930
268.54	0.984
268.91	1.204
269.27	1.235
269.63	1.828
270.00	1.786
270.36	1.516
270.72	2.255
271.08	2.312
271.45	2.417
271.81	2.138
272.17	1.854
272.53	1.741
272.90	1.561
273.26	1.122
273.62	0.346
273.98	0.749
274.35	0.941
274.71	0.263
275.07	0.269
275.43	0.331
275.80	0.417
276.16	0.331
276.52	0.699
276.88	0.654
277.25	0.693
277.61	1.159
277.97	1.168
278.33	1.282
278.69	1.488
279.06	1.497
279.42	1.126
279.78	1.083
280.14	1.619
280.50	1.469
280.87	1.708
281.23	1.998
281.59	2.118
281.95	2.139
282.31	2.025
282.68	2.223
283.04	2.562
283.40	2.804
283.76	2.760
284.12	2.855
284.48	2.824
284.85	2.791
285.21	2.557
285.57	2.653
285.93	2.455
286.29	2.343
286.65	2.292
287.02	2.230
287.38	2.236
287.74	2.370
288.10	2.347
288.46	2.792
288.82	2.925
289.18	3.284
289.54	2.992
289.91	3.172
290.27	3.231
290.63	3.336
290.99	3.216
291.35	3.464
291.71	3.710
292.07	3.826
292.43	3.432
292.79	3.652
293.16	3.886
293.52	4.271
293.88	4.311
294.24	4.680
294.60	4.840
294.96	5.054
295.32	5.092
295.68	5.076
296.04	5.123
296.40	5.380
296.76	5.355
297.12	5.414
297.49	5.662
297.85	5.999
298.21	6.111
298.57	6.036
298.93	6.320
299.29	6.602
299.65	7.127
300.01	7.477
300.37	7.804
300.73	8.194
301.09	8.366
301.45	8.581
301.81	8.852
302.17	8.993
302.53	9.526
302.89	9.696
303.25	9.676
303.61	9.616
303.97	9.698
304.33	9.714
304.69	9.704
305.05	9.801
305.41	9.841
305.77	9.675
306.13	9.782
306.49	9.781
306.85	9.749
307.21	10.051
307.57	10.325
307.93	10.417
308.29	10.529
308.65	10.593
309.01	10.628
309.37	10.725
309.73	11.025
310.09	11.219
310.45	11.154
310.81	11.239
311.17	11.229
311.53	11.227
311.89	11.189
312.25	11.292
312.61	11.324
312.96	11.389
313.32	11.414
313.68	11.349
314.04	11.305
314.40	11.338
314.76	11.363
315.12	11.375
315.48	11.362
315.84	11.592
316.20	11.734
316.56	11.844
316.92	11.942
317.27	11.903
317.63	11.825
317.99	11.821
318.35	11.961
318.71	12.035
319.07	12.146
319.43	12.076
319.79	12.160
320.15	12.229
320.50	12.368
320.86	12.552
321.22	12.650
321.58	12.859
321.94	13.093
322.30	13.268
322.66	13.464
323.01	13.800
323.37	13.971
323.73	14.012
324.09	14.091
324.45	14.337
324.81	14.432
325.17	14.792
325.52	15.093
325.88	15.340
326.24	15.675
326.60	16.034
326.96	16.126
327.31	16.484
327.67	16.849
328.03	17.205
328.39	17.512
328.75	17.891
329.11	18.206
329.46	18.558
329.82	18.682
330.18	18.791
330.54	18.952
330.90	19.219
331.25	19.528
331.61	19.839
331.97	19.998
332.33	20.121
332.68	20.221
333.04	20.265
333.40	20.370
333.76	20.655
334.11	20.726
334.47	20.908
334.83	20.843
335.19	20.889
335.54	20.911
335.90	21.184
336.26	21.270
336.62	21.360
336.97	21.526
337.33	21.545
337.69	21.549
338.05	21.683
338.40	21.645
338.76	21.699
339.12	21.856
339.48	21.808
339.83	21.616
340.19	21.470
340.55	21.652
340.90	21.476
341.26	21.365
341.62	21.366
341.97	21.497
342.33	21.520
342.69	21.520
343.04	21.373
343.40	21.453
343.76	21.438
344.12	21.484
344.47	21.394
344.83	21.441
345.19	21.484
345.54	21.374
345.90	21.246
346.26	21.146
346.61	21.193
346.97	21.243
347.32	21.109
347.68	21.235
348.04	21.222
348.39	21.168
348.75	21.119
349.11	21.093
349.46	21.143
349.82	21.168
350.18	21.217
350.53	21.309
350.89	21.240
351.24	21.205
351.60	21.115
351.96	21.057
352.31	21.014
352.67	21.108
353.02	21.023
353.38	20.987
353.74	20.841
354.09	20.813
354.45	20.711
354.80	20.730
355.16	20.873
355.52	20.765
355.87	20.714
356.23	20.623
356.58	20.532
356.94	20.500
357.29	20.468
357.65	20.519
358.00	20.459
358.36	20.311
358.72	20.293
359.07	20.228
359.43	20.310
359.78	20.302
360.14	20.258
360.49	20.067
360.85	20.158
361.20	20.118
361.56	20.103
361.91	20.065
362.27	20.102
362.62	20.015
362.98	19.856
363.33	19.698
363.69	19.675
364.04	19.694
364.40	19.779
364.75	19.681
365.11	19.637
365.46	19.596
365.82	19.602
366.17	19.602
366.53	19.558
366.88	19.558
367.24	19.584
367.59	19.538
367.95	19.561
368.30	19.492
368.66	19.458
369.01	19.424
369.37	19.335
369.72	19.267
370.08	19.225
370.43	19.195
370.78	19.181
371.14	19.120
371.49	19.202
371.85	19.118
372.20	19.213
372.56	19.177
372.91	19.121
373.26	19.144
373.62	19.102
373.97	19.115
374.33	19.076
374.68	19.034
375.03	19.011
375.39	18.933
375.74	18.915
376.10	18.796
376.45	18.743
376.80	18.744
377.16	18.672
377.51	18.634
377.87	18.553
378.22	18.481
378.57	18.504
378.93	18.495
379.28	18.421
379.63	18.421
379.99	18.475
380.34	18.478
380.70	18.484
381.05	18.489
381.40	18.479
381.76	18.385
382.11	18.376
382.46	18.240
382.82	18.180
383.17	18.070
383.52	17.970
383.88	17.887
384.23	17.831
384.58	17.749
384.94	17.762
385.29	17.765
385.64	17.814
385.99	17.773
386.35	17.789
386.70	17.745
387.05	17.788
387.41	17.776
387.76	17.708
388.11	17.689
388.47	17.683
388.82	17.571
389.17	17.488
389.52	17.425
389.88	17.406
390.23	17.411
390.58	17.377
390.93	17.374
391.29	17.318
391.64	17.308
391.99	17.327
392.34	17.261
392.70	17.245
393.05	17.238
393.40	17.184
393.75	17.172
394.11	17.073
394.46	17.008
394.81	16.899
395.16	16.838
395.52	16.790
395.87	16.654
396.22	16.615
396.57	16.575
396.92	16.494
397.28	16.459
397.63	16.377
397.98	16.339
398.33	16.333
398.68	16.288
399.04	16.233
399.39	16.179
399.74	16.124
400.09	16.048
400.44	15.996
400.80	15.977
401.15	15.924
401.50	15.913
401.85	15.893
402.20	15.828
402.55	15.799
402.90	15.750
403.26	15.671
403.61	15.651
403.96	15.642
404.31	15.555
404.66	15.457
405.01	15.420
405.36	15.349
405.72	15.291
406.07	15.218
406.42	15.152
406.77	15.139
407.12	15.150
407.47	15.113
407.82	15.071
408.17	15.041
408.53	15.041
408.88	15.020
409.23	14.955
409.58	14.916
409.93	14.878
410.28	14.837
410.63	14.770
410.98	14.703
411.33	14.644
411.68	14.627
412.03	14.606
412.38	14.560
412.73	14.486
413.09	14.453
413.44	14.412
413.79	14.419
414.14	14.403
414.49	14.406
414.84	14.403
415.19	14.387
415.54	14.357
415.89	14.325
416.24	14.298
416.59	14.329
416.94	14.332
417.29	14.319
417.64	14.300
417.99	14.296
418.34	14.262
418.69	14.225
419.04	14.207
419.39	14.179
419.74	14.159
420.09	14.155
420.44	14.082
420.79	14.029
421.14	14.004
421.49	13.961
421.84	13.932
422.19	13.902
422.54	13.868
422.89	13.844
423.24	13.809
423.59	13.751
423.94	13.701
424.29	13.679
424.64	13.676
424.99	13.622
425.34	13.597
425.68	13.563
426.03	13.499
426.38	13.491
426.73	13.480
427.08	13.453
427.43	13.470
427.78	13.474
428.13	13.462
428.48	13.452
428.83	13.483
429.18	13.476
429.53	13.498
429.87	13.572
430.22	13.547
430.57	13.513
430.92	13.482
431.27	13.469
431.62	13.428
431.97	13.420
432.32	13.384
432.67	13.342
433.01	13.308
433.36	13.266
433.71	13.219
434.06	13.191
434.41	13.167
434.76	13.175
435.11	13.195
435.45	13.191
435.80	13.176
436.15	13.190
436.50	13.187
436.85	13.198
437.20	13.181
437.54	13.164
437.89	13.142
438.24	13.120
438.59	13.086
438.94	13.046
439.29	13.017
439.63	13.021
439.98	12.992
440.33	12.969
440.68	12.945
441.03	12.945
441.37	12.931
441.72	12.969
442.07	12.965
442.42	12.980
442.76	12.982
443.11	12.982
443.46	12.949
443.81	12.926
444.16	12.910
444.50	12.877
444.85	12.819
445.20	12.794
445.55	12.723
445.89	12.689
446.24	12.625
446.59	12.567
446.94	12.524
447.28	12.474
447.63	12.423
447.98	12.384
448.32	12.356
448.67	12.349
449.02	12.299
449.37	12.315
449.71	12.267
450.06	12.261
450.41	12.249
450.75	12.230
451.10	12.236
451.45	12.212
451.79	12.198
452.14	12.195
452.49	12.149
452.84	12.133
453.18	12.078
453.53	12.072
453.88	12.060
454.22	12.058
454.57	12.046
454.92	12.020
455.26	12.037
455.61	12.017
455.95	11.989
456.30	11.995
456.65	11.987
456.99	11.994
457.34	12.010
457.69	12.000
458.03	11.977
458.38	11.943
458.73	11.921
459.07	11.894
459.42	11.862
459.76	11.852
460.11	11.804
460.46	11.780
460.80	11.724
461.15	11.649
461.49	11.611
461.84	11.584
462.19	11.582
462.53	11.572
462.88	11.550
463.22	11.554
463.57	11.527
463.91	11.546
464.26	11.556
464.61	11.554
464.95	11.572
465.30	11.570
465.64	11.559
465.99	11.533
466.33	11.493
466.68	11.478
467.02	11.457
467.37	11.436
467.71	11.416
468.06	11.382
468.41	11.351
468.75	11.304
469.10	11.264
469.44	11.226
469.79	11.212
470.13	11.186
470.48	11.158
470.82	11.134
471.17	11.116
471.51	11.087
471.86	11.047
472.20	11.015
472.55	10.964
472.89	10.937
473.23	10.901
473.58	10.867
473.92	10.869
474.27	10.839
474.61	10.799
474.96	10.765
475.30	10.745
475.65	10.716
475.99	10.672
476.34	10.684
476.68	10.659
477.02	10.639
477.37	10.610
477.71	10.584
478.06	10.567
478.40	10.580
478.75	10.620
479.09	10.701
479.43	10.788
479.78	10.903
480.12	10.991
480.47	11.069
480.81	11.133
481.15	11.198
481.50	11.251
481.84	11.341
482.19	11.427
482.53	11.491
482.87	11.484
483.22	11.404
483.56	11.337
483.90	11.280
484.25	11.239
484.59	11.194
484.94	11.127
485.28	11.051
485.62	10.940
485.97	10.802
486.31	10.677
486.65	10.608
487.00	10.624
487.34	10.605
487.68	10.571
488.03	10.521
488.37	10.475
488.71	10.438
489.06	10.404
489.40	10.368
489.74	10.337
490.09	10.288
490.43	10.247
490.77	10.194
491.11	10.137
491.46	10.081
491.80	10.007
492.14	9.953
492.49	9.904
492.83	9.851
493.17	9.790
493.51	9.742
493.86	9.708
494.20	9.642
494.54	9.614
494.88	9.610
495.23	9.601
495.57	9.633
495.91	9.622
496.25	9.625
496.60	9.618
496.94	9.609
497.28	9.606
497.62	9.575
497.97	9.569
498.31	9.548
498.65	9.526
498.99	9.513
499.33	9.472
499.68	9.442
500.02	9.398
500.36	9.368
500.70	9.353
501.04	9.313
501.39	9.287
501.73	9.257
502.07	9.233
502.41	9.226
502.75	9.213
503.09	9.198
503.44	9.193
503.78	9.217
504.12	9.249
504.46	9.246
504.80	9.242
505.14	9.251
505.49	9.262
505.83	9.266
506.17	9.265
506.51	9.261
506.85	9.256
507.19	9.245
507.53	9.235
507.87	9.197
508.22	9.188
508.56	9.182
508.90	9.160
509.24	9.143
509.58	9.127
509.92	9.099
510.26	9.063
510.60	9.039
510.94	9.020
511.28	8.982
511.63	8.960
511.97	8.927
512.31	8.897
512.65	8.890
512.99	8.867
513.33	8.848
513.67	8.845
514.01	8.853
514.35	8.855
514.69	8.873
515.03	8.887
515.37	8.900
515.71	8.906
516.05	8.910
516.39	8.920
516.73	8.917
517.07	8.900
517.41	8.889
517.75	8.866
518.09	8.846
518.43	8.796
518.77	8.751
519.11	8.707
519.45	8.661
519.79	8.607
520.13	8.558
520.47	8.507
520.81	8.479
521.15	8.453
521.49	8.438
521.83	8.430
522.17	8.432
522.51	8.445
522.85	8.444
523.19	8.485
523.53	8.564
523.87	8.635
524.21	8.735
524.55	8.803
524.89	8.869
525.23	8.923
525.57	8.971
525.91	9.023
526.25	9.056
526.58	9.112
526.92	9.130
527.26	9.136
527.60	9.120
527.94	9.090
528.28	9.052
528.62	9.001
528.96	8.951
529.30	8.902
529.64	8.853
529.97	8.803
530.31	8.732
530.65	8.673
530.99	8.604
531.33	8.566
531.67	8.522
532.01	8.502
532.35	8.473
532.68	8.443
533.02	8.417
533.36	8.371
533.70	8.312
534.04	8.262
534.38	8.218
534.71	8.185
535.05	8.129
535.39	8.084
535.73	8.044
536.07	8.022
536.41	8.015
536.74	8.009
537.08	8.017
537.42	8.056
537.76	8.097
538.10	8.126
538.43	8.148
538.77	8.181
539.11	8.211
539.45	8.229
539.79	8.243
540.12	8.254
540.46	8.245
540.80	8.228
541.14	8.198
541.47	8.159
541.81	8.112
542.15	8.062
542.49	8.006
542.82	7.946
543.16	7.886
543.50	7.833
543.84	7.759
544.17	7.689
544.51	7.651
544.85	7.609
545.18	7.551
545.52	7.534
545.86	7.509
546.20	7.485
546.53	7.436
546.87	7.398
547.21	7.339
547.54	7.314
547.88	7.294
548.22	7.250
548.55	7.245
548.89	7.251
549.23	7.223
549.56	7.192
549.90	7.164
550.24	7.189
550.57	7.173
550.91	7.175
551.25	7.151
551.58	7.164
551.92	7.154
552.26	7.117
552.59	7.104
552.93	7.081
553.27	7.072
553.60	7.074
553.94	7.036
554.27	7.021
554.61	7.011
554.95	7.012
555.28	6.968
555.62	6.968
555.95	6.967
556.29	6.956
556.63	6.960
556.96	6.966
557.30	6.976
557.63	6.972
557.97	6.990
558.31	7.003
558.64	6.986
558.98	6.986
559.31	6.981
559.65	6.953
559.98	6.937
560.32	6.933
560.65	6.926
560.99	6.912
561.33	6.933
561.66	6.942
562.00	6.935
562.33	6.963
562.67	6.995
563.00	6.985
563.34	7.027
563.67	7.061
564.01	7.076
564.34	7.074
564.68	7.076
565.01	7.062
565.35	7.058
565.68	7.053
566.02	7.047
566.35	7.042
566.69	7.056
567.02	7.069
567.36	7.073
567.69	7.097
568.03	7.111
568.36	7.130
568.69	7.124
569.03	7.139
569.36	7.137
569.70	7.150
570.03	7.131
570.37	7.131
570.70	7.103
571.04	7.096
571.37	7.068
571.70	7.062
572.04	7.036
572.37	7.044
572.71	7.022
573.04	7.020
573.37	6.999
573.71	6.993
574.04	6.972
574.38	6.952
574.71	6.941
575.04	6.916
575.38	6.893
575.71	6.876
576.05	6.863
576.38	6.821
576.71	6.799
577.05	6.773
577.38	6.741
577.71	6.735
578.05	6.733
578.38	6.684
578.71	6.649
579.05	6.651
579.38	6.651
579.71	6.618
580.05	6.607
580.38	6.609
580.71	6.633
581.05	6.655
581.38	6.625
581.71	6.617
582.05	6.636
582.38	6.660
582.71	6.676
583.04	6.687
583.38	6.688
583.71	6.716
584.04	6.702
584.38	6.664
584.71	6.686
585.04	6.746
585.37	6.768
585.71	6.776
586.04	6.794
586.37	6.780
586.70	6.765
587.04	6.781
587.37	6.805
587.70	6.854
588.03	6.882
588.37	6.892
588.70	6.890
589.03	6.904
589.36	6.911
589.69	6.920
590.03	6.915
590.36	6.924
590.69	6.942
591.02	6.925
591.35	6.874
591.69	6.897
592.02	6.879
592.35	6.896
592.68	6.899
593.01	6.902
593.35	6.892
593.68	6.903
594.01	6.911
594.34	6.895
594.67	6.915
595.00	6.929
595.34	6.900
595.67	6.892
596.00	6.857
596.33	6.833
596.66	6.825
596.99	6.831
597.32	6.812
597.65	6.804
597.99	6.787
598.32	6.772
598.65	6.782
598.98	6.777
599.31	6.805
599.64	6.822
599.97	6.841
600.30	6.856
600.63	6.869
600.96	6.889
601.30	6.911
601.63	6.941
601.96	6.963
602.29	6.969
602.62	6.975
602.95	6.930
603.28	6.943
603.61	6.938
603.94	6.918
604.27	6.923
604.60	6.888
604.93	6.847
605.26	6.846
605.59	6.821
605.92	6.807
606.25	6.788
606.58	6.820
606.91	6.813
607.24	6.831
607.57	6.825
607.90	6.817
608.23	6.829
608.56	6.827
608.89	6.826
609.22	6.785
609.55	6.760
609.88	6.782
610.21	6.742
610.54	6.693
610.87	6.643
611.20	6.637
611.53	6.598
611.86	6.602
612.19	6.589
612.52	6.547
612.85	6.562
613.18	6.578
613.51	6.554
613.84	6.565
614.17	6.560
614.49	6.599
614.82	6.605
615.15	6.580
615.48	6.589
615.81	6.615
616.14	6.618
616.47	6.621
616.80	6.592
617.13	6.593
617.46	6.613
617.78	6.655
618.11	6.616
618.44	6.597
618.77	6.614
619.10	6.593
619.43	6.581
619.76	6.580
620.09	6.591
620.41	6.593
620.74	6.595
621.07	6.567
621.40	6.558
621.73	6.576
622.06	6.587
622.38	6.587
622.71	6.580
623.04	6.547
623.37	6.558
623.70	6.574
624.02	6.580
624.35	6.567
624.68	6.574
625.01	6.563
625.34	6.518
625.66	6.525
625.99	6.528
626.32	6.530
626.65	6.546
626.98	6.525
627.30	6.509
627.63	6.482
627.96	6.486
628.29	6.484
628.61	6.431
628.94	6.432
629.27	6.402
629.60	6.369
629.92	6.356
630.25	6.349
630.58	6.358
630.91	6.331
631.23	6.331
631.56	6.323
631.89	6.336
632.21	6.367
632.54	6.369
632.87	6.343
633.19	6.332
633.52	6.326
633.85	6.307
634.18	6.290
634.50	6.285
634.83	6.302
635.16	6.267
635.48	6.238
635.81	6.217
636.14	6.214
636.46	6.228
636.79	6.208
637.11	6.175
637.44	6.164
637.77	6.136
638.09	6.109
638.42	6.102
638.75	6.108
639.07	6.095
639.40	6.105
639.73	6.087
640.05	6.079
640.38	6.090
640.70	6.116
641.03	6.097
641.36	6.083
641.68	6.102
642.01	6.093
642.33	6.064
642.66	5.987
642.98	5.980
643.31	5.979
643.64	6.028
643.96	6.057
644.29	6.061
644.61	6.064
644.94	6.075
645.26	6.044
645.59	6.013
645.91	6.062
646.24	6.094
646.56	6.079
646.89	6.081
647.22	6.013
647.54	6.006
647.87	6.005
648.19	6.034
648.52	6.043
648.84	6.052
649.17	6.065
649.49	6.054
649.82	6.057
650.14	6.086
650.47	6.099
650.79	6.091
651.11	6.086
651.44	6.043
651.76	6.024
652.09	6.013
652.41	6.012
652.74	6.031
653.06	6.043
653.39	6.082
653.71	6.059
654.04	6.038
654.36	6.034
654.68	5.998
655.01	5.980
655.33	5.971
655.66	5.999
655.98	6.020
656.30	6.004
656.63	5.984
656.95	5.975
657.28	6.010
657.60	5.960
657.92	5.969
658.25	5.952
658.57	5.988
658.90	6.004
659.22	5.992
659.54	5.938
659.87	5.906
660.19	5.895
660.51	5.845
660.84	5.766
661.16	5.790
661.48	5.775
661.81	5.793
662.13	5.737
662.45	5.709
662.78	5.676
663.10	5.685
663.42	5.711
663.75	5.660
664.07	5.607
664.39	5.614
664.72	5.640
665.04	5.595
665.36	5.558
665.69	5.575
666.01	5.547
666.33	5.537
666.65	5.516
666.98	5.434
667.30	5.499
667.62	5.550
667.94	5.550
668.27	5.511
668.59	5.537
668.91	5.507
669.23	5.475
669.56	5.458
669.88	5.395
670.20	5.416
670.52	5.493
670.85	5.437
671.17	5.401
671.49	5.329
671.81	5.288
672.13	5.211
672.46	5.224
672.78	5.253
673.10	5.284
673.42	5.281
673.74	5.177
674.07	5.128
674.39	5.082
674.71	5.064
675.03	5.097
675.35	5.128
675.67	5.179
676.00	5.218
676.32	5.184
676.64	5.141
676.96	5.153
677.28	5.274
677.60	5.313
677.92	5.313
678.25	5.305
678.57	5.289
678.89	5.274
679.21	5.288
679.53	5.238
679.85	5.246
680.17	5.258
680.49	5.237
680.81	5.157
681.13	5.072
681.46	5.091
681.78	5.079
682.10	5.016
682.42	5.002
682.74	4.970
683.06	4.986
683.38	4.992
683.70	5.008
684.02	5.103
684.34	5.167
684.66	5.220
684.98	5.294
685.30	5.411
685.62	5.494
685.94	5.518
686.26	5.500
686.58	5.559
686.90	5.577
687.22	5.579
687.54	5.503
687.86	5.462
688.18	5.456
688.50	5.415
688.82	5.322
689.14	5.352
689.46	5.309
689.78	5.249
690.10	5.176
690.42	5.152
690.74	5.128
691.06	5.142
691.38	5.132
691.70	5.083
692.02	4.988
692.34	4.942
692.66	4.860
692.98	4.838
693.30	4.877
693.62	4.986
693.94	4.970
694.26	5.018
694.57	4.975
694.89	4.958
695.21	4.971
695.53	4.994
695.85	4.997
696.17	5.047
696.49	5.084
696.81	5.050
697.13	4.933
697.44	4.970
697.76	4.869
698.08	4.908
698.40	4.901
698.72	4.896
699.04	4.892
699.36	4.940
699.67	4.880
699.99	4.783
700.31	4.844
700.63	4.877
700.95	4.662
701.27	4.650
701.58	4.591
701.90	4.526
702.22	4.429
702.54	4.394
702.86	4.315
703.17	4.221
703.49	4.242
703.81	4.211
704.13	4.119
704.45	4.192
704.76	4.158
705.08	4.073
705.40	4.076
705.72	4.057
706.03	3.974
706.35	3.927
706.67	3.978
706.99	3.973
707.30	3.890
707.62	3.914
707.94	3.971
708.26	4.003
708.57	3.963
708.89	3.968
709.21	4.061
709.53	4.109
709.84	4.224
710.16	4.203
710.48	4.183
710.79	4.164
711.11	4.161
711.43	4.100
711.74	4.083
712.06	4.273
712.38	4.329
712.69	4.321
713.01	4.426
713.33	4.308
713.64	4.406
713.96	4.391
714.28	4.583
714.59	4.665
714.91	4.727
715.23	4.818
715.54	4.745
715.86	4.774
716.17	4.827
716.49	4.772
716.81	4.741
717.12	4.691
717.44	4.772
717.76	4.791
718.07	4.648
718.39	4.696
718.70	4.608
719.02	4.521
719.33	4.470
719.65	4.319
719.97	4.254
720.28	4.394
720.60	4.385
720.91	4.325
721.23	4.187
721.54	4.361
721.86	4.310
722.17	4.324
722.49	4.471
722.81	4.460
723.12	4.492
723.44	4.510
723.75	4.377
724.07	4.408
724.38	4.488
724.70	4.435
725.01	4.269
725.33	4.335
725.64	4.385
725.96	4.317
726.27	4.343
726.59	4.385
726.90	4.332
727.22	4.287
727.53	4.261
727.84	4.162
728.16	4.140
728.47	4.133
728.79	3.924
729.10	3.857
729.42	3.813
729.73	3.741
730.05	3.707
730.36	3.682
730.67	3.791
730.99	3.686
731.30	3.653
731.62	3.631
731.93	3.653
732.24	3.698
732.56	3.548
732.87	3.472
733.19	3.423
733.50	3.365
733.81	3.374
734.13	3.238
734.44	3.265
734.76	3.249
735.07	3.159
735.38	2.962
735.70	2.918
736.01	2.932
736.32	2.913
736.64	2.795
736.95	2.637
737.26	2.513
737.58	2.568
737.89	2.430
738.20	2.341
738.52	2.213
738.83	2.251
739.14	2.121
739.45	1.984
739.77	1.963
740.08	1.890
740.39	1.960
740.71	1.981
741.02	1.850
741.33	1.867
741.64	1.997
741.96	2.099
742.27	2.085
742.58	2.094
742.90	2.176
743.21	1.962
743.52	1.917
743.83	1.806
744.14	1.632
744.46	1.593
744.77	1.474
745.08	1.173
745.39	1.085
745.71	1.107
746.02	1.004
746.33	0.915
746.64	1.234
746.95	1.169
747.27	0.959
747.58	1.062
747.89	1.059
748.20	1.024
748.51	1.240
748.82	1.198
749.14	1.100
749.45	1.147
749.76	1.381
750.07	1.122
750.38	1.099
750.69	1.195
751.01	0.980
751.32	0.895
751.63	0.776
751.94	0.616
752.25	0.593
752.56	0.566
752.87	0.600
753.18	0.299
753.49	0.537
753.81	0.649
754.12	0.739
754.43	1.072
754.74	1.246
755.05	1.350
755.36	1.508
755.67	1.566
755.98	1.786
756.29	2.031
756.60	2.384
756.91	2.558
757.22	2.814
757.53	2.948
757.84	3.175
758.15	3.321
758.46	3.635
758.77	3.885
759.09	4.236
759.40	4.416
759.71	4.526
760.02	4.574
760.33	4.551
760.64	4.566
760.95	4.733
761.26	4.628
761.57	4.663
761.88	4.586
762.18	4.500
762.49	4.378
762.80	4.252
763.11	4.140
763.42	4.034
763.73	3.842
764.04	3.682
764.35	3.317
764.66	3.142
764.97	2.840
765.28	2.576
765.59	2.235
765.90	1.915
766.21	1.673
766.52	1.242
766.83	0.987
767.14	0.638
767.44	0.296
767.75	0.186
768.06	-0.275
768.37	-0.559
768.68	-0.570
768.99	-0.518
769.30	-0.546
769.61	-0.899
769.91	-0.990
770.22	-1.380
770.53	-1.295
770.84	-1.360
771.15	-1.293
771.46	-1.105
771.77	-1.161
772.07	-1.324
772.38	-1.806
772.69	-1.949
773.00	-1.763
773.31	-1.619
773.61	-1.423
773.92	-1.337
774.23	-1.203
774.54	-1.624
774.85	-1.493
775.15	-1.313
775.46	-1.294
775.77	-1.132
776.08	-1.240
776.39	-1.421
776.69	-1.440
777.00	-1.509
777.31	-1.641
777.62	-1.912
777.92	-1.705
778.23	-1.687
778.54	-1.859
778.85	-1.841
779.15	-2.057
779.46	-2.012
779.77	-1.726
780.07	-1.885
780.38	-1.917
780.69	-2.018
781.00	-1.851
781.30	-1.720
781.61	-2.074
781.92	-1.735
782.22	-1.593
782.53	-1.220
782.84	-1.128
783.14	-1.174
783.45	-1.184
783.76	-1.063
784.06	-0.719
784.37	-0.688
784.68	-0.416
784.98	-0.361
785.29	-0.394
785.60	-0.353
785.90	-0.096
786.21	0.077
786.51	0.102
786.82	0.512
787.13	0.533
787.43	0.363
787.74	0.781
788.04	0.615
788.35	0.766
788.66	0.505
788.96	0.426
789.27	0.292
789.57	0.197
789.88	0.003
790.19	-0.263
790.49	-0.433
790.80	-0.701
791.10	-1.024
791.41	-0.749
791.71	-0.816
792.02	-0.672
792.32	-0.632
792.63	-0.879
792.93	-0.674
793.24	-0.754
793.54	-0.622
793.85	-0.420
794.15	0.311
794.46	0.256
794.76	0.100
795.07	0.337
795.37	0.444
795.68	0.446
795.98	0.554
796.29	0.489
796.59	0.999
796.90	0.965
797.20	1.065
797.51	0.459
797.81	0.320
798.12	0.340
798.42	0.224
798.72	0.290
799.03	0.430
799.33	0.622
799.64	0.455
799.94	0.467
800.25	0.374
800.55	0.528
800.85	0.725
801.16	0.992
801.46	0.976
801.77	0.739
802.07	0.573
802.37	0.174
802.68	-0.098
802.98	0.125
803.28	-0.201
803.59	-0.320
803.89	-0.444
804.20	-0.809
804.50	-0.744
804.80	-0.642
805.11	-0.611
805.41	-0.736
805.71	-0.671
806.02	-0.658
806.32	-0.811
806.62	-1.073
806.93	-0.604
807.23	-0.458
807.53	-0.165
807.83	-0.582
808.14	-0.941
808.44	-0.696
808.74	-0.133
809.05	0.797
809.35	1.037
809.65	0.968
809.95	1.206
810.26	1.033
810.56	0.675
810.86	0.887
811.16	1.056
811.47	1.147
811.77	1.248
812.07	1.187
812.37	0.566
812.68	0.426
812.98	0.714
813.28	0.824
813.58	1.279
813.88	1.628
814.19	1.744
814.49	2.347
814.79	3.008
815.09	3.145
815.39	3.341
815.70	3.467
816.00	3.740
816.30	4.033
816.60	4.009
816.90	3.693
817.20	3.701
817.50	3.820
817.81	3.643
818.11	3.750
818.41	3.937
818.71	4.170
819.01	4.304
819.31	4.544
819.61	4.625
819.92	4.795
820.22	4.916
820.52	5.013
820.82	5.126
821.12	5.150
821.42	5.154
821.72	5.191
822.02	5.225
822.32	5.231
822.62	5.211
822.92	5.205
823.22	5.203
823.52	5.162
823.83	5.158
824.13	5.054
824.43	5.169
824.73	5.203
825.03	5.169
825.33	5.004
825.63	5.066
825.93	4.993
826.23	4.898
826.53	4.830
826.83	4.870
827.13	4.811
827.43	4.836
827.73	4.605
828.03	4.508
828.33	4.426
828.63	4.271
828.93	4.181
829.23	3.881
829.53	3.808
829.83	3.713
830.13	3.318
830.42	3.487
830.72	3.208
831.02	3.564
831.32	3.768
831.62	3.886
831.92	4.119
832.22	4.045
832.52	4.272
832.82	4.446
833.12	4.602
833.42	4.724
833.72	4.266
834.01	4.216
834.31	4.155
834.61	3.747
834.91	3.681
835.21	3.398
835.51	3.536
835.81	3.412
836.11	2.799
836.40	2.649
836.70	2.162
837.00	1.915
837.30	1.616
837.60	0.898
837.90	0.809
838.19	0.644
838.49	0.363
838.79	-0.383
839.09	0.065
839.39	0.486
839.68	-0.393
839.98	0.441
840.28	0.246
840.58	0.669
840.88	-0.114
841.17	-0.450
841.47	-1.011
841.77	-1.031
842.07	-1.611
842.36	-2.655
842.66	-3.578
842.96	-4.189
843.26	-4.896
843.55	-3.565
843.85	-4.485
844.15	-4.008
844.45	-3.008
844.74	-2.612
845.04	-2.529
845.34	-2.544
845.63	-3.014
845.93	-1.941
846.23	-0.795
846.53	-2.352
846.82	-3.386
847.12	-3.279
847.42	-2.388
847.71	-4.339
848.01	-4.151
848.31	-4.386
848.60	-3.796
848.90	-5.797
849.19	-6.428
849.49	-8.341
849.79	-7.749
850.08	-8.622
850.38	-5.701
850.68	-4.181
850.97	-3.034
851.27	-3.624
851.56	-2.389
851.86	-2.174
852.16	0.820
852.45	1.388
852.75	0.679
853.04	-1.170
853.34	-1.237
853.64	-6.326
853.93	-8.804
854.23	-8.599
854.52	-8.178
854.82	-8.971
855.11	-8.830
855.41	-9.934
855.70	-11.586
856.00	-10.812
856.30	-6.956
856.59	-6.227
856.89	-5.247
857.18	-3.329
857.48	-4.745
857.77	-7.693
858.07	-8.202
858.36	-7.589
858.66	-8.109
858.95	-8.521
859.25	-5.961
859.54	-8.513
859.84	-8.899
860.13	-6.649
860.42	-9.083
860.72	-7.226
861.01	-4.330
861.31	-3.972
861.60	-5.093
861.90	-5.606
862.19	-4.073
862.49	-4.986
862.78	-4.756
863.07	-5.570
863.37	-4.574
863.66	-4.872
863.96	-5.057
864.25	-4.961
864.54	-4.058
864.84	-2.538
865.13	-1.463
865.43	-1.078
865.72	2.140
866.01	1.422
866.31	11.090
866.60	-3.216
866.89	5.339
>>>>>End Spectral Data<<<<<
