OOIBase32 Version 2.0.0.6 Data File
++++++++++++++++++++++++++++++++++++
Date: 01-18-2012, 22:38:51
User: Valued Ocean Optics Customer
Spectrometer Serial Number: USB2E2917
Spectrometer Channel: Master
Integration Time (msec): 5
Spectra Averaged: 10
Boxcar Smoothing: 5
Correct for Electrical Dark: Enabled
Time Normalized: Disabled
Dual-beam Reference: Disabled
Reference Channel: Master
Temperature: Not acquired
Spectrometer Type: S2000
ADC Type: USB2000
Number of Pixels in File: 2048
Graph Title: 
>>>>>Begin Spectral Data<<<<<
180.30	0.000
180.67	0.000
181.03	-15.765
181.40	-3966.138
181.77	310.652
182.14	186.207
182.51	-98.103
182.88	-313.781
183.25	107.115
183.62	253.779
183.99	28.311
184.36	-222.480
184.73	-51.633
185.10	128.415
185.46	10.582
185.83	22.614
186.20	337.958
186.57	-284.045
186.94	-26.328
187.31	-129.293
187.68	48.771
188.05	47.741
188.42	-0.407
188.78	-12.478
189.15	-3.745
189.52	-29.877
189.89	-37.174
190.26	-29.675
190.63	-10.644
191.00	-16.800
191.37	-24.040
191.73	-21.387
192.10	-3.158
192.47	6.546
192.84	-10.899
193.21	-24.115
193.58	-17.188
193.94	-31.728
194.31	-29.863
194.68	-47.338
195.05	-51.951
195.42	-44.207
195.79	-51.635
196.15	-47.766
196.52	-66.577
196.89	-52.895
197.26	-45.607
197.63	-88.784
198.00	-9.413
198.36	-24.382
198.73	-19.476
199.10	19.568
199.47	15.770
199.84	18.190
200.20	0.591
200.57	12.929
200.94	17.724
201.31	24.389
201.68	29.906
202.04	24.810
202.41	35.483
202.78	42.995
203.15	26.871
203.51	29.584
203.88	26.491
204.25	30.391
204.62	24.546
204.98	28.170
205.35	28.320
205.72	25.246
206.09	36.299
206.46	21.737
206.82	21.610
207.19	37.240
207.56	29.735
207.92	29.146
208.29	38.690
208.66	42.306
209.03	35.636
209.39	24.478
209.76	27.599
210.13	14.156
210.50	27.264
210.86	17.486
211.23	3.857
211.60	4.127
211.96	-2.220
212.33	-15.591
212.70	-15.501
213.07	-2.206
213.43	-2.132
213.80	-7.536
214.17	-9.046
214.53	-18.623
214.90	-13.423
215.27	-10.771
215.63	-3.530
216.00	-13.195
216.37	-16.324
216.74	-14.948
217.10	-42.250
217.47	-40.849
217.84	-36.953
218.20	-31.683
218.57	-25.775
218.94	-28.625
219.30	-35.199
219.67	-38.027
220.04	-31.148
220.40	-32.850
220.77	-35.974
221.13	-25.875
221.50	-16.270
221.87	-5.419
222.23	-1.763
222.60	2.427
222.97	0.660
223.33	15.591
223.70	11.227
224.07	17.293
224.43	14.608
224.80	12.103
225.16	11.597
225.53	12.985
225.90	11.918
226.26	10.045
226.63	8.489
226.99	11.745
227.36	7.995
227.73	7.627
228.09	4.680
228.46	6.281
228.82	7.202
229.19	7.848
229.56	6.704
229.92	7.167
230.29	5.841
230.65	6.423
231.02	3.811
231.38	4.812
231.75	7.516
232.12	10.088
232.48	11.064
232.85	12.741
233.21	12.844
233.58	14.475
233.94	10.500
234.31	12.029
234.68	10.993
235.04	10.787
235.41	12.590
235.77	11.696
236.14	11.267
236.50	9.875
236.87	7.650
237.23	4.329
237.60	3.450
237.96	4.778
238.33	5.768
238.69	6.185
239.06	6.620
239.42	5.544
239.79	5.341
240.15	4.779
240.52	4.236
240.88	3.899
241.25	4.813
241.61	4.080
241.98	4.668
242.34	4.568
242.71	4.044
243.07	3.184
243.44	2.887
243.80	3.096
244.17	3.119
244.53	2.998
244.90	3.018
245.26	2.928
245.63	3.051
245.99	2.884
246.36	2.878
246.72	3.188
247.09	3.611
247.45	4.456
247.81	4.773
248.18	5.336
248.54	5.261
248.91	5.218
249.27	5.765
249.64	6.032
250.00	6.157
250.36	6.616
250.73	7.159
251.09	7.153
251.46	6.268
251.82	5.602
252.19	5.324
252.55	6.015
252.91	7.162
253.28	6.399
253.64	5.680
254.01	5.407
254.37	4.742
254.73	3.715
255.10	4.088
255.46	4.146
255.83	4.412
256.19	4.302
256.55	4.282
256.92	3.922
257.28	3.654
257.65	3.726
258.01	3.581
258.37	3.255
258.74	3.475
259.10	2.869
259.46	2.570
259.83	2.933
260.19	2.648
260.55	2.402
260.92	2.523
261.28	2.877
261.64	3.253
262.01	3.493
262.37	3.909
262.73	4.354
263.10	5.185
263.46	5.495
263.82	4.431
264.19	4.563
264.55	5.136
264.91	4.579
265.28	4.328
265.64	3.776
266.00	3.233
266.37	3.161
266.73	2.217
267.09	2.288
267.46	2.310
267.82	2.662
268.18	2.811
268.54	2.421
268.91	2.573
269.27	3.060
269.63	3.624
270.00	3.824
270.36	3.616
270.72	3.894
271.08	3.546
271.45	3.910
271.81	3.997
272.17	3.570
272.53	3.198
272.90	3.328
273.26	2.604
273.62	2.151
273.98	2.478
274.35	2.356
274.71	1.805
275.07	1.897
275.43	1.339
275.80	1.086
276.16	1.383
276.52	1.933
276.88	1.739
277.25	2.037
277.61	1.964
277.97	2.028
278.33	2.124
278.69	2.754
279.06	2.738
279.42	2.735
279.78	2.801
280.14	2.769
280.50	2.789
280.87	3.305
281.23	3.554
281.59	3.588
281.95	3.124
282.31	2.942
282.68	3.140
283.04	3.552
283.40	3.433
283.76	3.232
284.12	3.161
284.48	3.296
284.85	3.053
285.21	2.809
285.57	3.185
285.93	3.413
286.29	3.802
286.65	3.476
287.02	3.292
287.38	3.583
287.74	3.858
288.10	4.149
288.46	4.120
288.82	3.966
289.18	4.111
289.54	3.471
289.91	3.432
290.27	3.212
290.63	3.357
290.99	2.992
291.35	2.831
291.71	2.851
292.07	2.458
292.43	2.158
292.79	2.309
293.16	2.368
293.52	2.777
293.88	2.546
294.24	2.798
294.60	2.720
294.96	2.725
295.32	2.675
295.68	2.641
296.04	2.707
296.40	2.900
296.76	2.717
297.12	2.603
297.49	2.675
297.85	3.054
298.21	2.945
298.57	2.848
298.93	3.052
299.29	3.330
299.65	3.413
300.01	3.717
300.37	3.797
300.73	3.898
301.09	4.056
301.45	3.904
301.81	3.912
302.17	3.650
302.53	4.013
302.89	3.823
303.25	3.794
303.61	3.635
303.97	3.641
304.33	3.532
304.69	3.661
305.05	3.735
305.41	3.984
305.77	3.913
306.13	4.246
306.49	4.025
306.85	4.127
307.21	4.009
307.57	4.152
307.93	4.222
308.29	4.327
308.65	4.327
309.01	4.186
309.37	3.976
309.73	4.075
310.09	4.073
310.45	4.082
310.81	4.056
311.17	4.082
311.53	4.091
311.89	3.999
312.25	3.785
312.61	3.676
312.96	3.722
313.32	3.762
313.68	3.660
314.04	3.387
314.40	3.363
314.76	3.349
315.12	3.474
315.48	3.438
315.84	3.331
316.20	3.564
316.56	3.840
316.92	3.927
317.27	3.871
317.63	3.752
317.99	3.991
318.35	4.191
318.71	4.113
319.07	4.021
319.43	3.914
319.79	3.982
320.15	3.980
320.50	3.821
320.86	3.813
321.22	3.834
321.58	3.793
321.94	3.785
322.30	3.724
322.66	3.737
323.01	3.792
323.37	3.788
323.73	3.708
324.09	3.554
324.45	3.349
324.81	3.240
325.17	3.283
325.52	3.428
325.88	3.354
326.24	3.326
326.60	3.402
326.96	3.292
327.31	3.303
327.67	3.426
328.03	3.477
328.39	3.714
328.75	3.693
329.11	3.739
329.46	3.762
329.82	3.762
330.18	3.730
330.54	3.666
330.90	3.673
331.25	3.621
331.61	3.476
331.97	3.451
332.33	3.308
332.68	3.396
333.04	3.434
333.40	3.305
333.76	3.389
334.11	3.332
334.47	3.350
334.83	3.250
335.19	3.308
335.54	3.342
335.90	3.475
336.26	3.415
336.62	3.395
336.97	3.379
337.33	3.411
337.69	3.386
338.05	3.482
338.40	3.438
338.76	3.518
339.12	3.603
339.48	3.647
339.83	3.497
340.19	3.547
340.55	3.573
340.90	3.480
341.26	3.397
341.62	3.362
341.97	3.293
342.33	3.355
342.69	3.352
343.04	3.237
343.40	3.241
343.76	3.293
344.12	3.294
344.47	3.273
344.83	3.341
345.19	3.383
345.54	3.327
345.90	3.318
346.26	3.386
346.61	3.436
346.97	3.436
347.32	3.358
347.68	3.460
348.04	3.513
348.39	3.536
348.75	3.462
349.11	3.529
349.46	3.543
349.82	3.478
350.18	3.417
350.53	3.366
350.89	3.466
351.24	3.498
351.60	3.367
351.96	3.257
352.31	3.169
352.67	3.171
353.02	3.051
353.38	3.070
353.74	3.017
354.09	3.037
354.45	3.008
354.80	2.952
355.16	3.004
355.52	3.011
355.87	3.067
356.23	3.105
356.58	3.068
356.94	3.088
357.29	3.097
357.65	3.242
358.00	3.220
358.36	3.219
358.72	3.143
359.07	3.140
359.43	3.162
359.78	3.190
360.14	3.190
360.49	3.161
360.85	3.148
361.20	3.080
361.56	3.027
361.91	3.009
362.27	2.981
362.62	3.022
362.98	2.949
363.33	2.945
363.69	2.927
364.04	2.951
364.40	3.017
364.75	3.137
365.11	3.217
365.46	3.245
365.82	3.192
366.17	3.150
366.53	3.131
366.88	3.150
367.24	3.111
367.59	3.093
367.95	3.099
368.30	3.031
368.66	2.969
369.01	2.927
369.37	2.885
369.72	2.888
370.08	2.949
370.43	2.975
370.78	2.987
371.14	2.986
371.49	3.088
371.85	3.133
372.20	3.196
372.56	3.199
372.91	3.185
373.26	3.140
373.62	3.158
373.97	3.140
374.33	3.112
374.68	3.125
375.03	3.133
375.39	3.017
375.74	3.040
376.10	3.055
376.45	3.063
376.80	3.076
377.16	3.132
377.51	3.175
377.87	3.292
378.22	3.314
378.57	3.383
378.93	3.434
379.28	3.496
379.63	3.440
379.99	3.495
380.34	3.535
380.70	3.621
381.05	3.674
381.40	3.697
381.76	3.706
382.11	3.750
382.46	3.692
382.82	3.700
383.17	3.673
383.52	3.681
383.88	3.626
384.23	3.603
384.58	3.541
384.94	3.597
385.29	3.625
385.64	3.583
385.99	3.622
386.35	3.639
386.70	3.679
387.05	3.771
387.41	3.818
387.76	3.886
388.11	3.920
388.47	3.974
388.82	3.974
389.17	4.022
389.52	4.070
389.88	4.071
390.23	4.130
390.58	4.154
390.93	4.189
391.29	4.201
391.64	4.254
391.99	4.367
392.34	4.427
392.70	4.471
393.05	4.502
393.40	4.498
393.75	4.549
394.11	4.573
394.46	4.567
394.81	4.556
395.16	4.561
395.52	4.511
395.87	4.431
396.22	4.387
396.57	4.380
396.92	4.345
397.28	4.373
397.63	4.338
397.98	4.351
398.33	4.386
398.68	4.409
399.04	4.450
399.39	4.501
399.74	4.512
400.09	4.574
400.44	4.560
400.80	4.585
401.15	4.596
401.50	4.647
401.85	4.673
402.20	4.691
402.55	4.711
402.90	4.715
403.26	4.711
403.61	4.749
403.96	4.769
404.31	4.823
404.66	4.847
405.01	4.893
405.36	4.916
405.72	4.912
406.07	4.899
406.42	4.937
406.77	4.982
407.12	5.045
407.47	5.061
407.82	5.060
408.17	5.105
408.53	5.143
408.88	5.174
409.23	5.177
409.58	5.241
409.93	5.314
410.28	5.300
410.63	5.311
410.98	5.306
411.33	5.352
411.68	5.408
412.03	5.436
412.38	5.468
412.73	5.453
413.09	5.509
413.44	5.539
413.79	5.558
414.14	5.603
414.49	5.672
414.84	5.740
415.19	5.794
415.54	5.832
415.89	5.861
416.24	5.900
416.59	5.979
416.94	6.009
417.29	6.028
417.64	6.062
417.99	6.102
418.34	6.111
418.69	6.119
419.04	6.120
419.39	6.156
419.74	6.164
420.09	6.173
420.44	6.181
420.79	6.197
421.14	6.207
421.49	6.210
421.84	6.231
422.19	6.240
422.54	6.263
422.89	6.276
423.24	6.272
423.59	6.261
423.94	6.275
424.29	6.266
424.64	6.276
424.99	6.281
425.34	6.293
425.68	6.296
426.03	6.301
426.38	6.284
426.73	6.296
427.08	6.309
427.43	6.369
427.78	6.386
428.13	6.400
428.48	6.421
428.83	6.453
429.18	6.498
429.53	6.530
429.87	6.548
430.22	6.594
430.57	6.637
430.92	6.630
431.27	6.649
431.62	6.625
431.97	6.644
432.32	6.658
432.67	6.671
433.01	6.652
433.36	6.658
433.71	6.670
434.06	6.662
434.41	6.662
434.76	6.687
435.11	6.687
435.45	6.748
435.80	6.770
436.15	6.789
436.50	6.809
436.85	6.840
437.20	6.849
437.54	6.857
437.89	6.871
438.24	6.875
438.59	6.873
438.94	6.872
439.29	6.856
439.63	6.842
439.98	6.820
440.33	6.803
440.68	6.804
441.03	6.776
441.37	6.781
441.72	6.788
442.07	6.791
442.42	6.793
442.76	6.807
443.11	6.802
443.46	6.828
443.81	6.837
444.16	6.845
444.50	6.825
444.85	6.818
445.20	6.805
445.55	6.772
445.89	6.749
446.24	6.728
446.59	6.686
446.94	6.679
447.28	6.640
447.63	6.594
447.98	6.559
448.32	6.523
448.67	6.515
449.02	6.494
449.37	6.500
449.71	6.483
450.06	6.467
450.41	6.487
450.75	6.481
451.10	6.484
451.45	6.499
451.79	6.495
452.14	6.529
452.49	6.515
452.84	6.534
453.18	6.511
453.53	6.526
453.88	6.560
454.22	6.555
454.57	6.557
454.92	6.582
455.26	6.615
455.61	6.635
455.95	6.657
456.30	6.700
456.65	6.728
456.99	6.774
457.34	6.811
457.69	6.849
458.03	6.873
458.38	6.897
458.73	6.906
459.07	6.920
459.42	6.937
459.76	6.935
460.11	6.935
460.46	6.929
460.80	6.930
461.15	6.913
461.49	6.902
461.84	6.905
462.19	6.942
462.53	6.965
462.88	6.999
463.22	7.028
463.57	7.075
463.91	7.115
464.26	7.169
464.61	7.219
464.95	7.262
465.30	7.305
465.64	7.336
465.99	7.345
466.33	7.390
466.68	7.404
467.02	7.425
467.37	7.441
467.71	7.450
468.06	7.463
468.41	7.459
468.75	7.479
469.10	7.468
469.44	7.480
469.79	7.508
470.13	7.494
470.48	7.496
470.82	7.517
471.17	7.516
471.51	7.529
471.86	7.511
472.20	7.520
472.55	7.509
472.89	7.506
473.23	7.507
473.58	7.493
473.92	7.493
474.27	7.483
474.61	7.470
474.96	7.469
475.30	7.468
475.65	7.474
475.99	7.467
476.34	7.458
476.68	7.451
477.02	7.450
477.37	7.456
477.71	7.450
478.06	7.456
478.40	7.489
478.75	7.560
479.09	7.650
479.43	7.748
479.78	7.856
480.12	7.967
480.47	8.068
480.81	8.161
481.15	8.242
481.50	8.325
481.84	8.426
482.19	8.535
482.53	8.620
482.87	8.652
483.22	8.628
483.56	8.616
483.90	8.610
484.25	8.601
484.59	8.595
484.94	8.573
485.28	8.545
485.62	8.490
485.97	8.404
486.31	8.330
486.65	8.324
487.00	8.377
487.34	8.412
487.68	8.425
488.03	8.445
488.37	8.456
488.71	8.472
489.06	8.501
489.40	8.537
489.74	8.575
490.09	8.608
490.43	8.622
490.77	8.628
491.11	8.630
491.46	8.643
491.80	8.658
492.14	8.680
492.49	8.720
492.83	8.747
493.17	8.805
493.51	8.862
493.86	8.942
494.20	9.006
494.54	9.092
494.88	9.197
495.23	9.314
495.57	9.449
495.91	9.556
496.25	9.682
496.60	9.815
496.94	9.891
497.28	10.004
497.62	10.115
497.97	10.239
498.31	10.372
498.65	10.521
498.99	10.667
499.33	10.778
499.68	10.931
500.02	11.063
500.36	11.216
500.70	11.409
501.04	11.563
501.39	11.751
501.73	11.939
502.07	12.133
502.41	12.309
502.75	12.479
503.09	12.699
503.44	12.895
503.78	13.100
504.12	13.311
504.46	13.515
504.80	13.742
505.14	13.940
505.49	14.172
505.83	14.385
506.17	14.588
506.51	14.821
506.85	15.001
507.19	15.217
507.53	15.432
507.87	15.641
508.22	15.850
508.56	16.049
508.90	16.235
509.24	16.398
509.58	16.589
509.92	16.783
510.26	16.954
510.60	17.142
510.94	17.332
511.28	17.508
511.63	17.693
511.97	17.867
512.31	18.042
512.65	18.265
512.99	18.480
513.33	18.692
513.67	18.937
514.01	19.189
514.35	19.449
514.69	19.686
515.03	19.937
515.37	20.148
515.71	20.373
516.05	20.563
516.39	20.729
516.73	20.896
517.07	21.051
517.41	21.202
517.75	21.321
518.09	21.426
518.43	21.509
518.77	21.566
519.11	21.661
519.45	21.753
519.79	21.907
520.13	22.023
520.47	22.151
520.81	22.324
521.15	22.454
521.49	22.624
521.83	22.785
522.17	22.972
522.51	23.173
522.85	23.344
523.19	23.568
523.53	23.843
523.87	24.145
524.21	24.469
524.55	24.719
524.89	24.982
525.23	25.221
525.57	25.426
525.91	25.624
526.25	25.803
526.58	25.968
526.92	26.124
527.26	26.200
527.60	26.258
527.94	26.292
528.28	26.329
528.62	26.337
528.96	26.347
529.30	26.370
529.64	26.372
529.97	26.376
530.31	26.389
530.65	26.354
530.99	26.364
531.33	26.396
531.67	26.432
532.01	26.476
532.35	26.527
532.68	26.543
533.02	26.574
533.36	26.593
533.70	26.606
534.04	26.623
534.38	26.656
534.71	26.672
535.05	26.697
535.39	26.713
535.73	26.727
536.07	26.782
536.41	26.881
536.74	27.002
537.08	27.126
537.42	27.256
537.76	27.389
538.10	27.535
538.43	27.673
538.77	27.809
539.11	27.902
539.45	28.032
539.79	28.134
540.12	28.207
540.46	28.222
540.80	28.261
541.14	28.297
541.47	28.306
541.81	28.302
542.15	28.311
542.49	28.295
542.82	28.300
543.16	28.276
543.50	28.234
543.84	28.206
544.17	28.220
544.51	28.211
544.85	28.198
545.18	28.188
545.52	28.202
545.86	28.207
546.20	28.212
546.53	28.218
546.87	28.196
547.21	28.212
547.54	28.227
547.88	28.242
548.22	28.259
548.55	28.310
548.89	28.365
549.23	28.382
549.56	28.405
549.90	28.436
550.24	28.480
550.57	28.531
550.91	28.588
551.25	28.607
551.58	28.664
551.92	28.719
552.26	28.750
552.59	28.804
552.93	28.846
553.27	28.899
553.60	28.980
553.94	29.026
554.27	29.085
554.61	29.097
554.95	29.174
555.28	29.187
555.62	29.218
555.95	29.240
556.29	29.278
556.63	29.319
556.96	29.340
557.30	29.352
557.63	29.348
557.97	29.426
558.31	29.501
558.64	29.532
558.98	29.584
559.31	29.614
559.65	29.667
559.98	29.706
560.32	29.748
560.65	29.796
560.99	29.822
561.33	29.893
561.66	29.914
562.00	29.938
562.33	29.985
562.67	30.038
563.00	30.050
563.34	30.079
563.67	30.127
564.01	30.178
564.34	30.189
564.68	30.209
565.01	30.225
565.35	30.255
565.68	30.280
566.02	30.303
566.35	30.317
566.69	30.401
567.02	30.468
567.36	30.490
567.69	30.510
568.03	30.586
568.36	30.658
568.69	30.696
569.03	30.725
569.36	30.737
569.70	30.784
570.03	30.805
570.37	30.825
570.70	30.806
571.04	30.831
571.37	30.854
571.70	30.860
572.04	30.842
572.37	30.891
572.71	30.917
573.04	30.967
573.37	30.998
573.71	31.046
574.04	31.037
574.38	31.064
574.71	31.050
575.04	31.030
575.38	31.070
575.71	31.121
576.05	31.133
576.38	31.139
576.71	31.143
577.05	31.136
577.38	31.125
577.71	31.146
578.05	31.169
578.38	31.199
578.71	31.236
579.05	31.254
579.38	31.259
579.71	31.268
580.05	31.310
580.38	31.301
580.71	31.275
581.05	31.325
581.38	31.342
581.71	31.357
582.05	31.394
582.38	31.416
582.71	31.404
583.04	31.425
583.38	31.395
583.71	31.415
584.04	31.446
584.38	31.512
584.71	31.550
585.04	31.582
585.37	31.624
585.71	31.688
586.04	31.732
586.37	31.778
586.70	31.796
587.04	31.882
587.37	31.879
587.70	31.904
588.03	31.953
588.37	31.949
588.70	32.037
589.03	32.049
589.36	32.027
589.69	32.041
590.03	32.056
590.36	32.080
590.69	32.076
591.02	32.051
591.35	32.038
591.69	32.047
592.02	32.076
592.35	32.031
592.68	32.053
593.01	32.049
593.35	32.096
593.68	32.105
594.01	32.097
594.34	32.084
594.67	32.117
595.00	32.143
595.34	32.129
595.67	32.100
596.00	32.111
596.33	32.087
596.66	32.091
596.99	32.050
597.32	32.067
597.65	32.100
597.99	32.081
598.32	32.069
598.65	32.078
598.98	32.078
599.31	32.093
599.64	32.117
599.97	32.128
600.30	32.164
600.63	32.184
600.96	32.157
601.30	32.185
601.63	32.216
601.96	32.255
602.29	32.296
602.62	32.284
602.95	32.288
603.28	32.240
603.61	32.240
603.94	32.224
604.27	32.247
604.60	32.256
604.93	32.195
605.26	32.223
605.59	32.230
605.92	32.201
606.25	32.209
606.58	32.210
606.91	32.261
607.24	32.261
607.57	32.251
607.90	32.236
608.23	32.246
608.56	32.278
608.89	32.286
609.22	32.257
609.55	32.258
609.88	32.262
610.21	32.254
610.54	32.234
610.87	32.237
611.20	32.243
611.53	32.263
611.86	32.290
612.19	32.276
612.52	32.274
612.85	32.265
613.18	32.277
613.51	32.276
613.84	32.343
614.17	32.278
614.49	32.317
614.82	32.301
615.15	32.238
615.48	32.233
615.81	32.289
616.14	32.261
616.47	32.294
616.80	32.251
617.13	32.193
617.46	32.162
617.78	32.229
618.11	32.243
618.44	32.272
618.77	32.290
619.10	32.289
619.43	32.261
619.76	32.265
620.09	32.256
620.41	32.272
620.74	32.339
621.07	32.322
621.40	32.295
621.73	32.216
622.06	32.213
622.38	32.199
622.71	32.135
623.04	32.094
623.37	32.092
623.70	32.058
624.02	32.077
624.35	32.070
624.68	32.042
625.01	32.024
625.34	32.063
625.66	32.022
625.99	32.014
626.32	32.010
626.65	32.016
626.98	31.971
627.30	31.983
627.63	31.923
627.96	31.886
628.29	31.887
628.61	31.878
628.94	31.893
629.27	31.890
629.60	31.882
629.92	31.902
630.25	31.841
630.58	31.848
630.91	31.814
631.23	31.806
631.56	31.752
631.89	31.688
632.21	31.671
632.54	31.606
632.87	31.588
633.19	31.549
633.52	31.490
633.85	31.505
634.18	31.524
634.50	31.549
634.83	31.523
635.16	31.545
635.48	31.537
635.81	31.498
636.14	31.434
636.46	31.438
636.79	31.442
637.11	31.405
637.44	31.390
637.77	31.352
638.09	31.285
638.42	31.316
638.75	31.314
639.07	31.302
639.40	31.297
639.73	31.284
640.05	31.259
640.38	31.246
640.70	31.253
641.03	31.207
641.36	31.181
641.68	31.184
642.01	31.135
642.33	31.108
642.66	31.088
642.98	31.159
643.31	31.196
643.64	31.202
643.96	31.184
644.29	31.176
644.61	31.194
644.94	31.155
645.26	31.079
645.59	31.056
645.91	31.074
646.24	31.093
646.56	31.005
646.89	30.949
647.22	30.859
647.54	30.854
647.87	30.786
648.19	30.743
648.52	30.777
648.84	30.861
649.17	30.833
649.49	30.794
649.82	30.841
650.14	30.877
650.47	30.895
650.79	30.938
651.11	30.867
651.44	30.898
651.76	30.900
652.09	30.840
652.41	30.727
652.74	30.699
653.06	30.632
653.39	30.529
653.71	30.446
654.04	30.395
654.36	30.376
654.68	30.366
655.01	30.317
655.33	30.317
655.66	30.307
655.98	30.315
656.30	30.368
656.63	30.343
656.95	30.284
657.28	30.289
657.60	30.210
657.92	30.132
658.25	30.078
658.57	30.075
658.90	30.037
659.22	30.023
659.54	29.938
659.87	29.843
660.19	29.838
660.51	29.820
660.84	29.795
661.16	29.850
661.48	29.893
661.81	29.923
662.13	29.907
662.45	29.835
662.78	29.788
663.10	29.813
663.42	29.853
663.75	29.775
664.07	29.713
664.39	29.617
664.72	29.569
665.04	29.488
665.36	29.439
665.69	29.372
666.01	29.365
666.33	29.314
666.65	29.311
666.98	29.271
667.30	29.305
667.62	29.396
667.94	29.396
668.27	29.352
668.59	29.349
668.91	29.286
669.23	29.282
669.56	29.209
669.88	29.142
670.20	29.102
670.52	28.971
670.85	28.915
671.17	28.829
671.49	28.725
671.81	28.746
672.13	28.700
672.46	28.723
672.78	28.704
673.10	28.754
673.42	28.732
673.74	28.711
674.07	28.767
674.39	28.690
674.71	28.647
675.03	28.715
675.35	28.640
675.67	28.623
676.00	28.560
676.32	28.512
676.64	28.465
676.96	28.513
677.28	28.525
677.60	28.506
677.92	28.482
678.25	28.437
678.57	28.379
678.89	28.359
679.21	28.313
679.53	28.317
679.85	28.304
680.17	28.332
680.49	28.253
680.81	28.179
681.13	28.093
681.46	28.124
681.78	28.126
682.10	28.124
682.42	28.153
682.74	28.166
683.06	28.159
683.38	28.132
683.70	28.053
684.02	28.093
684.34	28.059
684.66	28.138
684.98	28.233
685.30	28.262
685.62	28.268
685.94	28.282
686.26	28.243
686.58	28.255
686.90	28.305
687.22	28.255
687.54	28.226
687.86	28.206
688.18	28.097
688.50	27.966
688.82	27.932
689.14	27.878
689.46	27.769
689.78	27.754
690.10	27.714
690.42	27.570
690.74	27.570
691.06	27.496
691.38	27.481
691.70	27.413
692.02	27.289
692.34	27.176
692.66	27.110
692.98	27.051
693.30	27.022
693.62	27.027
693.94	27.062
694.26	27.087
694.57	27.062
694.89	27.095
695.21	27.101
695.53	27.209
695.85	27.198
696.17	27.168
696.49	27.215
696.81	27.206
697.13	27.109
697.44	27.078
697.76	27.067
698.08	27.080
698.40	26.996
698.72	27.005
699.04	26.882
699.36	26.865
699.67	26.822
699.99	26.676
700.31	26.585
700.63	26.543
700.95	26.437
701.27	26.309
701.58	26.203
701.90	26.156
702.22	26.002
702.54	25.995
702.86	25.967
703.17	25.904
703.49	25.895
703.81	25.875
704.13	25.855
704.45	25.768
704.76	25.748
705.08	25.631
705.40	25.561
705.72	25.582
706.03	25.511
706.35	25.514
706.67	25.536
706.99	25.515
707.30	25.538
707.62	25.465
707.94	25.572
708.26	25.523
708.57	25.557
708.89	25.516
709.21	25.485
709.53	25.535
709.84	25.486
710.16	25.505
710.48	25.496
710.79	25.424
711.11	25.443
711.43	25.293
711.74	25.245
712.06	25.291
712.38	25.352
712.69	25.431
713.01	25.446
713.33	25.388
713.64	25.406
713.96	25.404
714.28	25.464
714.59	25.499
714.91	25.620
715.23	25.633
715.54	25.566
715.86	25.689
716.17	25.654
716.49	25.572
716.81	25.557
717.12	25.469
717.44	25.486
717.76	25.410
718.07	25.352
718.39	25.293
718.70	25.386
719.02	25.314
719.33	25.140
719.65	24.991
719.97	24.900
720.28	24.902
720.60	24.923
720.91	24.876
721.23	24.811
721.54	24.739
721.86	24.763
722.17	24.684
722.49	24.733
722.81	24.768
723.12	24.898
723.44	24.867
723.75	24.819
724.07	24.816
724.38	24.830
724.70	24.878
725.01	24.791
725.33	24.733
725.64	24.683
725.96	24.622
726.27	24.605
726.59	24.537
726.90	24.669
727.22	24.629
727.53	24.604
727.84	24.530
728.16	24.465
728.47	24.488
728.79	24.410
729.10	24.338
729.42	24.223
729.73	24.006
730.05	23.964
730.36	23.807
730.67	23.839
730.99	23.678
731.30	23.507
731.62	23.379
731.93	23.307
732.24	23.253
732.56	23.204
732.87	23.209
733.19	23.215
733.50	23.127
733.81	23.076
734.13	22.946
734.44	22.895
734.76	22.864
735.07	22.720
735.38	22.589
735.70	22.580
736.01	22.471
736.32	22.512
736.64	22.413
736.95	22.310
737.26	22.132
737.58	22.068
737.89	22.018
738.20	22.021
738.52	22.188
738.83	22.192
739.14	22.077
739.45	22.137
739.77	21.993
740.08	21.951
740.39	21.798
740.71	21.693
741.02	21.624
741.33	21.535
741.64	21.608
741.96	21.420
742.27	21.386
742.58	21.199
742.90	21.118
743.21	20.997
743.52	20.934
743.83	21.027
744.14	21.126
744.46	20.861
744.77	20.847
745.08	20.610
745.39	20.540
745.71	20.511
746.02	20.547
746.33	20.350
746.64	20.342
746.95	20.338
747.27	20.005
747.58	20.060
747.89	20.391
748.20	20.498
748.51	20.409
748.82	20.337
749.14	20.203
749.45	20.205
749.76	20.235
750.07	20.160
750.38	20.132
750.69	20.257
751.01	20.120
751.32	19.964
751.63	19.627
751.94	19.536
752.25	19.384
752.56	19.378
752.87	19.430
753.18	19.419
753.49	19.696
753.81	19.552
754.12	19.685
754.43	19.713
754.74	19.792
755.05	19.816
755.36	20.175
755.67	20.353
755.98	20.573
756.29	20.913
756.60	21.191
756.91	21.250
757.22	21.481
757.53	21.654
757.84	21.819
758.15	21.935
758.46	22.468
758.77	22.572
759.09	22.849
759.40	22.973
759.71	22.989
760.02	23.031
760.33	23.165
760.64	23.267
760.95	23.401
761.26	23.450
761.57	23.400
761.88	23.248
762.18	23.060
762.49	23.008
762.80	22.896
763.11	22.689
763.42	22.571
763.73	22.312
764.04	22.036
764.35	21.629
764.66	21.296
764.97	21.047
765.28	20.757
765.59	20.631
765.90	20.069
766.21	19.653
766.52	19.370
766.83	19.044
767.14	18.688
767.44	18.512
767.75	18.395
768.06	18.341
768.37	18.165
768.68	18.009
768.99	17.695
769.30	17.849
769.61	17.770
769.91	17.571
770.22	17.411
770.53	17.748
770.84	17.630
771.15	17.473
771.46	17.562
771.77	17.359
772.07	17.138
772.38	16.800
772.69	16.519
773.00	16.377
773.31	16.469
773.61	16.255
773.92	15.909
774.23	16.070
774.54	15.945
774.85	15.998
775.15	16.300
775.46	16.310
775.77	16.488
776.08	16.447
776.39	16.601
776.69	16.599
777.00	16.585
777.31	16.542
777.62	16.190
777.92	16.218
778.23	15.878
778.54	15.510
778.85	15.530
779.15	15.479
779.46	15.641
779.77	15.698
780.07	15.326
780.38	15.323
780.69	15.253
781.00	15.616
781.30	15.580
781.61	15.349
781.92	15.638
782.22	15.652
782.53	15.847
782.84	15.982
783.14	15.937
783.45	16.157
783.76	16.186
784.06	16.364
784.37	16.601
784.68	16.896
784.98	17.197
785.29	17.270
785.60	17.463
785.90	17.437
786.21	17.496
786.51	17.642
786.82	17.777
787.13	18.065
787.43	18.102
787.74	18.056
788.04	17.875
788.35	17.697
788.66	17.445
788.96	17.324
789.27	17.567
789.57	17.514
789.88	17.266
790.19	17.140
790.49	16.695
790.80	16.285
791.10	16.041
791.41	16.457
791.71	16.500
792.02	16.786
792.32	16.744
792.63	16.593
792.93	16.583
793.24	16.871
793.54	17.226
793.85	17.545
794.15	17.843
794.46	18.055
794.76	17.932
795.07	18.347
795.37	18.037
795.68	18.251
795.98	18.301
796.29	18.256
796.59	18.290
796.90	17.959
797.20	18.013
797.51	18.101
797.81	17.435
798.12	17.302
798.42	16.783
798.72	16.960
799.03	17.079
799.33	17.141
799.64	17.044
799.94	17.331
800.25	17.170
800.55	17.068
800.85	16.960
801.16	17.641
801.46	17.794
801.77	17.952
802.07	17.999
802.37	17.783
802.68	17.656
802.98	17.967
803.28	17.267
803.59	17.651
803.89	17.612
804.20	17.382
804.50	17.381
804.80	17.097
805.11	17.031
805.41	16.648
805.71	16.594
806.02	16.501
806.32	16.375
806.62	16.354
806.93	15.613
807.23	15.629
807.53	15.717
807.83	15.459
808.14	15.481
808.44	15.904
808.74	16.320
809.05	16.777
809.35	17.045
809.65	17.159
809.95	17.635
810.26	18.489
810.56	18.577
810.86	18.872
811.16	18.852
811.47	19.041
811.77	18.763
812.07	19.025
812.37	19.070
812.68	18.646
812.98	18.513
813.28	18.146
813.58	18.311
813.88	18.705
814.19	18.731
814.49	18.721
814.79	19.107
815.09	19.051
815.39	19.013
815.70	18.745
816.00	19.307
816.30	19.452
816.60	19.867
816.90	19.768
817.20	19.687
817.50	19.815
817.81	20.169
818.11	20.426
818.41	20.927
818.71	21.362
819.01	21.589
819.31	21.710
819.61	21.870
819.92	21.923
820.22	21.967
820.52	21.966
820.82	21.973
821.12	21.964
821.42	21.910
821.72	21.828
822.02	21.790
822.32	21.708
822.62	21.618
822.92	21.495
823.22	21.443
823.52	21.439
823.83	21.445
824.13	21.472
824.43	21.467
824.73	21.378
825.03	21.376
825.33	21.097
825.63	21.148
825.93	21.097
826.23	21.099
826.53	21.051
826.83	20.821
827.13	20.774
827.43	20.672
827.73	20.518
828.03	20.509
828.33	20.395
828.63	20.474
828.93	20.265
829.23	20.050
829.53	19.928
829.83	19.795
830.13	19.682
830.42	19.710
830.72	19.559
831.02	19.835
831.32	20.205
831.62	20.249
831.92	20.368
832.22	20.148
832.52	20.338
832.82	20.432
833.12	20.457
833.42	20.448
833.72	20.165
834.01	20.124
834.31	20.199
834.61	19.687
834.91	19.564
835.21	19.246
835.51	19.483
835.81	19.124
836.11	18.704
836.40	18.967
836.70	19.227
837.00	18.892
837.30	18.253
837.60	17.341
837.90	17.332
838.19	17.125
838.49	17.091
838.79	16.960
839.09	17.125
839.39	17.298
839.68	16.099
839.98	15.766
840.28	16.168
840.58	16.608
840.88	16.524
841.17	16.287
841.47	16.261
841.77	15.474
842.07	14.688
842.36	13.951
842.66	13.201
842.96	12.354
843.26	11.808
843.55	10.979
843.85	11.621
844.15	11.414
844.45	12.402
844.74	11.439
845.04	12.140
845.34	11.585
845.63	11.002
845.93	12.214
846.23	13.492
846.53	12.641
846.82	12.986
847.12	10.719
847.42	11.115
847.71	8.212
848.01	9.168
848.31	8.990
848.60	10.228
848.90	11.254
849.19	10.138
849.49	9.500
849.79	10.579
850.08	9.569
850.38	11.091
850.68	11.146
850.97	13.580
851.27	13.613
851.56	14.686
851.86	12.534
852.16	13.444
852.45	13.842
852.75	13.387
853.04	11.320
853.34	11.057
853.64	8.513
853.93	8.592
854.23	8.278
854.52	7.247
854.82	6.317
855.11	7.738
855.41	6.824
855.70	6.414
856.00	5.840
856.30	8.329
856.59	7.983
856.89	9.109
857.18	8.423
857.48	8.491
857.77	8.111
858.07	7.886
858.36	8.936
858.66	8.308
858.95	8.174
859.25	9.194
859.54	7.058
859.84	7.578
860.13	8.432
860.42	7.605
860.72	5.368
861.01	7.099
861.31	6.980
861.60	4.794
861.90	4.360
862.19	3.853
862.49	4.324
862.78	6.294
863.07	7.004
863.37	8.521
863.66	9.419
863.96	10.824
864.25	11.813
864.54	12.415
864.84	14.274
865.13	15.132
865.43	16.018
865.72	27.598
866.01	13.097
866.31	16.389
866.60	9.653
866.89	16.641
>>>>>End Spectral Data<<<<<
