OOIBase32 Version 2.0.0.6 Data File
++++++++++++++++++++++++++++++++++++
Date: 01-20-2012, 22:33:28
User: Valued Ocean Optics Customer
Spectrometer Serial Number: USB2E2917
Spectrometer Channel: Master
Integration Time (msec): 4
Spectra Averaged: 10
Boxcar Smoothing: 5
Correct for Electrical Dark: Enabled
Time Normalized: Disabled
Dual-beam Reference: Disabled
Reference Channel: Master
Temperature: Not acquired
Spectrometer Type: S2000
ADC Type: USB2000
Number of Pixels in File: 2048
Graph Title: 
>>>>>Begin Spectral Data<<<<<
180.30	0.000
180.67	0.000
181.03	133.399
181.40	32.938
181.77	81.342
182.14	450.627
182.51	42.776
182.88	180.384
183.25	61.461
183.62	10.284
183.99	-10.134
184.36	38.157
184.73	172.776
185.10	417.638
185.46	292.442
185.83	13.433
186.20	-671.666
186.57	60.340
186.94	20.157
187.31	-13.289
187.68	-779.582
188.05	89.590
188.42	-46.114
188.78	28.499
189.15	28.291
189.52	24.734
189.89	19.424
190.26	18.140
190.63	15.114
191.00	18.559
191.37	-14.060
191.73	-38.247
192.10	-19.053
192.47	37.470
192.84	-7.353
193.21	-23.448
193.58	-31.792
193.94	-58.524
194.31	3.533
194.68	36.213
195.05	35.331
195.42	34.646
195.79	37.606
196.15	29.696
196.52	15.920
196.89	20.033
197.26	37.234
197.63	44.567
198.00	55.384
198.36	29.696
198.73	32.565
199.10	32.261
199.47	50.389
199.84	52.116
200.20	53.124
200.57	45.144
200.94	45.153
201.31	47.943
201.68	34.938
202.04	28.832
202.41	41.172
202.78	21.225
203.15	10.220
203.51	-12.240
203.88	17.477
204.25	4.357
204.62	19.710
204.98	28.318
205.35	23.256
205.72	32.464
206.09	27.218
206.46	21.069
206.82	26.213
207.19	34.900
207.56	35.774
207.92	30.477
208.29	53.249
208.66	44.731
209.03	41.011
209.39	44.782
209.76	46.470
210.13	52.737
210.50	64.626
210.86	69.231
211.23	65.455
211.60	76.593
211.96	67.885
212.33	55.879
212.70	58.040
213.07	51.411
213.43	49.700
213.80	52.346
214.17	53.311
214.53	44.799
214.90	26.715
215.27	29.408
215.63	12.536
216.00	8.999
216.37	20.981
216.74	18.545
217.10	18.640
217.47	11.693
217.84	1.479
218.20	-4.670
218.57	-7.302
218.94	6.402
219.30	-0.746
219.67	6.819
220.04	16.388
220.40	5.515
220.77	6.552
221.13	7.385
221.50	17.200
221.87	21.801
222.23	19.178
222.60	19.261
222.97	16.989
223.33	17.699
223.70	12.283
224.07	7.907
224.43	10.387
224.80	9.052
225.16	7.581
225.53	6.769
225.90	5.227
226.26	5.920
226.63	6.412
226.99	6.044
227.36	6.995
227.73	7.256
228.09	7.299
228.46	6.681
228.82	6.313
229.19	6.349
229.56	5.346
229.92	5.319
230.29	4.810
230.65	5.543
231.02	6.087
231.38	4.809
231.75	4.317
232.12	4.927
232.48	4.757
232.85	5.323
233.21	5.676
233.58	4.842
233.94	5.184
234.31	6.066
234.68	4.059
235.04	4.764
235.41	4.365
235.77	5.683
236.14	2.969
236.50	1.954
236.87	1.970
237.23	2.353
237.60	3.721
237.96	4.242
238.33	4.474
238.69	5.310
239.06	4.748
239.42	5.137
239.79	4.934
240.15	5.917
240.52	6.209
240.88	6.422
241.25	6.515
241.61	6.104
241.98	5.936
242.34	5.763
242.71	5.385
243.07	5.355
243.44	5.108
243.80	5.248
244.17	4.920
244.53	4.871
244.90	4.764
245.26	4.878
245.63	5.210
245.99	5.164
246.36	5.285
246.72	5.302
247.09	5.471
247.45	5.278
247.81	5.057
248.18	5.397
248.54	5.362
248.91	5.235
249.27	5.269
249.64	5.049
250.00	5.246
250.36	5.332
250.73	5.325
251.09	5.201
251.46	5.828
251.82	5.961
252.19	5.832
252.55	6.008
252.91	6.327
253.28	6.010
253.64	5.768
254.01	5.678
254.37	5.340
254.73	5.416
255.10	5.075
255.46	4.762
255.83	4.937
256.19	4.958
256.55	4.999
256.92	5.114
257.28	5.195
257.65	5.131
258.01	5.020
258.37	4.723
258.74	4.709
259.10	4.706
259.46	4.717
259.83	4.486
260.19	4.349
260.55	4.314
260.92	4.341
261.28	4.319
261.64	4.325
262.01	4.326
262.37	4.740
262.73	4.514
263.10	4.505
263.46	4.768
263.82	5.007
264.19	5.016
264.55	5.179
264.91	5.171
265.28	4.943
265.64	5.162
266.00	4.909
266.37	4.914
266.73	5.183
267.09	5.176
267.46	4.932
267.82	4.926
268.18	4.996
268.54	4.791
268.91	4.517
269.27	4.655
269.63	4.323
270.00	4.370
270.36	4.251
270.72	4.084
271.08	4.172
271.45	4.145
271.81	4.195
272.17	4.289
272.53	4.371
272.90	4.276
273.26	4.062
273.62	4.291
273.98	4.518
274.35	4.641
274.71	4.811
275.07	4.686
275.43	4.748
275.80	4.600
276.16	4.461
276.52	4.387
276.88	4.215
277.25	4.327
277.61	4.342
277.97	4.177
278.33	4.062
278.69	4.014
279.06	3.969
279.42	3.885
279.78	3.980
280.14	4.166
280.50	4.150
280.87	4.285
281.23	4.356
281.59	4.192
281.95	4.162
282.31	4.156
282.68	4.083
283.04	4.212
283.40	4.316
283.76	4.259
284.12	4.080
284.48	4.052
284.85	4.069
285.21	4.048
285.57	3.984
285.93	4.049
286.29	4.115
286.65	4.121
287.02	4.049
287.38	4.048
287.74	4.165
288.10	4.175
288.46	4.122
288.82	4.250
289.18	4.113
289.54	4.331
289.91	4.349
290.27	4.253
290.63	4.456
290.99	4.628
291.35	4.568
291.71	4.356
292.07	4.539
292.43	4.596
292.79	4.340
293.16	4.403
293.52	4.344
293.88	4.491
294.24	4.653
294.60	4.490
294.96	4.417
295.32	4.580
295.68	4.621
296.04	4.563
296.40	4.746
296.76	4.950
297.12	4.944
297.49	4.957
297.85	4.907
298.21	4.746
298.57	4.800
298.93	4.752
299.29	4.816
299.65	4.918
300.01	4.875
300.37	4.761
300.73	4.716
301.09	4.811
301.45	4.983
301.81	5.104
302.17	5.335
302.53	5.537
302.89	5.778
303.25	5.762
303.61	5.885
303.97	6.012
304.33	6.116
304.69	6.318
305.05	6.393
305.41	6.330
305.77	6.369
306.13	6.327
306.49	6.122
306.85	6.038
307.21	6.086
307.57	5.981
307.93	6.087
308.29	6.121
308.65	6.071
309.01	6.029
309.37	6.103
309.73	6.040
310.09	5.966
310.45	6.147
310.81	6.107
311.17	5.988
311.53	6.042
311.89	5.956
312.25	5.913
312.61	5.870
312.96	5.961
313.32	5.883
313.68	5.865
314.04	5.985
314.40	5.911
314.76	6.018
315.12	6.029
315.48	6.068
315.84	6.088
316.20	6.115
316.56	6.286
316.92	6.304
317.27	6.432
317.63	6.475
317.99	6.568
318.35	6.570
318.71	6.614
319.07	6.766
319.43	6.721
319.79	6.713
320.15	6.673
320.50	6.652
320.86	6.619
321.22	6.598
321.58	6.582
321.94	6.487
322.30	6.442
322.66	6.473
323.01	6.432
323.37	6.514
323.73	6.425
324.09	6.409
324.45	6.383
324.81	6.327
325.17	6.253
325.52	6.194
325.88	6.244
326.24	6.232
326.60	6.186
326.96	6.157
327.31	6.107
327.67	6.211
328.03	6.207
328.39	6.179
328.75	6.199
329.11	6.216
329.46	6.386
329.82	6.425
330.18	6.542
330.54	6.452
330.90	6.490
331.25	6.390
331.61	6.300
331.97	6.377
332.33	6.402
332.68	6.347
333.04	6.371
333.40	6.325
333.76	6.226
334.11	6.092
334.47	6.185
334.83	6.157
335.19	6.307
335.54	6.390
335.90	6.392
336.26	6.317
336.62	6.401
336.97	6.335
337.33	6.290
337.69	6.275
338.05	6.273
338.40	6.253
338.76	6.211
339.12	6.150
339.48	6.113
339.83	6.065
340.19	6.090
340.55	6.099
340.90	6.190
341.26	6.135
341.62	6.105
341.97	6.261
342.33	6.253
342.69	6.258
343.04	6.166
343.40	6.213
343.76	6.246
344.12	6.215
344.47	6.226
344.83	6.202
345.19	6.255
345.54	6.322
345.90	6.217
346.26	6.234
346.61	6.165
346.97	6.243
347.32	6.171
347.68	6.105
348.04	6.145
348.39	6.070
348.75	5.999
349.11	6.032
349.46	5.994
349.82	6.013
350.18	5.962
350.53	5.998
350.89	5.986
351.24	5.984
351.60	5.986
351.96	5.906
352.31	5.975
352.67	5.977
353.02	5.894
353.38	5.825
353.74	5.848
354.09	5.823
354.45	5.939
354.80	5.954
355.16	5.924
355.52	5.886
355.87	5.976
356.23	5.995
356.58	5.967
356.94	6.003
357.29	6.068
357.65	6.025
358.00	6.013
358.36	5.916
358.72	5.894
359.07	5.894
359.43	5.899
359.78	5.856
360.14	5.754
360.49	5.742
360.85	5.710
361.20	5.678
361.56	5.671
361.91	5.637
362.27	5.616
362.62	5.596
362.98	5.579
363.33	5.586
363.69	5.557
364.04	5.509
364.40	5.486
364.75	5.475
365.11	5.529
365.46	5.465
365.82	5.501
366.17	5.516
366.53	5.460
366.88	5.477
367.24	5.469
367.59	5.447
367.95	5.484
368.30	5.520
368.66	5.525
369.01	5.458
369.37	5.504
369.72	5.516
370.08	5.509
370.43	5.543
370.78	5.550
371.14	5.631
371.49	5.600
371.85	5.625
372.20	5.636
372.56	5.609
372.91	5.590
373.26	5.596
373.62	5.643
373.97	5.638
374.33	5.639
374.68	5.635
375.03	5.579
375.39	5.580
375.74	5.556
376.10	5.560
376.45	5.589
376.80	5.661
377.16	5.647
377.51	5.603
377.87	5.644
378.22	5.697
378.57	5.740
378.93	5.768
379.28	5.858
379.63	5.890
379.99	5.898
380.34	5.915
380.70	5.943
381.05	6.009
381.40	6.059
381.76	6.080
382.11	6.105
382.46	6.134
382.82	6.122
383.17	6.158
383.52	6.217
383.88	6.298
384.23	6.357
384.58	6.345
384.94	6.332
385.29	6.282
385.64	6.271
385.99	6.235
386.35	6.203
386.70	6.217
387.05	6.171
387.41	6.174
387.76	6.144
388.11	6.159
388.47	6.196
388.82	6.228
389.17	6.298
389.52	6.351
389.88	6.411
390.23	6.481
390.58	6.548
390.93	6.635
391.29	6.671
391.64	6.728
391.99	6.759
392.34	6.753
392.70	6.786
393.05	6.789
393.40	6.783
393.75	6.775
394.11	6.783
394.46	6.760
394.81	6.746
395.16	6.736
395.52	6.699
395.87	6.645
396.22	6.625
396.57	6.639
396.92	6.641
397.28	6.660
397.63	6.692
397.98	6.665
398.33	6.690
398.68	6.723
399.04	6.711
399.39	6.710
399.74	6.699
400.09	6.733
400.44	6.733
400.80	6.781
401.15	6.829
401.50	6.857
401.85	6.923
402.20	6.960
402.55	6.970
402.90	7.039
403.26	7.117
403.61	7.210
403.96	7.284
404.31	7.309
404.66	7.378
405.01	7.399
405.36	7.424
405.72	7.430
406.07	7.451
406.42	7.501
406.77	7.557
407.12	7.568
407.47	7.603
407.82	7.597
408.17	7.648
408.53	7.638
408.88	7.672
409.23	7.714
409.58	7.750
409.93	7.784
410.28	7.820
410.63	7.824
410.98	7.887
411.33	7.920
411.68	7.986
412.03	8.046
412.38	8.112
412.73	8.180
413.09	8.246
413.44	8.306
413.79	8.401
414.14	8.467
414.49	8.548
414.84	8.599
415.19	8.668
415.54	8.749
415.89	8.849
416.24	8.924
416.59	8.980
416.94	9.043
417.29	9.125
417.64	9.180
417.99	9.232
418.34	9.307
418.69	9.387
419.04	9.464
419.39	9.516
419.74	9.567
420.09	9.641
420.44	9.702
420.79	9.754
421.14	9.811
421.49	9.859
421.84	9.906
422.19	9.942
422.54	9.973
422.89	10.006
423.24	10.066
423.59	10.073
423.94	10.098
424.29	10.125
424.64	10.181
424.99	10.216
425.34	10.264
425.68	10.327
426.03	10.380
426.38	10.435
426.73	10.476
427.08	10.506
427.43	10.598
427.78	10.647
428.13	10.728
428.48	10.773
428.83	10.835
429.18	10.905
429.53	10.972
429.87	11.052
430.22	11.119
430.57	11.201
430.92	11.254
431.27	11.332
431.62	11.393
431.97	11.453
432.32	11.510
432.67	11.580
433.01	11.627
433.36	11.666
433.71	11.698
434.06	11.760
434.41	11.810
434.76	11.907
435.11	11.972
435.45	12.055
435.80	12.127
436.15	12.210
436.50	12.266
436.85	12.329
437.20	12.396
437.54	12.456
437.89	12.509
438.24	12.558
438.59	12.595
438.94	12.613
439.29	12.635
439.63	12.672
439.98	12.711
440.33	12.734
440.68	12.769
441.03	12.801
441.37	12.850
441.72	12.903
442.07	12.961
442.42	12.991
442.76	13.052
443.11	13.101
443.46	13.126
443.81	13.155
444.16	13.197
444.50	13.233
444.85	13.269
445.20	13.296
445.55	13.292
445.89	13.293
446.24	13.303
446.59	13.304
446.94	13.313
447.28	13.298
447.63	13.302
447.98	13.298
448.32	13.316
448.67	13.305
449.02	13.311
449.37	13.345
449.71	13.377
450.06	13.416
450.41	13.443
450.75	13.465
451.10	13.544
451.45	13.582
451.79	13.629
452.14	13.651
452.49	13.709
452.84	13.754
453.18	13.778
453.53	13.819
453.88	13.884
454.22	13.946
454.57	13.980
454.92	14.036
455.26	14.092
455.61	14.165
455.95	14.216
456.30	14.300
456.65	14.355
456.99	14.424
457.34	14.480
457.69	14.523
458.03	14.557
458.38	14.616
458.73	14.647
459.07	14.689
459.42	14.711
459.76	14.743
460.11	14.734
460.46	14.747
460.80	14.781
461.15	14.800
461.49	14.797
461.84	14.826
462.19	14.845
462.53	14.884
462.88	14.910
463.22	14.943
463.57	14.984
463.91	15.044
464.26	15.087
464.61	15.113
464.95	15.154
465.30	15.221
465.64	15.245
465.99	15.285
466.33	15.324
466.68	15.359
467.02	15.398
467.37	15.439
467.71	15.458
468.06	15.487
468.41	15.525
468.75	15.558
469.10	15.580
469.44	15.627
469.79	15.651
470.13	15.653
470.48	15.654
470.82	15.657
471.17	15.680
471.51	15.699
471.86	15.722
472.20	15.746
472.55	15.787
472.89	15.823
473.23	15.809
473.58	15.827
473.92	15.886
474.27	15.946
474.61	15.970
474.96	15.974
475.30	15.999
475.65	16.009
475.99	16.025
476.34	16.024
476.68	16.018
477.02	16.064
477.37	16.100
477.71	16.126
478.06	16.180
478.40	16.300
478.75	16.490
479.09	16.690
479.43	16.953
479.78	17.248
480.12	17.586
480.47	17.943
480.81	18.287
481.15	18.624
481.50	18.983
481.84	19.384
482.19	19.808
482.53	20.187
482.87	20.467
483.22	20.543
483.56	20.428
483.90	20.165
484.25	19.805
484.59	19.400
484.94	19.100
485.28	18.840
485.62	18.491
485.97	18.089
486.31	17.714
486.65	17.435
487.00	17.331
487.34	17.388
487.68	17.538
488.03	17.749
488.37	17.979
488.71	18.087
489.06	18.083
489.40	18.081
489.74	18.070
490.09	18.063
490.43	18.036
490.77	18.005
491.11	17.959
491.46	17.929
491.80	17.900
492.14	17.906
492.49	17.873
492.83	17.842
493.17	17.815
493.51	17.824
493.86	17.799
494.20	17.827
494.54	17.860
494.88	17.908
495.23	17.967
495.57	18.020
495.91	18.048
496.25	18.078
496.60	18.123
496.94	18.171
497.28	18.189
497.62	18.255
497.97	18.286
498.31	18.326
498.65	18.361
498.99	18.402
499.33	18.439
499.68	18.500
500.02	18.564
500.36	18.617
500.70	18.668
501.04	18.736
501.39	18.781
501.73	18.846
502.07	18.936
502.41	19.024
502.75	19.076
503.09	19.157
503.44	19.221
503.78	19.312
504.12	19.376
504.46	19.448
504.80	19.534
505.14	19.605
505.49	19.678
505.83	19.736
506.17	19.790
506.51	19.890
506.85	19.967
507.19	20.029
507.53	20.079
507.87	20.157
508.22	20.232
508.56	20.281
508.90	20.330
509.24	20.366
509.58	20.415
509.92	20.453
510.26	20.481
510.60	20.523
510.94	20.578
511.28	20.615
511.63	20.669
511.97	20.711
512.31	20.771
512.65	20.838
512.99	20.909
513.33	20.983
513.67	21.061
514.01	21.151
514.35	21.233
514.69	21.301
515.03	21.395
515.37	21.465
515.71	21.542
516.05	21.604
516.39	21.674
516.73	21.726
517.07	21.776
517.41	21.828
517.75	21.848
518.09	21.878
518.43	21.914
518.77	21.927
519.11	21.927
519.45	21.934
519.79	21.961
520.13	21.953
520.47	21.990
520.81	22.012
521.15	22.055
521.49	22.112
521.83	22.178
522.17	22.259
522.51	22.350
522.85	22.445
523.19	22.587
523.53	22.751
523.87	22.942
524.21	23.152
524.55	23.361
524.89	23.539
525.23	23.686
525.57	23.825
525.91	23.963
526.25	24.089
526.58	24.221
526.92	24.306
527.26	24.366
527.60	24.414
527.94	24.404
528.28	24.373
528.62	24.333
528.96	24.311
529.30	24.259
529.64	24.187
529.97	24.107
530.31	24.021
530.65	23.950
530.99	23.889
531.33	23.832
531.67	23.812
532.01	23.828
532.35	23.821
532.68	23.795
533.02	23.776
533.36	23.769
533.70	23.748
534.04	23.718
534.38	23.682
534.71	23.640
535.05	23.612
535.39	23.578
535.73	23.514
536.07	23.504
536.41	23.526
536.74	23.570
537.08	23.616
537.42	23.686
537.76	23.734
538.10	23.802
538.43	23.906
538.77	23.976
539.11	24.048
539.45	24.105
539.79	24.160
540.12	24.192
540.46	24.206
540.80	24.206
541.14	24.199
541.47	24.174
541.81	24.163
542.15	24.103
542.49	24.055
542.82	23.983
543.16	23.936
543.50	23.864
543.84	23.805
544.17	23.773
544.51	23.725
544.85	23.700
545.18	23.702
545.52	23.678
545.86	23.667
546.20	23.656
546.53	23.651
546.87	23.632
547.21	23.610
547.54	23.591
547.88	23.564
548.22	23.552
548.55	23.502
548.89	23.484
549.23	23.461
549.56	23.437
549.90	23.431
550.24	23.420
550.57	23.404
550.91	23.423
551.25	23.424
551.58	23.419
551.92	23.410
552.26	23.415
552.59	23.413
552.93	23.419
553.27	23.425
553.60	23.423
553.94	23.402
554.27	23.401
554.61	23.402
554.95	23.395
555.28	23.405
555.62	23.430
555.95	23.446
556.29	23.457
556.63	23.458
556.96	23.445
557.30	23.432
557.63	23.474
557.97	23.495
558.31	23.489
558.64	23.516
558.98	23.502
559.31	23.505
559.65	23.534
559.98	23.561
560.32	23.582
560.65	23.640
560.99	23.659
561.33	23.672
561.66	23.665
562.00	23.707
562.33	23.720
562.67	23.762
563.00	23.779
563.34	23.784
563.67	23.784
564.01	23.774
564.34	23.757
564.68	23.795
565.01	23.827
565.35	23.847
565.68	23.842
566.02	23.824
566.35	23.834
566.69	23.843
567.02	23.872
567.36	23.857
567.69	23.862
568.03	23.856
568.36	23.825
568.69	23.793
569.03	23.782
569.36	23.778
569.70	23.793
570.03	23.783
570.37	23.780
570.70	23.779
571.04	23.804
571.37	23.808
571.70	23.839
572.04	23.842
572.37	23.871
572.71	23.886
573.04	23.890
573.37	23.888
573.71	23.888
574.04	23.890
574.38	23.859
574.71	23.869
575.04	23.862
575.38	23.854
575.71	23.851
576.05	23.807
576.38	23.777
576.71	23.733
577.05	23.740
577.38	23.700
577.71	23.686
578.05	23.672
578.38	23.649
578.71	23.617
579.05	23.589
579.38	23.596
579.71	23.591
580.05	23.639
580.38	23.676
580.71	23.678
581.05	23.711
581.38	23.705
581.71	23.723
582.05	23.709
582.38	23.747
582.71	23.760
583.04	23.780
583.38	23.775
583.71	23.692
584.04	23.694
584.38	23.647
584.71	23.656
585.04	23.652
585.37	23.665
585.71	23.690
586.04	23.702
586.37	23.714
586.70	23.699
587.04	23.713
587.37	23.772
587.70	23.753
588.03	23.771
588.37	23.757
588.70	23.766
589.03	23.760
589.36	23.755
589.69	23.746
590.03	23.728
590.36	23.695
590.69	23.694
591.02	23.667
591.35	23.681
591.69	23.689
592.02	23.700
592.35	23.699
592.68	23.679
593.01	23.679
593.35	23.684
593.68	23.666
594.01	23.668
594.34	23.669
594.67	23.705
595.00	23.710
595.34	23.703
595.67	23.686
596.00	23.659
596.33	23.644
596.66	23.649
596.99	23.636
597.32	23.659
597.65	23.680
597.99	23.654
598.32	23.604
598.65	23.575
598.98	23.538
599.31	23.502
599.64	23.503
599.97	23.482
600.30	23.465
600.63	23.458
600.96	23.434
601.30	23.390
601.63	23.404
601.96	23.420
602.29	23.425
602.62	23.433
602.95	23.447
603.28	23.437
603.61	23.465
603.94	23.469
604.27	23.454
604.60	23.449
604.93	23.494
605.26	23.505
605.59	23.474
605.92	23.450
606.25	23.470
606.58	23.432
606.91	23.442
607.24	23.394
607.57	23.334
607.90	23.323
608.23	23.286
608.56	23.215
608.89	23.204
609.22	23.191
609.55	23.162
609.88	23.085
610.21	23.076
610.54	23.048
610.87	23.033
611.20	23.019
611.53	22.954
611.86	22.964
612.19	22.982
612.52	22.941
612.85	22.956
613.18	22.933
613.51	22.957
613.84	22.949
614.17	22.940
614.49	22.965
614.82	23.019
615.15	23.024
615.48	22.974
615.81	22.918
616.14	22.903
616.47	22.831
616.80	22.836
617.13	22.837
617.46	22.811
617.78	22.795
618.11	22.736
618.44	22.634
618.77	22.653
619.10	22.675
619.43	22.689
619.76	22.681
620.09	22.644
620.41	22.582
620.74	22.576
621.07	22.567
621.40	22.520
621.73	22.534
622.06	22.552
622.38	22.559
622.71	22.566
623.04	22.555
623.37	22.488
623.70	22.556
624.02	22.611
624.35	22.555
624.68	22.583
625.01	22.610
625.34	22.596
625.66	22.588
625.99	22.570
626.32	22.513
626.65	22.528
626.98	22.536
627.30	22.503
627.63	22.472
627.96	22.466
628.29	22.382
628.61	22.351
628.94	22.353
629.27	22.351
629.60	22.321
629.92	22.306
630.25	22.236
630.58	22.232
630.91	22.212
631.23	22.184
631.56	22.140
631.89	22.158
632.21	22.134
632.54	22.104
632.87	22.039
633.19	21.991
633.52	21.990
633.85	22.013
634.18	21.986
634.50	21.936
634.83	21.891
635.16	21.913
635.48	21.916
635.81	21.880
636.14	21.826
636.46	21.782
636.79	21.792
637.11	21.744
637.44	21.691
637.77	21.678
638.09	21.699
638.42	21.736
638.75	21.713
639.07	21.648
639.40	21.634
639.73	21.644
640.05	21.655
640.38	21.645
640.70	21.641
641.03	21.594
641.36	21.592
641.68	21.546
642.01	21.487
642.33	21.456
642.66	21.397
642.98	21.361
643.31	21.337
643.64	21.337
643.96	21.302
644.29	21.279
644.61	21.325
644.94	21.280
645.26	21.298
645.59	21.270
645.91	21.280
646.24	21.325
646.56	21.354
646.89	21.315
647.22	21.302
647.54	21.300
647.87	21.268
648.19	21.230
648.52	21.210
648.84	21.123
649.17	21.138
649.49	21.118
649.82	21.101
650.14	21.040
650.47	21.070
650.79	21.018
651.11	20.977
651.44	20.964
651.76	20.944
652.09	20.956
652.41	20.973
652.74	20.872
653.06	20.785
653.39	20.730
653.71	20.697
654.04	20.662
654.36	20.646
654.68	20.638
655.01	20.631
655.33	20.626
655.66	20.553
655.98	20.547
656.30	20.544
656.63	20.559
656.95	20.604
657.28	20.607
657.60	20.576
657.92	20.577
658.25	20.535
658.57	20.511
658.90	20.431
659.22	20.364
659.54	20.316
659.87	20.320
660.19	20.241
660.51	20.140
660.84	20.038
661.16	19.943
661.48	19.861
661.81	19.788
662.13	19.721
662.45	19.674
662.78	19.645
663.10	19.566
663.42	19.534
663.75	19.474
664.07	19.393
664.39	19.366
664.72	19.290
665.04	19.261
665.36	19.174
665.69	19.144
666.01	19.087
666.33	19.088
666.65	19.079
666.98	18.973
667.30	19.006
667.62	18.938
667.94	18.911
668.27	18.867
668.59	18.873
668.91	18.805
669.23	18.745
669.56	18.692
669.88	18.559
670.20	18.394
670.52	18.358
670.85	18.265
671.17	18.205
671.49	18.128
671.81	18.073
672.13	17.954
672.46	17.958
672.78	17.879
673.10	17.826
673.42	17.855
673.74	17.884
674.07	17.849
674.39	17.784
674.71	17.770
675.03	17.767
675.35	17.768
675.67	17.779
676.00	17.816
676.32	17.782
676.64	17.805
676.96	17.803
677.28	17.863
677.60	17.867
677.92	17.929
678.25	17.984
678.57	17.993
678.89	17.984
679.21	17.938
679.53	17.827
679.85	17.853
680.17	17.790
680.49	17.747
680.81	17.644
681.13	17.586
681.46	17.481
681.78	17.391
682.10	17.252
682.42	17.193
682.74	17.133
683.06	17.194
683.38	17.141
683.70	17.115
684.02	17.028
684.34	17.032
684.66	17.073
684.98	17.069
685.30	17.044
685.62	17.086
685.94	17.082
686.26	17.036
686.58	16.917
686.90	16.869
687.22	16.846
687.54	16.893
687.86	16.812
688.18	16.663
688.50	16.535
688.82	16.440
689.14	16.368
689.46	16.284
689.78	16.228
690.10	16.200
690.42	16.140
690.74	16.120
691.06	15.952
691.38	15.783
691.70	15.726
692.02	15.668
692.34	15.653
692.66	15.601
692.98	15.490
693.30	15.488
693.62	15.538
693.94	15.508
694.26	15.494
694.57	15.576
694.89	15.777
695.21	15.803
695.53	15.928
695.85	16.002
696.17	15.989
696.49	16.040
696.81	16.039
697.13	16.040
697.44	16.010
697.76	15.952
698.08	15.889
698.40	15.732
698.72	15.623
699.04	15.325
699.36	15.046
699.67	14.902
699.99	14.651
700.31	14.371
700.63	13.982
700.95	13.725
701.27	13.378
701.58	12.910
701.90	12.537
702.22	12.299
702.54	12.153
702.86	12.026
703.17	11.887
703.49	11.747
703.81	11.679
704.13	11.618
704.45	11.527
704.76	11.386
705.08	11.538
705.40	11.486
705.72	11.366
706.03	11.330
706.35	11.105
706.67	11.019
706.99	10.947
707.30	10.848
707.62	10.631
707.94	10.570
708.26	10.615
708.57	10.582
708.89	10.614
709.21	10.588
709.53	10.644
709.84	10.738
710.16	10.652
710.48	10.710
710.79	10.717
711.11	10.875
711.43	10.844
711.74	10.983
712.06	10.998
712.38	11.043
712.69	11.078
713.01	11.118
713.33	11.205
713.64	11.387
713.96	11.572
714.28	11.838
714.59	12.080
714.91	12.409
715.23	12.570
715.54	12.780
715.86	12.932
716.17	13.186
716.49	13.261
716.81	13.350
717.12	13.343
717.44	13.250
717.76	13.073
718.07	12.801
718.39	12.392
718.70	11.934
719.02	11.533
719.33	11.302
719.65	11.134
719.97	10.913
720.28	10.706
720.60	10.566
720.91	10.516
721.23	10.414
721.54	10.344
721.86	10.573
722.17	10.718
722.49	10.897
722.81	10.995
723.12	10.853
723.44	10.953
723.75	11.048
724.07	11.060
724.38	10.968
724.70	10.809
725.01	10.750
725.33	10.560
725.64	10.715
725.96	10.700
726.27	10.557
726.59	10.593
726.90	10.468
727.22	10.265
727.53	10.187
727.84	10.157
728.16	10.142
728.47	10.171
728.79	10.109
729.10	9.745
729.42	9.404
729.73	9.050
730.05	8.632
730.36	8.371
730.67	8.004
730.99	7.672
731.30	7.318
731.62	6.924
731.93	6.552
732.24	6.229
732.56	5.816
732.87	5.405
733.19	5.150
733.50	5.032
733.81	4.713
734.13	4.577
734.44	4.117
734.76	3.903
735.07	3.747
735.38	3.266
735.70	2.856
736.01	2.536
736.32	2.443
736.64	2.244
736.95	1.911
737.26	1.606
737.58	1.301
737.89	1.080
738.20	0.466
738.52	0.018
738.83	-0.270
739.14	-0.741
739.45	-1.090
739.77	-1.652
740.08	-2.254
740.39	-2.693
740.71	-3.138
741.02	-3.859
741.33	-4.449
741.64	-4.906
741.96	-5.522
742.27	-6.029
742.58	-6.506
742.90	-6.754
743.21	-7.000
743.52	-7.088
743.83	-7.543
744.14	-7.748
744.46	-7.913
744.77	-7.859
745.08	-8.021
745.39	-7.660
745.71	-7.647
746.02	-7.470
746.33	-7.451
746.64	-7.668
746.95	-7.885
747.27	-7.660
747.58	-7.503
747.89	-7.490
748.20	-7.705
748.51	-7.427
748.82	-7.900
749.14	-8.053
749.45	-7.964
749.76	-8.569
750.07	-8.741
750.38	-8.899
750.69	-9.220
751.01	-9.604
751.32	-9.749
751.63	-9.733
751.94	-10.060
752.25	-9.996
752.56	-10.022
752.87	-10.409
753.18	-10.015
753.49	-9.898
753.81	-9.766
754.12	-9.569
754.43	-9.196
754.74	-8.311
755.05	-7.440
755.36	-6.199
755.67	-5.237
755.98	-3.690
756.29	-2.252
756.60	-0.585
756.91	0.981
757.22	2.573
757.53	4.185
757.84	5.741
758.15	7.258
758.46	8.510
758.77	9.482
759.09	10.661
759.40	11.429
759.71	12.114
760.02	12.479
760.33	12.762
760.64	12.880
760.95	12.763
761.26	12.809
761.57	12.551
761.88	12.232
762.18	11.954
762.49	11.512
762.80	10.850
763.11	10.147
763.42	9.293
763.73	8.330
764.04	7.517
764.35	6.647
764.66	5.198
764.97	3.774
765.28	1.983
765.59	-0.006
765.90	-2.187
766.21	-4.328
766.52	-6.266
766.83	-8.113
767.14	-9.717
767.44	-11.349
767.75	-13.434
768.06	-14.899
768.37	-16.406
768.68	-17.471
768.99	-18.491
769.30	-19.624
769.61	-20.629
769.91	-21.454
770.22	-22.205
770.53	-22.653
770.84	-23.728
771.15	-23.695
771.46	-24.055
771.77	-24.691
772.07	-24.554
772.38	-24.724
772.69	-24.810
773.00	-24.762
773.31	-25.161
773.61	-25.816
773.92	-26.353
774.23	-25.953
774.54	-26.662
774.85	-26.519
775.15	-26.375
775.46	-26.477
775.77	-26.087
776.08	-25.482
776.39	-25.282
776.69	-25.331
777.00	-24.860
777.31	-24.565
777.62	-24.303
777.92	-24.046
778.23	-24.616
778.54	-24.158
778.85	-24.436
779.15	-24.909
779.46	-25.193
779.77	-25.791
780.07	-25.917
780.38	-26.306
780.69	-26.454
781.00	-27.040
781.30	-27.172
781.61	-26.996
781.92	-28.012
782.22	-27.880
782.53	-27.716
782.84	-27.646
783.14	-26.405
783.45	-25.746
783.76	-24.647
784.06	-23.946
784.37	-22.975
784.68	-21.343
784.98	-20.178
785.29	-18.101
785.60	-17.099
785.90	-16.067
786.21	-14.787
786.51	-13.674
786.82	-12.336
787.13	-11.526
787.43	-10.884
787.74	-10.060
788.04	-9.968
788.35	-10.026
788.66	-10.540
788.96	-10.550
789.27	-10.596
789.57	-11.355
789.88	-12.614
790.19	-13.455
790.49	-14.095
790.80	-14.597
791.10	-15.614
791.41	-15.786
791.71	-15.487
792.02	-14.886
792.32	-14.926
792.63	-14.550
792.93	-13.512
793.24	-12.604
793.54	-11.661
793.85	-10.948
794.15	-9.977
794.46	-9.182
794.76	-8.845
795.07	-8.506
795.37	-9.002
795.68	-7.975
795.98	-8.525
796.29	-8.616
796.59	-8.730
796.90	-9.319
797.20	-9.028
797.51	-9.197
797.81	-9.555
798.12	-10.004
798.42	-10.247
798.72	-9.594
799.03	-10.470
799.33	-9.721
799.64	-9.954
799.94	-10.031
800.25	-10.137
800.55	-10.730
800.85	-10.844
801.16	-11.072
801.46	-10.786
801.77	-10.983
802.07	-11.652
802.37	-11.098
802.68	-11.831
802.98	-12.200
803.28	-11.687
803.59	-11.581
803.89	-12.148
804.20	-12.363
804.50	-12.267
804.80	-12.865
805.11	-12.783
805.41	-12.251
805.71	-12.188
806.02	-11.512
806.32	-11.403
806.62	-12.073
806.93	-12.335
807.23	-12.075
807.53	-12.450
807.83	-12.165
808.14	-11.874
808.44	-11.376
808.74	-11.638
809.05	-11.029
809.35	-10.773
809.65	-10.020
809.95	-9.178
810.26	-7.998
810.56	-6.807
810.86	-5.215
811.16	-4.629
811.47	-3.533
811.77	-2.782
812.07	-2.172
812.37	-1.961
812.68	-1.748
812.98	-1.354
813.28	-1.151
813.58	-0.624
813.88	0.149
814.19	0.800
814.49	1.482
814.79	2.039
815.09	2.378
815.39	3.850
815.70	3.396
816.00	4.204
816.30	4.559
816.60	5.368
816.90	5.591
817.20	6.174
817.50	7.131
817.81	8.703
818.11	9.834
818.41	10.740
818.71	11.388
819.01	12.482
819.31	13.097
819.61	13.612
819.92	14.180
820.22	14.416
820.52	14.725
820.82	14.804
821.12	14.850
821.42	15.062
821.72	15.138
822.02	15.176
822.32	15.143
822.62	15.121
822.92	15.024
823.22	14.858
823.52	14.864
823.83	14.666
824.13	14.602
824.43	14.554
824.73	14.353
825.03	14.263
825.33	14.138
825.63	14.034
825.93	13.891
826.23	13.950
826.53	13.777
826.83	13.747
827.13	13.693
827.43	13.689
827.73	13.302
828.03	12.717
828.33	12.462
828.63	11.856
828.93	11.195
829.23	10.608
829.53	9.959
829.83	9.198
830.13	8.353
830.42	7.890
830.72	7.330
831.02	7.658
831.32	8.526
831.62	8.793
831.92	9.402
832.22	9.669
832.52	9.996
832.82	10.013
833.12	10.367
833.42	10.479
833.72	10.161
834.01	10.264
834.31	10.248
834.61	9.398
834.91	8.727
835.21	8.104
835.51	7.430
835.81	6.312
836.11	5.932
836.40	4.233
836.70	3.522
837.00	3.027
837.30	1.925
837.60	0.593
837.90	0.646
838.19	-0.331
838.49	-0.943
838.79	-1.919
839.09	-2.150
839.39	-3.211
839.68	-3.241
839.98	-3.524
840.28	-5.120
840.58	-6.681
840.88	-9.007
841.17	-11.028
841.47	-13.158
841.77	-15.304
842.07	-18.801
842.36	-21.626
842.66	-25.410
842.96	-28.971
843.26	-32.402
843.55	-33.623
843.85	-34.272
844.15	-36.021
844.45	-34.027
844.74	-33.521
845.04	-36.598
845.34	-34.450
845.63	-34.504
845.93	-35.366
846.23	-36.457
846.53	-40.500
846.82	-41.815
847.12	-45.696
847.42	-40.078
847.71	-47.606
848.01	-49.258
848.31	-43.915
848.60	-40.602
848.90	-41.550
849.19	-39.177
849.49	-40.828
849.79	-40.584
850.08	-42.182
850.38	-40.196
850.68	-43.877
850.97	-38.462
851.27	-36.802
851.56	-40.746
851.86	-43.275
852.16	-44.494
852.45	-48.007
852.75	-44.798
853.04	-44.389
853.34	-41.117
853.64	-41.059
853.93	-34.699
854.23	-39.818
854.52	-39.679
854.82	-36.619
855.11	-36.634
855.41	-35.924
855.70	-32.632
856.00	-31.559
856.30	-33.006
856.59	-31.192
856.89	-31.996
857.18	-38.751
857.48	-35.070
857.77	-35.447
858.07	-34.598
858.36	-37.732
858.66	-38.377
858.95	-40.088
859.25	-40.317
859.54	-40.251
859.84	-40.978
860.13	-36.195
860.42	-32.639
860.72	-34.645
861.01	-34.866
861.31	-35.772
861.60	-32.075
861.90	-30.031
862.19	-29.696
862.49	-29.940
862.78	-26.512
863.07	-27.774
863.37	-26.703
863.66	-31.388
863.96	-33.716
864.25	-28.807
864.54	-29.395
864.84	-30.105
865.13	-30.347
865.43	-27.335
865.72	-3.416
866.01	-32.792
866.31	-41.550
866.60	-34.716
866.89	-4.019
>>>>>End Spectral Data<<<<<
