OOIBase32 Version 2.0.0.6 Data File
++++++++++++++++++++++++++++++++++++
Date: 01-20-2012, 22:12:43
User: Valued Ocean Optics Customer
Spectrometer Serial Number: USB2E2917
Spectrometer Channel: Master
Integration Time (msec): 4
Spectra Averaged: 10
Boxcar Smoothing: 5
Correct for Electrical Dark: Enabled
Time Normalized: Disabled
Dual-beam Reference: Disabled
Reference Channel: Master
Temperature: Not acquired
Spectrometer Type: S2000
ADC Type: USB2000
Number of Pixels in File: 2048
Graph Title: 
>>>>>Begin Spectral Data<<<<<
180.30	0.000
180.67	0.000
181.03	13.167
181.40	17.098
181.77	231.790
182.14	-5868.533
182.51	-78.377
182.88	225.642
183.25	80.615
183.62	71.675
183.99	-498.953
184.36	295.270
184.73	28.675
185.10	-58.443
185.46	60.512
185.83	139.061
186.20	278.281
186.57	193.306
186.94	-80.402
187.31	-58.443
187.68	47.301
188.05	81.367
188.42	59.158
188.78	36.361
189.15	15.351
189.52	11.908
189.89	0.428
190.26	-4.839
190.63	7.502
191.00	8.821
191.37	4.291
191.73	11.305
192.10	4.980
192.47	17.436
192.84	24.667
193.21	29.926
193.58	28.334
193.94	35.983
194.31	42.336
194.68	43.116
195.05	39.812
195.42	42.981
195.79	41.583
196.15	44.546
196.52	34.386
196.89	24.078
197.26	25.066
197.63	23.714
198.00	19.763
198.36	11.684
198.73	11.237
199.10	15.045
199.47	12.807
199.84	3.414
200.20	4.643
200.57	2.264
200.94	-1.455
201.31	-10.980
201.68	-14.589
202.04	-15.369
202.41	-10.660
202.78	-17.989
203.15	-27.088
203.51	-31.329
203.88	-19.214
204.25	-20.640
204.62	-13.477
204.98	-2.257
205.35	3.176
205.72	7.248
206.09	4.517
206.46	1.478
206.82	10.813
207.19	2.473
207.56	11.639
207.92	6.771
208.29	16.305
208.66	8.379
209.03	7.881
209.39	6.764
209.76	1.740
210.13	1.538
210.50	10.297
210.86	10.062
211.23	19.146
211.60	11.646
211.96	19.849
212.33	6.705
212.70	5.637
213.07	4.926
213.43	10.461
213.80	10.916
214.17	16.589
214.53	12.681
214.90	0.287
215.27	3.821
215.63	6.759
216.00	-2.489
216.37	-4.539
216.74	-6.742
217.10	-7.480
217.47	-17.953
217.84	-21.770
218.20	-28.097
218.57	-26.344
218.94	-11.226
219.30	-13.536
219.67	-4.816
220.04	-2.789
220.40	2.491
220.77	5.131
221.13	5.489
221.50	10.553
221.87	14.786
222.23	16.963
222.60	14.948
222.97	11.721
223.33	10.509
223.70	4.904
224.07	6.136
224.43	6.258
224.80	6.024
225.16	4.051
225.53	3.906
225.90	3.856
226.26	3.922
226.63	3.910
226.99	3.864
227.36	3.978
227.73	4.705
228.09	4.356
228.46	4.227
228.82	3.790
229.19	4.168
229.56	3.630
229.92	3.244
230.29	2.792
230.65	3.280
231.02	3.121
231.38	3.117
231.75	2.685
232.12	2.187
232.48	1.934
232.85	1.238
233.21	1.386
233.58	1.304
233.94	1.413
234.31	0.851
234.68	0.505
235.04	0.529
235.41	0.112
235.77	-0.068
236.14	0.954
236.50	1.089
236.87	2.658
237.23	2.899
237.60	3.764
237.96	3.340
238.33	4.028
238.69	4.163
239.06	3.883
239.42	3.638
239.79	3.747
240.15	3.573
240.52	3.561
240.88	3.628
241.25	3.821
241.61	3.763
241.98	4.133
242.34	3.956
242.71	3.689
243.07	3.476
243.44	3.728
243.80	3.741
244.17	3.851
244.53	3.725
244.90	3.537
245.26	3.470
245.63	3.288
245.99	3.370
246.36	3.448
246.72	3.402
247.09	3.711
247.45	3.815
247.81	3.701
248.18	3.503
248.54	3.567
248.91	3.428
249.27	3.476
249.64	3.483
250.00	3.204
250.36	3.082
250.73	2.964
251.09	2.502
251.46	2.254
251.82	2.254
252.19	2.152
252.55	2.291
252.91	2.568
253.28	2.273
253.64	2.530
254.01	2.858
254.37	3.021
254.73	3.511
255.10	3.623
255.46	3.410
255.83	3.647
256.19	3.527
256.55	3.304
256.92	3.338
257.28	3.319
257.65	3.103
258.01	3.067
258.37	3.047
258.74	3.074
259.10	3.168
259.46	3.284
259.83	3.165
260.19	3.390
260.55	3.418
260.92	3.361
261.28	3.540
261.64	3.862
262.01	3.710
262.37	3.695
262.73	3.816
263.10	3.559
263.46	3.501
263.82	3.530
264.19	3.445
264.55	3.479
264.91	3.316
265.28	3.269
265.64	3.219
266.00	3.392
266.37	3.408
266.73	2.904
267.09	3.182
267.46	3.222
267.82	3.311
268.18	3.255
268.54	3.259
268.91	3.366
269.27	3.236
269.63	3.115
270.00	3.022
270.36	3.001
270.72	3.159
271.08	3.130
271.45	3.144
271.81	3.017
272.17	3.150
272.53	3.159
272.90	3.095
273.26	3.047
273.62	3.049
273.98	2.984
274.35	2.845
274.71	2.898
275.07	2.918
275.43	2.766
275.80	3.003
276.16	2.852
276.52	2.757
276.88	2.823
277.25	2.824
277.61	2.955
277.97	2.968
278.33	3.050
278.69	3.082
279.06	2.854
279.42	2.872
279.78	2.629
280.14	2.540
280.50	2.639
280.87	2.579
281.23	2.603
281.59	2.506
281.95	2.489
282.31	2.522
282.68	2.460
283.04	2.493
283.40	2.479
283.76	2.609
284.12	2.609
284.48	2.589
284.85	2.623
285.21	2.651
285.57	2.720
285.93	2.768
286.29	2.768
286.65	2.878
287.02	2.959
287.38	2.983
287.74	2.914
288.10	2.942
288.46	3.020
288.82	3.039
289.18	3.097
289.54	3.062
289.91	3.037
290.27	3.062
290.63	2.951
290.99	2.971
291.35	3.044
291.71	3.123
292.07	3.196
292.43	3.011
292.79	3.082
293.16	3.126
293.52	3.231
293.88	3.438
294.24	3.477
294.60	3.464
294.96	3.489
295.32	3.496
295.68	3.497
296.04	3.536
296.40	3.590
296.76	3.711
297.12	3.688
297.49	3.663
297.85	3.535
298.21	3.495
298.57	3.585
298.93	3.479
299.29	3.560
299.65	3.668
300.01	3.706
300.37	3.799
300.73	3.731
301.09	3.680
301.45	3.665
301.81	3.783
302.17	3.735
302.53	3.685
302.89	3.763
303.25	3.835
303.61	3.778
303.97	3.775
304.33	3.750
304.69	3.631
305.05	3.743
305.41	3.746
305.77	3.695
306.13	3.778
306.49	3.850
306.85	3.845
307.21	3.797
307.57	3.842
307.93	3.846
308.29	3.890
308.65	4.016
309.01	3.973
309.37	3.985
309.73	3.956
310.09	4.037
310.45	4.031
310.81	4.082
311.17	4.080
311.53	4.045
311.89	4.009
312.25	4.057
312.61	4.046
312.96	4.036
313.32	3.992
313.68	4.064
314.04	4.029
314.40	4.040
314.76	3.971
315.12	3.899
315.48	3.944
315.84	4.016
316.20	4.043
316.56	3.971
316.92	4.105
317.27	4.264
317.63	4.296
317.99	4.339
318.35	4.456
318.71	4.586
319.07	4.647
319.43	4.640
319.79	4.600
320.15	4.538
320.50	4.712
320.86	4.755
321.22	4.769
321.58	4.757
321.94	4.727
322.30	4.755
322.66	4.830
323.01	4.938
323.37	4.993
323.73	5.080
324.09	5.128
324.45	5.206
324.81	5.373
325.17	5.493
325.52	5.619
325.88	5.795
326.24	5.840
326.60	5.936
326.96	5.948
327.31	6.075
327.67	6.196
328.03	6.344
328.39	6.427
328.75	6.409
329.11	6.360
329.46	6.428
329.82	6.436
330.18	6.444
330.54	6.455
330.90	6.532
331.25	6.658
331.61	6.701
331.97	6.787
332.33	6.740
332.68	6.755
333.04	6.795
333.40	6.816
333.76	6.891
334.11	6.965
334.47	6.981
334.83	7.055
335.19	6.977
335.54	7.012
335.90	7.037
336.26	7.126
336.62	7.078
336.97	7.099
337.33	7.104
337.69	7.083
338.05	7.108
338.40	7.105
338.76	7.046
339.12	7.083
339.48	7.098
339.83	7.027
340.19	6.995
340.55	7.008
340.90	7.069
341.26	7.047
341.62	7.092
341.97	7.112
342.33	7.168
342.69	7.203
343.04	7.194
343.40	7.192
343.76	7.188
344.12	7.112
344.47	7.152
344.83	7.116
345.19	7.175
345.54	7.173
345.90	7.225
346.26	7.224
346.61	7.250
346.97	7.273
347.32	7.290
347.68	7.301
348.04	7.388
348.39	7.380
348.75	7.406
349.11	7.450
349.46	7.389
349.82	7.322
350.18	7.373
350.53	7.361
350.89	7.339
351.24	7.301
351.60	7.324
351.96	7.326
352.31	7.345
352.67	7.340
353.02	7.308
353.38	7.284
353.74	7.245
354.09	7.169
354.45	7.106
354.80	7.108
355.16	7.092
355.52	7.130
355.87	7.091
356.23	7.101
356.58	7.068
356.94	6.992
357.29	7.049
357.65	7.070
358.00	7.048
358.36	7.066
358.72	7.063
359.07	7.060
359.43	7.081
359.78	7.111
360.14	7.064
360.49	7.114
360.85	7.189
361.20	7.163
361.56	7.225
361.91	7.207
362.27	7.235
362.62	7.250
362.98	7.293
363.33	7.281
363.69	7.308
364.04	7.354
364.40	7.418
364.75	7.419
365.11	7.440
365.46	7.403
365.82	7.461
366.17	7.456
366.53	7.474
366.88	7.438
367.24	7.428
367.59	7.446
367.95	7.470
368.30	7.425
368.66	7.472
369.01	7.507
369.37	7.488
369.72	7.493
370.08	7.516
370.43	7.576
370.78	7.605
371.14	7.637
371.49	7.627
371.85	7.622
372.20	7.641
372.56	7.652
372.91	7.666
373.26	7.702
373.62	7.726
373.97	7.815
374.33	7.819
374.68	7.866
375.03	7.872
375.39	7.896
375.74	7.915
376.10	7.868
376.45	7.883
376.80	7.867
377.16	7.907
377.51	7.946
377.87	7.922
378.22	7.933
378.57	7.959
378.93	8.010
379.28	8.021
379.63	8.068
379.99	8.166
380.34	8.170
380.70	8.246
381.05	8.264
381.40	8.289
381.76	8.305
382.11	8.313
382.46	8.310
382.82	8.311
383.17	8.313
383.52	8.332
383.88	8.357
384.23	8.383
384.58	8.394
384.94	8.426
385.29	8.444
385.64	8.497
385.99	8.513
386.35	8.547
386.70	8.564
387.05	8.662
387.41	8.641
387.76	8.625
388.11	8.657
388.47	8.661
388.82	8.690
389.17	8.690
389.52	8.675
389.88	8.713
390.23	8.748
390.58	8.784
390.93	8.776
391.29	8.820
391.64	8.831
391.99	8.829
392.34	8.830
392.70	8.838
393.05	8.820
393.40	8.873
393.75	8.912
394.11	8.915
394.46	8.920
394.81	8.897
395.16	8.917
395.52	8.978
395.87	9.004
396.22	9.032
396.57	9.063
396.92	9.128
397.28	9.122
397.63	9.078
397.98	9.070
398.33	9.063
398.68	9.065
399.04	9.069
399.39	9.037
399.74	9.035
400.09	9.045
400.44	9.022
400.80	9.049
401.15	9.039
401.50	9.066
401.85	9.071
402.20	9.096
402.55	9.109
402.90	9.123
403.26	9.136
403.61	9.115
403.96	9.112
404.31	9.151
404.66	9.137
405.01	9.148
405.36	9.154
405.72	9.169
406.07	9.164
406.42	9.184
406.77	9.174
407.12	9.166
407.47	9.200
407.82	9.220
408.17	9.198
408.53	9.187
408.88	9.197
409.23	9.213
409.58	9.209
409.93	9.211
410.28	9.214
410.63	9.229
410.98	9.249
411.33	9.252
411.68	9.273
412.03	9.260
412.38	9.247
412.73	9.244
413.09	9.196
413.44	9.172
413.79	9.135
414.14	9.115
414.49	9.115
414.84	9.102
415.19	9.070
415.54	9.036
415.89	9.020
416.24	9.011
416.59	8.995
416.94	8.990
417.29	8.975
417.64	8.982
417.99	8.976
418.34	8.957
418.69	8.925
419.04	8.926
419.39	8.934
419.74	8.926
420.09	8.915
420.44	8.902
420.79	8.888
421.14	8.886
421.49	8.877
421.84	8.862
422.19	8.857
422.54	8.880
422.89	8.872
423.24	8.854
423.59	8.853
423.94	8.862
424.29	8.870
424.64	8.880
424.99	8.890
425.34	8.895
425.68	8.911
426.03	8.900
426.38	8.909
426.73	8.911
427.08	8.935
427.43	8.954
427.78	8.943
428.13	8.940
428.48	8.968
428.83	8.971
429.18	8.967
429.53	8.977
429.87	9.005
430.22	8.990
430.57	9.018
430.92	8.988
431.27	8.989
431.62	9.010
431.97	9.017
432.32	8.991
432.67	9.009
433.01	9.036
433.36	9.038
433.71	9.035
434.06	9.039
434.41	9.012
434.76	9.031
435.11	9.034
435.45	9.027
435.80	9.020
436.15	9.041
436.50	9.025
436.85	9.011
437.20	9.011
437.54	9.006
437.89	8.991
438.24	8.997
438.59	8.986
438.94	8.993
439.29	8.997
439.63	8.997
439.98	8.973
440.33	8.979
440.68	8.965
441.03	8.955
441.37	8.969
441.72	8.995
442.07	8.993
442.42	8.992
442.76	8.982
443.11	8.978
443.46	8.977
443.81	8.993
444.16	8.984
444.50	8.993
444.85	8.985
445.20	8.967
445.55	8.961
445.89	8.963
446.24	8.952
446.59	8.945
446.94	8.941
447.28	8.946
447.63	8.942
447.98	8.945
448.32	8.934
448.67	8.949
449.02	8.958
449.37	8.957
449.71	8.953
450.06	8.985
450.41	8.986
450.75	9.001
451.10	9.005
451.45	9.012
451.79	8.994
452.14	8.999
452.49	8.993
452.84	8.984
453.18	8.987
453.53	8.999
453.88	9.002
454.22	9.014
454.57	9.026
454.92	9.049
455.26	9.063
455.61	9.092
455.95	9.121
456.30	9.128
456.65	9.161
456.99	9.164
457.34	9.180
457.69	9.186
458.03	9.206
458.38	9.207
458.73	9.217
459.07	9.216
459.42	9.226
459.76	9.236
460.11	9.270
460.46	9.286
460.80	9.313
461.15	9.344
461.49	9.373
461.84	9.412
462.19	9.458
462.53	9.476
462.88	9.530
463.22	9.563
463.57	9.597
463.91	9.597
464.26	9.616
464.61	9.643
464.95	9.662
465.30	9.687
465.64	9.694
465.99	9.712
466.33	9.734
466.68	9.740
467.02	9.776
467.37	9.785
467.71	9.834
468.06	9.832
468.41	9.848
468.75	9.864
469.10	9.888
469.44	9.900
469.79	9.911
470.13	9.930
470.48	9.952
470.82	9.951
471.17	9.969
471.51	9.960
471.86	9.990
472.20	10.010
472.55	10.008
472.89	10.009
473.23	10.024
473.58	10.012
473.92	10.014
474.27	10.014
474.61	10.013
474.96	10.021
475.30	10.035
475.65	10.024
475.99	9.995
476.34	10.009
476.68	10.008
477.02	9.988
477.37	9.991
477.71	10.002
478.06	10.002
478.40	10.028
478.75	10.069
479.09	10.154
479.43	10.370
479.78	10.641
480.12	10.904
480.47	11.183
480.81	11.483
481.15	11.756
481.50	12.026
481.84	12.355
482.19	12.711
482.53	13.051
482.87	13.312
483.22	13.380
483.56	13.316
483.90	13.156
484.25	12.941
484.59	12.665
484.94	12.373
485.28	12.042
485.62	11.660
485.97	11.247
486.31	10.878
486.65	10.587
487.00	10.402
487.34	10.292
487.68	10.273
488.03	10.280
488.37	10.320
488.71	10.386
489.06	10.463
489.40	10.535
489.74	10.607
490.09	10.679
490.43	10.739
490.77	10.798
491.11	10.869
491.46	10.893
491.80	10.934
492.14	10.954
492.49	10.976
492.83	11.009
493.17	11.042
493.51	11.092
493.86	11.136
494.20	11.212
494.54	11.254
494.88	11.319
495.23	11.385
495.57	11.421
495.91	11.484
496.25	11.529
496.60	11.588
496.94	11.664
497.28	11.741
497.62	11.789
497.97	11.821
498.31	11.901
498.65	11.979
498.99	12.068
499.33	12.161
499.68	12.242
500.02	12.343
500.36	12.425
500.70	12.491
501.04	12.565
501.39	12.650
501.73	12.720
502.07	12.805
502.41	12.853
502.75	12.903
503.09	12.975
503.44	13.048
503.78	13.127
504.12	13.200
504.46	13.270
504.80	13.325
505.14	13.403
505.49	13.470
505.83	13.518
506.17	13.590
506.51	13.672
506.85	13.727
507.19	13.764
507.53	13.805
507.87	13.863
508.22	13.922
508.56	13.991
508.90	14.053
509.24	14.136
509.58	14.217
509.92	14.287
510.26	14.363
510.60	14.442
510.94	14.531
511.28	14.608
511.63	14.677
511.97	14.752
512.31	14.813
512.65	14.882
512.99	14.953
513.33	15.043
513.67	15.110
514.01	15.173
514.35	15.245
514.69	15.326
515.03	15.388
515.37	15.457
515.71	15.532
516.05	15.599
516.39	15.653
516.73	15.703
517.07	15.744
517.41	15.797
517.75	15.834
518.09	15.877
518.43	15.916
518.77	15.959
519.11	16.005
519.45	16.036
519.79	16.085
520.13	16.133
520.47	16.184
520.81	16.245
521.15	16.286
521.49	16.352
521.83	16.398
522.17	16.451
522.51	16.511
522.85	16.566
523.19	16.666
523.53	16.762
523.87	16.909
524.21	17.084
524.55	17.269
524.89	17.475
525.23	17.690
525.57	17.888
525.91	18.095
526.25	18.292
526.58	18.500
526.92	18.661
527.26	18.765
527.60	18.743
527.94	18.586
528.28	18.388
528.62	18.209
528.96	18.078
529.30	17.987
529.64	17.867
529.97	17.740
530.31	17.585
530.65	17.451
530.99	17.384
531.33	17.445
531.67	17.632
532.01	17.858
532.35	18.048
532.68	18.118
533.02	18.135
533.36	18.151
533.70	18.162
534.04	18.182
534.38	18.206
534.71	18.227
535.05	18.242
535.39	18.263
535.73	18.286
536.07	18.314
536.41	18.387
536.74	18.469
537.08	18.542
537.42	18.617
537.76	18.698
538.10	18.772
538.43	18.839
538.77	18.909
539.11	18.979
539.45	19.051
539.79	19.113
540.12	19.148
540.46	19.165
540.80	19.177
541.14	19.193
541.47	19.205
541.81	19.222
542.15	19.228
542.49	19.232
542.82	19.244
543.16	19.240
543.50	19.232
543.84	19.236
544.17	19.267
544.51	19.316
544.85	19.345
545.18	19.362
545.52	19.373
545.86	19.424
546.20	19.463
546.53	19.506
546.87	19.561
547.21	19.623
547.54	19.683
547.88	19.734
548.22	19.783
548.55	19.835
548.89	19.898
549.23	19.973
549.56	20.002
549.90	20.050
550.24	20.085
550.57	20.117
550.91	20.119
551.25	20.139
551.58	20.161
551.92	20.199
552.26	20.254
552.59	20.297
552.93	20.332
553.27	20.380
553.60	20.431
553.94	20.477
554.27	20.486
554.61	20.538
554.95	20.578
555.28	20.620
555.62	20.649
555.95	20.657
556.29	20.691
556.63	20.739
556.96	20.765
557.30	20.785
557.63	20.796
557.97	20.828
558.31	20.847
558.64	20.856
558.98	20.870
559.31	20.880
559.65	20.918
559.98	20.923
560.32	20.921
560.65	20.949
560.99	20.945
561.33	20.971
561.66	20.999
562.00	21.002
562.33	21.035
562.67	21.054
563.00	21.049
563.34	21.051
563.67	21.037
564.01	21.072
564.34	21.052
564.68	21.078
565.01	21.096
565.35	21.106
565.68	21.134
566.02	21.162
566.35	21.179
566.69	21.220
567.02	21.235
567.36	21.278
567.69	21.284
568.03	21.304
568.36	21.325
568.69	21.337
569.03	21.327
569.36	21.335
569.70	21.331
570.03	21.332
570.37	21.317
570.70	21.319
571.04	21.324
571.37	21.310
571.70	21.316
572.04	21.327
572.37	21.342
572.71	21.378
573.04	21.390
573.37	21.412
573.71	21.434
574.04	21.469
574.38	21.478
574.71	21.507
575.04	21.539
575.38	21.577
575.71	21.597
576.05	21.627
576.38	21.658
576.71	21.724
577.05	21.792
577.38	21.866
577.71	21.935
578.05	22.011
578.38	22.039
578.71	22.074
579.05	22.098
579.38	22.103
579.71	22.119
580.05	22.131
580.38	22.135
580.71	22.102
581.05	22.077
581.38	22.050
581.71	22.068
582.05	22.079
582.38	22.071
582.71	22.097
583.04	22.148
583.38	22.138
583.71	22.119
584.04	22.092
584.38	22.099
584.71	22.110
585.04	22.134
585.37	22.110
585.71	22.109
586.04	22.105
586.37	22.082
586.70	22.035
587.04	22.029
587.37	22.041
587.70	22.030
588.03	21.989
588.37	21.939
588.70	21.917
589.03	21.901
589.36	21.879
589.69	21.881
590.03	21.874
590.36	21.878
590.69	21.898
591.02	21.885
591.35	21.899
591.69	21.925
592.02	21.931
592.35	21.899
592.68	21.891
593.01	21.859
593.35	21.828
593.68	21.775
594.01	21.729
594.34	21.675
594.67	21.635
595.00	21.591
595.34	21.560
595.67	21.535
596.00	21.523
596.33	21.507
596.66	21.488
596.99	21.489
597.32	21.515
597.65	21.547
597.99	21.560
598.32	21.556
598.65	21.558
598.98	21.536
599.31	21.526
599.64	21.523
599.97	21.461
600.30	21.430
600.63	21.358
600.96	21.319
601.30	21.251
601.63	21.220
601.96	21.201
602.29	21.176
602.62	21.150
602.95	21.137
603.28	21.090
603.61	21.080
603.94	21.084
604.27	21.099
604.60	21.071
604.93	21.062
605.26	21.019
605.59	21.011
605.92	20.993
606.25	20.962
606.58	20.921
606.91	20.887
607.24	20.882
607.57	20.875
607.90	20.854
608.23	20.838
608.56	20.810
608.89	20.803
609.22	20.761
609.55	20.737
609.88	20.736
610.21	20.730
610.54	20.742
610.87	20.709
611.20	20.669
611.53	20.639
611.86	20.592
612.19	20.565
612.52	20.533
612.85	20.521
613.18	20.490
613.51	20.464
613.84	20.417
614.17	20.382
614.49	20.351
614.82	20.280
615.15	20.259
615.48	20.265
615.81	20.303
616.14	20.290
616.47	20.215
616.80	20.197
617.13	20.171
617.46	20.107
617.78	20.045
618.11	20.030
618.44	20.043
618.77	20.005
619.10	19.943
619.43	19.872
619.76	19.853
620.09	19.863
620.41	19.795
620.74	19.739
621.07	19.719
621.40	19.733
621.73	19.655
622.06	19.593
622.38	19.556
622.71	19.549
623.04	19.495
623.37	19.424
623.70	19.410
624.02	19.386
624.35	19.380
624.68	19.337
625.01	19.241
625.34	19.249
625.66	19.222
625.99	19.174
626.32	19.118
626.65	19.084
626.98	19.047
627.30	19.000
627.63	18.947
627.96	18.899
628.29	18.890
628.61	18.865
628.94	18.832
629.27	18.816
629.60	18.779
629.92	18.768
630.25	18.727
630.58	18.655
630.91	18.618
631.23	18.593
631.56	18.569
631.89	18.546
632.21	18.503
632.54	18.456
632.87	18.417
633.19	18.429
633.52	18.417
633.85	18.371
634.18	18.396
634.50	18.307
634.83	18.308
635.16	18.256
635.48	18.191
635.81	18.174
636.14	18.147
636.46	18.098
636.79	18.024
637.11	17.987
637.44	17.995
637.77	17.962
638.09	17.987
638.42	17.915
638.75	17.899
639.07	17.882
639.40	17.868
639.73	17.829
640.05	17.816
640.38	17.811
640.70	17.704
641.03	17.639
641.36	17.580
641.68	17.545
642.01	17.527
642.33	17.488
642.66	17.461
642.98	17.464
643.31	17.428
643.64	17.356
643.96	17.298
644.29	17.285
644.61	17.294
644.94	17.311
645.26	17.292
645.59	17.234
645.91	17.179
646.24	17.146
646.56	17.093
646.89	16.995
647.22	16.985
647.54	16.956
647.87	16.925
648.19	16.856
648.52	16.774
648.84	16.725
649.17	16.713
649.49	16.698
649.82	16.637
650.14	16.616
650.47	16.674
650.79	16.633
651.11	16.590
651.44	16.561
651.76	16.513
652.09	16.467
652.41	16.419
652.74	16.420
653.06	16.363
653.39	16.351
653.71	16.309
654.04	16.251
654.36	16.146
654.68	16.076
655.01	16.038
655.33	16.018
655.66	15.981
655.98	15.927
656.30	15.894
656.63	15.862
656.95	15.787
657.28	15.744
657.60	15.712
657.92	15.751
658.25	15.761
658.57	15.734
658.90	15.723
659.22	15.680
659.54	15.653
659.87	15.598
660.19	15.542
660.51	15.555
660.84	15.509
661.16	15.482
661.48	15.434
661.81	15.361
662.13	15.358
662.45	15.253
662.78	15.273
663.10	15.198
663.42	15.158
663.75	15.204
664.07	15.186
664.39	15.162
664.72	15.062
665.04	15.053
665.36	15.060
665.69	15.005
666.01	14.977
666.33	14.980
666.65	15.036
666.98	15.015
667.30	14.931
667.62	14.848
667.94	14.846
668.27	14.831
668.59	14.734
668.91	14.701
669.23	14.663
669.56	14.677
669.88	14.575
670.20	14.519
670.52	14.499
670.85	14.514
671.17	14.553
671.49	14.533
671.81	14.502
672.13	14.509
672.46	14.446
672.78	14.420
673.10	14.348
673.42	14.346
673.74	14.346
674.07	14.311
674.39	14.293
674.71	14.287
675.03	14.191
675.35	14.221
675.67	14.177
676.00	14.186
676.32	14.219
676.64	14.210
676.96	14.187
677.28	14.168
677.60	14.158
677.92	14.078
678.25	14.041
678.57	14.068
678.89	14.048
679.21	14.031
679.53	14.043
679.85	13.991
680.17	14.015
680.49	13.975
680.81	13.927
681.13	13.866
681.46	13.877
681.78	13.850
682.10	13.869
682.42	13.817
682.74	13.863
683.06	13.771
683.38	13.722
683.70	13.702
684.02	13.771
684.34	13.805
684.66	13.880
684.98	13.932
685.30	13.945
685.62	13.874
685.94	13.900
686.26	13.869
686.58	13.868
686.90	13.909
687.22	13.912
687.54	13.902
687.86	13.866
688.18	13.811
688.50	13.716
688.82	13.648
689.14	13.666
689.46	13.607
689.78	13.532
690.10	13.518
690.42	13.468
690.74	13.498
691.06	13.362
691.38	13.340
691.70	13.254
692.02	13.219
692.34	13.229
692.66	13.162
692.98	13.122
693.30	13.075
693.62	13.042
693.94	13.017
694.26	12.897
694.57	12.944
694.89	12.933
695.21	12.941
695.53	12.984
695.85	12.942
696.17	12.933
696.49	12.925
696.81	12.989
697.13	13.019
697.44	13.024
697.76	13.014
698.08	12.982
698.40	12.962
698.72	12.944
699.04	12.886
699.36	12.894
699.67	12.848
699.99	12.825
700.31	12.770
700.63	12.610
700.95	12.552
701.27	12.490
701.58	12.429
701.90	12.306
702.22	12.248
702.54	12.205
702.86	12.071
703.17	12.039
703.49	12.071
703.81	11.986
704.13	12.076
704.45	12.026
704.76	12.001
705.08	12.011
705.40	12.053
705.72	12.062
706.03	12.048
706.35	12.043
706.67	12.046
706.99	11.975
707.30	12.016
707.62	11.996
707.94	11.940
708.26	11.970
708.57	11.983
708.89	11.949
709.21	11.908
709.53	11.873
709.84	11.948
710.16	11.934
710.48	11.951
710.79	11.947
711.11	11.879
711.43	11.884
711.74	11.928
712.06	11.872
712.38	11.941
712.69	11.961
713.01	12.015
713.33	11.990
713.64	12.000
713.96	12.052
714.28	12.048
714.59	12.185
714.91	12.189
715.23	12.183
715.54	12.257
715.86	12.277
716.17	12.290
716.49	12.362
716.81	12.419
717.12	12.447
717.44	12.382
717.76	12.358
718.07	12.212
718.39	12.359
718.70	12.319
719.02	12.223
719.33	12.189
719.65	12.209
719.97	12.075
720.28	12.075
720.60	11.949
720.91	11.987
721.23	11.921
721.54	12.003
721.86	11.880
722.17	11.876
722.49	11.872
722.81	11.788
723.12	11.833
723.44	11.878
723.75	11.722
724.07	11.761
724.38	11.670
724.70	11.631
725.01	11.589
725.33	11.607
725.64	11.600
725.96	11.631
726.27	11.675
726.59	11.649
726.90	11.651
727.22	11.735
727.53	11.801
727.84	11.852
728.16	11.925
728.47	11.899
728.79	11.863
729.10	11.852
729.42	11.856
729.73	11.753
730.05	11.636
730.36	11.568
730.67	11.549
730.99	11.473
731.30	11.464
731.62	11.483
731.93	11.458
732.24	11.389
732.56	11.386
732.87	11.339
733.19	11.359
733.50	11.382
733.81	11.322
734.13	11.221
734.44	11.155
734.76	11.090
735.07	10.876
735.38	10.870
735.70	10.967
736.01	10.934
736.32	10.955
736.64	10.792
736.95	10.703
737.26	10.648
737.58	10.754
737.89	10.809
738.20	10.776
738.52	10.938
738.83	10.852
739.14	10.655
739.45	10.551
739.77	10.572
740.08	10.602
740.39	10.674
740.71	10.516
741.02	10.374
741.33	10.358
741.64	10.364
741.96	10.259
742.27	10.241
742.58	10.281
742.90	10.124
743.21	9.879
743.52	10.113
743.83	9.875
744.14	10.022
744.46	9.884
744.77	9.822
745.08	9.691
745.39	9.670
745.71	9.877
746.02	9.725
746.33	9.840
746.64	10.018
746.95	9.800
747.27	9.918
747.58	9.917
747.89	9.974
748.20	9.782
748.51	9.997
748.82	10.077
749.14	9.965
749.45	10.127
749.76	10.024
750.07	9.782
750.38	9.737
750.69	9.736
751.01	9.706
751.32	9.794
751.63	9.965
751.94	9.951
752.25	9.902
752.56	9.961
752.87	10.109
753.18	10.310
753.49	10.418
753.81	10.596
754.12	10.783
754.43	10.834
754.74	10.876
755.05	10.994
755.36	10.866
755.67	11.020
755.98	10.981
756.29	10.888
756.60	10.960
756.91	11.282
757.22	11.315
757.53	11.110
757.84	11.348
758.15	11.484
758.46	11.593
758.77	11.786
759.09	11.833
759.40	11.967
759.71	12.067
760.02	12.088
760.33	12.069
760.64	12.177
760.95	12.309
761.26	12.305
761.57	12.191
761.88	12.216
762.18	12.235
762.49	12.245
762.80	12.134
763.11	12.193
763.42	12.091
763.73	12.055
764.04	11.856
764.35	11.767
764.66	11.618
764.97	11.495
765.28	11.151
765.59	10.774
765.90	10.462
766.21	10.478
766.52	10.213
766.83	10.149
767.14	9.732
767.44	9.558
767.75	9.680
768.06	9.499
768.37	9.653
768.68	9.733
768.99	10.074
769.30	10.257
769.61	9.856
769.91	9.804
770.22	9.799
770.53	9.895
770.84	10.120
771.15	10.016
771.46	10.022
771.77	9.900
772.07	9.715
772.38	9.557
772.69	9.242
773.00	9.449
773.31	9.399
773.61	9.289
773.92	9.320
774.23	8.961
774.54	8.651
774.85	8.773
775.15	8.873
775.46	9.165
775.77	8.806
776.08	8.843
776.39	8.765
776.69	8.747
777.00	8.935
777.31	8.950
777.62	9.067
777.92	9.395
778.23	9.443
778.54	9.164
778.85	8.991
779.15	9.294
779.46	9.466
779.77	9.588
780.07	9.879
780.38	9.965
780.69	9.869
781.00	10.005
781.30	9.775
781.61	9.749
781.92	10.054
782.22	10.298
782.53	10.416
782.84	10.099
783.14	9.965
783.45	9.501
783.76	9.385
784.06	9.491
784.37	9.550
784.68	9.637
784.98	9.523
785.29	9.626
785.60	9.685
785.90	9.826
786.21	9.972
786.51	10.366
786.82	10.746
787.13	10.696
787.43	11.049
787.74	11.358
788.04	11.488
788.35	11.546
788.66	11.504
788.96	11.227
789.27	11.464
789.57	11.610
789.88	11.364
790.19	11.084
790.49	10.989
790.80	10.668
791.10	10.301
791.41	10.235
791.71	10.241
792.02	10.211
792.32	10.663
792.63	10.405
792.93	10.371
793.24	10.456
793.54	10.491
793.85	10.560
794.15	10.509
794.46	10.700
794.76	10.824
795.07	11.284
795.37	11.319
795.68	10.719
795.98	10.630
796.29	10.906
796.59	10.632
796.90	10.695
797.20	10.931
797.51	11.021
797.81	10.917
798.12	10.617
798.42	10.331
798.72	10.108
799.03	10.480
799.33	10.589
799.64	10.451
799.94	10.596
800.25	10.736
800.55	10.517
800.85	10.617
801.16	10.372
801.46	10.624
801.77	10.622
802.07	10.751
802.37	11.124
802.68	11.098
802.98	11.074
803.28	11.558
803.59	11.764
803.89	11.779
804.20	11.515
804.50	12.197
804.80	12.376
805.11	12.586
805.41	12.620
805.71	12.161
806.02	11.664
806.32	11.729
806.62	11.265
806.93	11.058
807.23	11.163
807.53	11.344
807.83	10.910
808.14	10.598
808.44	10.277
808.74	10.076
809.05	10.535
809.35	11.014
809.65	11.109
809.95	11.365
810.26	10.987
810.56	10.788
810.86	11.203
811.16	11.368
811.47	11.235
811.77	11.951
812.07	12.597
812.37	12.837
812.68	12.524
812.98	12.525
813.28	12.346
813.58	12.914
813.88	13.226
814.19	12.810
814.49	12.915
814.79	13.028
815.09	12.157
815.39	11.868
815.70	11.920
816.00	12.657
816.30	12.590
816.60	12.646
816.90	12.692
817.20	12.648
817.50	12.767
817.81	12.818
818.11	12.998
818.41	13.439
818.71	13.597
819.01	13.715
819.31	13.632
819.61	13.689
819.92	13.797
820.22	13.912
820.52	13.963
820.82	13.999
821.12	14.071
821.42	14.050
821.72	14.056
822.02	14.091
822.32	14.017
822.62	13.991
822.92	13.997
823.22	14.074
823.52	14.024
823.83	13.938
824.13	14.020
824.43	13.987
824.73	14.114
825.03	14.080
825.33	13.924
825.63	13.922
825.93	13.952
826.23	13.843
826.53	13.683
826.83	13.634
827.13	13.934
827.43	13.840
827.73	13.873
828.03	13.856
828.33	13.784
828.63	13.713
828.93	13.773
829.23	13.848
829.53	13.907
829.83	13.761
830.13	13.493
830.42	12.963
830.72	12.570
831.02	12.490
831.32	12.346
831.62	12.221
831.92	12.386
832.22	12.637
832.52	12.798
832.82	13.086
833.12	13.256
833.42	13.812
833.72	14.015
834.01	14.259
834.31	14.085
834.61	14.363
834.91	14.381
835.21	14.565
835.51	14.240
835.81	13.922
836.11	13.681
836.40	13.719
836.70	12.984
837.00	12.717
837.30	12.573
837.60	13.165
837.90	12.671
838.19	12.879
838.49	12.539
838.79	12.880
839.09	13.047
839.39	12.759
839.68	12.613
839.98	12.698
840.28	12.179
840.58	11.720
840.88	11.501
841.17	11.746
841.47	11.491
841.77	12.060
842.07	10.966
842.36	10.863
842.66	10.809
842.96	10.573
843.26	10.635
843.55	11.005
843.85	11.099
844.15	10.174
844.45	10.780
844.74	11.564
845.04	11.790
845.34	11.828
845.63	11.428
845.93	12.016
846.23	11.377
846.53	10.780
846.82	11.844
847.12	11.235
847.42	11.948
847.71	11.664
848.01	9.976
848.31	11.273
848.60	11.991
848.90	12.536
849.19	12.583
849.49	11.512
849.79	11.623
850.08	9.746
850.38	11.752
850.68	11.925
850.97	12.111
851.27	13.742
851.56	11.996
851.86	12.099
852.16	12.076
852.45	12.224
852.75	12.328
853.04	12.189
853.34	13.905
853.64	14.757
853.93	14.594
854.23	13.806
854.52	14.063
854.82	14.477
855.11	13.634
855.41	13.256
855.70	12.784
856.00	14.888
856.30	13.599
856.59	13.249
856.89	12.449
857.18	10.479
857.48	10.057
857.77	10.737
858.07	9.948
858.36	11.153
858.66	11.351
858.95	10.168
859.25	9.185
859.54	11.262
859.84	12.788
860.13	12.870
860.42	13.181
860.72	15.074
861.01	14.406
861.31	14.960
861.60	14.568
861.90	15.088
862.19	15.844
862.49	17.260
862.78	17.004
863.07	15.136
863.37	13.634
863.66	15.016
863.96	13.328
864.25	13.111
864.54	13.753
864.84	13.717
865.13	13.742
865.43	14.647
865.72	17.587
866.01	22.366
866.31	13.160
866.60	19.537
866.89	19.011
>>>>>End Spectral Data<<<<<
