OOIBase32 Version 2.0.0.6 Data File
++++++++++++++++++++++++++++++++++++
Date: 01-20-2012, 22:12:33
User: Valued Ocean Optics Customer
Spectrometer Serial Number: USB2E2917
Spectrometer Channel: Master
Integration Time (msec): 4
Spectra Averaged: 10
Boxcar Smoothing: 5
Correct for Electrical Dark: Enabled
Time Normalized: Disabled
Dual-beam Reference: Disabled
Reference Channel: Master
Temperature: Not acquired
Spectrometer Type: S2000
ADC Type: USB2000
Number of Pixels in File: 2048
Graph Title: 
>>>>>Begin Spectral Data<<<<<
180.30	0.000
180.67	0.000
181.03	-13.884
181.40	175.210
181.77	273.134
182.14	21117.333
182.51	60.322
182.88	4.050
183.25	55.863
183.62	50.454
183.99	-704.513
184.36	180.197
184.73	58.141
185.10	24.131
185.46	175.223
185.83	26.703
186.20	146.037
186.57	213.730
186.94	141.509
187.31	-13.640
187.68	75.580
188.05	93.543
188.42	67.778
188.78	47.089
189.15	41.152
189.52	38.118
189.89	29.624
190.26	12.233
190.63	16.814
191.00	11.891
191.37	10.367
191.73	14.064
192.10	4.841
192.47	6.663
192.84	13.908
193.21	26.223
193.58	22.968
193.94	27.433
194.31	33.330
194.68	26.924
195.05	29.365
195.42	24.502
195.79	22.168
196.15	29.928
196.52	27.113
196.89	19.644
197.26	11.881
197.63	7.767
198.00	7.068
198.36	5.467
198.73	9.148
199.10	11.728
199.47	15.757
199.84	13.784
200.20	16.464
200.57	20.570
200.94	20.576
201.31	20.870
201.68	24.195
202.04	25.496
202.41	27.089
202.78	32.144
203.15	33.810
203.51	26.085
203.88	26.409
204.25	20.307
204.62	23.885
204.98	24.394
205.35	25.031
205.72	30.982
206.09	27.645
206.46	24.009
206.82	19.880
207.19	10.037
207.56	18.046
207.92	17.811
208.29	20.918
208.66	19.066
209.03	18.449
209.39	13.995
209.76	-0.797
210.13	5.841
210.50	17.875
210.86	16.277
211.23	21.195
211.60	19.022
211.96	24.489
212.33	25.213
212.70	20.807
213.07	30.906
213.43	33.007
213.80	42.014
214.17	41.341
214.53	36.355
214.90	33.914
215.27	28.461
215.63	32.726
216.00	30.723
216.37	22.179
216.74	21.648
217.10	13.723
217.47	10.483
217.84	0.495
218.20	-3.327
218.57	-6.878
218.94	3.006
219.30	9.948
219.67	4.289
220.04	-2.607
220.40	2.341
220.77	6.476
221.13	11.856
221.50	12.151
221.87	16.589
222.23	17.980
222.60	18.127
222.97	15.340
223.33	10.839
223.70	9.328
224.07	11.859
224.43	10.215
224.80	10.328
225.16	7.774
225.53	8.216
225.90	8.367
226.26	7.756
226.63	7.201
226.99	7.467
227.36	7.814
227.73	8.264
228.09	8.122
228.46	8.521
228.82	7.217
229.19	6.829
229.56	6.185
229.92	5.269
230.29	5.023
230.65	6.018
231.02	5.714
231.38	5.733
231.75	5.720
232.12	5.219
232.48	5.502
232.85	5.782
233.21	7.297
233.58	6.740
233.94	6.979
234.31	6.318
234.68	5.603
235.04	5.335
235.41	4.621
235.77	4.151
236.14	4.692
236.50	4.637
236.87	6.028
237.23	5.501
237.60	6.190
237.96	6.099
238.33	6.668
238.69	6.205
239.06	5.842
239.42	5.845
239.79	6.146
240.15	5.775
240.52	5.656
240.88	5.469
241.25	5.492
241.61	5.349
241.98	5.430
242.34	5.239
242.71	5.263
243.07	5.337
243.44	5.391
243.80	5.089
244.17	5.353
244.53	5.238
244.90	5.232
245.26	5.299
245.63	5.245
245.99	5.283
246.36	5.369
246.72	5.455
247.09	5.629
247.45	5.749
247.81	5.848
248.18	5.784
248.54	5.869
248.91	5.743
249.27	5.885
249.64	5.815
250.00	5.724
250.36	5.586
250.73	5.291
251.09	4.766
251.46	4.482
251.82	4.283
252.19	3.942
252.55	3.885
252.91	3.827
253.28	3.553
253.64	3.651
254.01	4.090
254.37	4.215
254.73	4.502
255.10	4.742
255.46	4.772
255.83	5.154
256.19	5.331
256.55	5.278
256.92	5.333
257.28	5.217
257.65	5.148
258.01	5.124
258.37	5.106
258.74	5.160
259.10	5.174
259.46	5.158
259.83	4.989
260.19	5.008
260.55	4.958
260.92	4.905
261.28	4.976
261.64	5.248
262.01	4.999
262.37	4.913
262.73	4.857
263.10	4.838
263.46	5.162
263.82	5.314
264.19	5.307
264.55	5.416
264.91	5.181
265.28	5.165
265.64	4.938
266.00	4.991
266.37	5.110
266.73	4.897
267.09	4.952
267.46	4.667
267.82	4.648
268.18	4.466
268.54	4.245
268.91	4.418
269.27	4.374
269.63	4.287
270.00	4.220
270.36	4.126
270.72	4.227
271.08	4.283
271.45	4.290
271.81	4.193
272.17	4.432
272.53	4.529
272.90	4.544
273.26	4.653
273.62	4.873
273.98	4.888
274.35	4.781
274.71	4.780
275.07	4.712
275.43	4.651
275.80	4.830
276.16	4.516
276.52	4.496
276.88	4.344
277.25	4.099
277.61	4.025
277.97	4.083
278.33	4.156
278.69	4.156
279.06	4.117
279.42	4.189
279.78	4.001
280.14	3.942
280.50	3.940
280.87	4.055
281.23	4.083
281.59	4.017
281.95	3.904
282.31	3.969
282.68	3.978
283.04	3.945
283.40	3.969
283.76	4.006
284.12	4.074
284.48	4.164
284.85	4.100
285.21	4.080
285.57	4.236
285.93	4.405
286.29	4.399
286.65	4.556
287.02	4.615
287.38	4.538
287.74	4.576
288.10	4.679
288.46	4.674
288.82	4.740
289.18	4.838
289.54	4.651
289.91	4.619
290.27	4.619
290.63	4.571
290.99	4.573
291.35	4.646
291.71	4.692
292.07	4.726
292.43	4.581
292.79	4.665
293.16	4.637
293.52	4.767
293.88	4.858
294.24	4.967
294.60	4.760
294.96	4.822
295.32	4.884
295.68	4.880
296.04	4.842
296.40	4.923
296.76	4.960
297.12	5.016
297.49	5.025
297.85	5.028
298.21	5.010
298.57	5.241
298.93	5.176
299.29	5.232
299.65	5.358
300.01	5.445
300.37	5.495
300.73	5.421
301.09	5.474
301.45	5.443
301.81	5.441
302.17	5.327
302.53	5.209
302.89	5.207
303.25	5.191
303.61	5.236
303.97	5.204
304.33	5.260
304.69	5.290
305.05	5.296
305.41	5.327
305.77	5.266
306.13	5.392
306.49	5.567
306.85	5.590
307.21	5.619
307.57	5.615
307.93	5.664
308.29	5.610
308.65	5.644
309.01	5.610
309.37	5.656
309.73	5.721
310.09	5.775
310.45	5.706
310.81	5.750
311.17	5.732
311.53	5.690
311.89	5.663
312.25	5.811
312.61	5.843
312.96	5.821
313.32	5.769
313.68	5.766
314.04	5.828
314.40	5.804
314.76	5.833
315.12	5.870
315.48	5.926
315.84	5.911
316.20	5.863
316.56	5.856
316.92	5.930
317.27	6.012
317.63	5.995
317.99	6.007
318.35	6.185
318.71	6.245
319.07	6.223
319.43	6.179
319.79	6.261
320.15	6.246
320.50	6.299
320.86	6.364
321.22	6.363
321.58	6.443
321.94	6.376
322.30	6.368
322.66	6.458
323.01	6.525
323.37	6.617
323.73	6.722
324.09	6.794
324.45	6.927
324.81	7.042
325.17	7.149
325.52	7.240
325.88	7.345
326.24	7.362
326.60	7.429
326.96	7.486
327.31	7.511
327.67	7.449
328.03	7.622
328.39	7.618
328.75	7.660
329.11	7.712
329.46	7.699
329.82	7.803
330.18	7.913
330.54	7.919
330.90	8.009
331.25	8.176
331.61	8.303
331.97	8.249
332.33	8.298
332.68	8.354
333.04	8.402
333.40	8.421
333.76	8.447
334.11	8.424
334.47	8.493
334.83	8.511
335.19	8.418
335.54	8.475
335.90	8.562
336.26	8.594
336.62	8.498
336.97	8.483
337.33	8.562
337.69	8.429
338.05	8.470
338.40	8.372
338.76	8.333
339.12	8.384
339.48	8.407
339.83	8.298
340.19	8.302
340.55	8.354
340.90	8.397
341.26	8.363
341.62	8.439
341.97	8.462
342.33	8.541
342.69	8.547
343.04	8.489
343.40	8.417
343.76	8.426
344.12	8.316
344.47	8.402
344.83	8.357
345.19	8.353
345.54	8.351
345.90	8.355
346.26	8.342
346.61	8.332
346.97	8.401
347.32	8.443
347.68	8.402
348.04	8.526
348.39	8.463
348.75	8.522
349.11	8.584
349.46	8.582
349.82	8.534
350.18	8.562
350.53	8.661
350.89	8.661
351.24	8.675
351.60	8.773
351.96	8.734
352.31	8.764
352.67	8.825
353.02	8.789
353.38	8.756
353.74	8.752
354.09	8.697
354.45	8.662
354.80	8.630
355.16	8.589
355.52	8.593
355.87	8.619
356.23	8.590
356.58	8.509
356.94	8.470
357.29	8.537
357.65	8.531
358.00	8.513
358.36	8.467
358.72	8.488
359.07	8.529
359.43	8.572
359.78	8.543
360.14	8.523
360.49	8.492
360.85	8.572
361.20	8.600
361.56	8.649
361.91	8.677
362.27	8.719
362.62	8.712
362.98	8.736
363.33	8.698
363.69	8.756
364.04	8.823
364.40	8.852
364.75	8.823
365.11	8.816
365.46	8.847
365.82	8.874
366.17	8.868
366.53	8.916
366.88	8.879
367.24	8.919
367.59	8.939
367.95	8.990
368.30	9.030
368.66	9.095
369.01	9.076
369.37	9.053
369.72	9.070
370.08	9.131
370.43	9.156
370.78	9.208
371.14	9.222
371.49	9.205
371.85	9.153
372.20	9.174
372.56	9.163
372.91	9.200
373.26	9.258
373.62	9.288
373.97	9.300
374.33	9.323
374.68	9.373
375.03	9.426
375.39	9.462
375.74	9.468
376.10	9.502
376.45	9.536
376.80	9.565
377.16	9.569
377.51	9.613
377.87	9.673
378.22	9.701
378.57	9.697
378.93	9.713
379.28	9.772
379.63	9.892
379.99	9.928
380.34	9.986
380.70	10.063
381.05	10.109
381.40	10.163
381.76	10.191
382.11	10.254
382.46	10.278
382.82	10.339
383.17	10.342
383.52	10.386
383.88	10.483
384.23	10.509
384.58	10.527
384.94	10.570
385.29	10.612
385.64	10.640
385.99	10.673
386.35	10.761
386.70	10.816
387.05	10.899
387.41	10.903
387.76	10.880
388.11	10.907
388.47	10.970
388.82	11.025
389.17	11.045
389.52	11.092
389.88	11.109
390.23	11.131
390.58	11.144
390.93	11.174
391.29	11.194
391.64	11.243
391.99	11.298
392.34	11.300
392.70	11.324
393.05	11.326
393.40	11.372
393.75	11.438
394.11	11.470
394.46	11.492
394.81	11.505
395.16	11.539
395.52	11.574
395.87	11.587
396.22	11.608
396.57	11.624
396.92	11.662
397.28	11.643
397.63	11.629
397.98	11.616
398.33	11.654
398.68	11.666
399.04	11.693
399.39	11.710
399.74	11.731
400.09	11.750
400.44	11.746
400.80	11.752
401.15	11.742
401.50	11.732
401.85	11.738
402.20	11.704
402.55	11.723
402.90	11.729
403.26	11.710
403.61	11.696
403.96	11.728
404.31	11.735
404.66	11.736
405.01	11.757
405.36	11.774
405.72	11.802
406.07	11.820
406.42	11.817
406.77	11.799
407.12	11.785
407.47	11.812
407.82	11.784
408.17	11.789
408.53	11.802
408.88	11.803
409.23	11.804
409.58	11.799
409.93	11.785
410.28	11.757
410.63	11.763
410.98	11.731
411.33	11.682
411.68	11.675
412.03	11.637
412.38	11.615
412.73	11.578
413.09	11.501
413.44	11.422
413.79	11.345
414.14	11.321
414.49	11.275
414.84	11.271
415.19	11.217
415.54	11.146
415.89	11.091
416.24	11.033
416.59	10.974
416.94	10.933
417.29	10.905
417.64	10.877
417.99	10.823
418.34	10.781
418.69	10.728
419.04	10.682
419.39	10.662
419.74	10.629
420.09	10.587
420.44	10.561
420.79	10.523
421.14	10.483
421.49	10.442
421.84	10.406
422.19	10.359
422.54	10.358
422.89	10.347
423.24	10.322
423.59	10.317
423.94	10.315
424.29	10.315
424.64	10.333
424.99	10.339
425.34	10.343
425.68	10.352
426.03	10.367
426.38	10.336
426.73	10.336
427.08	10.346
427.43	10.313
427.78	10.292
428.13	10.261
428.48	10.246
428.83	10.227
429.18	10.251
429.53	10.250
429.87	10.270
430.22	10.261
430.57	10.263
430.92	10.236
431.27	10.257
431.62	10.264
431.97	10.276
432.32	10.276
432.67	10.285
433.01	10.280
433.36	10.302
433.71	10.290
434.06	10.291
434.41	10.276
434.76	10.285
435.11	10.275
435.45	10.265
435.80	10.248
436.15	10.243
436.50	10.247
436.85	10.254
437.20	10.226
437.54	10.197
437.89	10.192
438.24	10.177
438.59	10.155
438.94	10.147
439.29	10.146
439.63	10.138
439.98	10.099
440.33	10.057
440.68	10.006
441.03	9.982
441.37	9.970
441.72	9.932
442.07	9.915
442.42	9.860
442.76	9.831
443.11	9.799
443.46	9.768
443.81	9.762
444.16	9.747
444.50	9.722
444.85	9.685
445.20	9.651
445.55	9.631
445.89	9.594
446.24	9.584
446.59	9.546
446.94	9.505
447.28	9.496
447.63	9.464
447.98	9.431
448.32	9.419
448.67	9.412
449.02	9.401
449.37	9.392
449.71	9.374
450.06	9.393
450.41	9.389
450.75	9.384
451.10	9.364
451.45	9.362
451.79	9.338
452.14	9.337
452.49	9.321
452.84	9.319
453.18	9.325
453.53	9.345
453.88	9.308
454.22	9.308
454.57	9.333
454.92	9.337
455.26	9.334
455.61	9.361
455.95	9.372
456.30	9.397
456.65	9.416
456.99	9.419
457.34	9.428
457.69	9.459
458.03	9.482
458.38	9.514
458.73	9.543
459.07	9.570
459.42	9.603
459.76	9.631
460.11	9.677
460.46	9.707
460.80	9.753
461.15	9.804
461.49	9.866
461.84	9.915
462.19	9.950
462.53	10.002
462.88	10.066
463.22	10.117
463.57	10.174
463.91	10.194
464.26	10.266
464.61	10.305
464.95	10.363
465.30	10.407
465.64	10.458
465.99	10.507
466.33	10.562
466.68	10.600
467.02	10.646
467.37	10.667
467.71	10.731
468.06	10.750
468.41	10.783
468.75	10.787
469.10	10.813
469.44	10.824
469.79	10.843
470.13	10.859
470.48	10.878
470.82	10.872
471.17	10.888
471.51	10.873
471.86	10.868
472.20	10.877
472.55	10.894
472.89	10.891
473.23	10.877
473.58	10.847
473.92	10.825
474.27	10.797
474.61	10.786
474.96	10.764
475.30	10.761
475.65	10.759
475.99	10.721
476.34	10.689
476.68	10.648
477.02	10.624
477.37	10.600
477.71	10.566
478.06	10.559
478.40	10.546
478.75	10.571
479.09	10.633
479.43	10.796
479.78	11.046
480.12	11.321
480.47	11.588
480.81	11.866
481.15	12.150
481.50	12.429
481.84	12.750
482.19	13.106
482.53	13.452
482.87	13.714
483.22	13.800
483.56	13.737
483.90	13.562
484.25	13.350
484.59	13.096
484.94	12.791
485.28	12.458
485.62	12.079
485.97	11.676
486.31	11.304
486.65	11.015
487.00	10.838
487.34	10.753
487.68	10.760
488.03	10.795
488.37	10.844
488.71	10.932
489.06	11.032
489.40	11.144
489.74	11.255
490.09	11.367
490.43	11.468
490.77	11.572
491.11	11.681
491.46	11.758
491.80	11.849
492.14	11.945
492.49	12.040
492.83	12.168
493.17	12.294
493.51	12.440
493.86	12.583
494.20	12.763
494.54	12.929
494.88	13.084
495.23	13.241
495.57	13.386
495.91	13.537
496.25	13.719
496.60	13.872
496.94	14.068
497.28	14.254
497.62	14.463
497.97	14.669
498.31	14.890
498.65	15.155
498.99	15.435
499.33	15.716
499.68	16.027
500.02	16.314
500.36	16.635
500.70	16.924
501.04	17.236
501.39	17.560
501.73	17.862
502.07	18.201
502.41	18.514
502.75	18.853
503.09	19.198
503.44	19.537
503.78	19.914
504.12	20.298
504.46	20.683
504.80	21.058
505.14	21.423
505.49	21.809
505.83	22.195
506.17	22.581
506.51	22.956
506.85	23.353
507.19	23.719
507.53	24.077
507.87	24.435
508.22	24.825
508.56	25.208
508.90	25.611
509.24	26.011
509.58	26.403
509.92	26.804
510.26	27.230
510.60	27.630
510.94	28.062
511.28	28.491
511.63	28.912
511.97	29.340
512.31	29.785
512.65	30.247
512.99	30.721
513.33	31.244
513.67	31.725
514.01	32.189
514.35	32.638
514.69	33.090
515.03	33.520
515.37	33.935
515.71	34.272
516.05	34.614
516.39	34.945
516.73	35.261
517.07	35.505
517.41	35.787
517.75	36.059
518.09	36.336
518.43	36.616
518.77	36.869
519.11	37.158
519.45	37.483
519.79	37.798
520.13	38.106
520.47	38.443
520.81	38.832
521.15	39.186
521.49	39.541
521.83	39.917
522.17	40.223
522.51	40.532
522.85	40.833
523.19	41.224
523.53	41.691
523.87	42.214
524.21	42.751
524.55	43.329
524.89	43.890
525.23	44.485
525.57	45.033
525.91	45.607
526.25	46.159
526.58	46.708
526.92	47.148
527.26	47.409
527.60	47.350
527.94	46.992
528.28	46.544
528.62	46.159
528.96	45.923
529.30	45.739
529.64	45.486
529.97	45.216
530.31	44.905
530.65	44.610
530.99	44.512
531.33	44.754
531.67	45.302
532.01	45.907
532.35	46.394
532.68	46.569
533.02	46.656
533.36	46.735
533.70	46.816
534.04	46.860
534.38	46.940
534.71	46.950
535.05	46.958
535.39	47.005
535.73	47.073
536.07	47.164
536.41	47.309
536.74	47.448
537.08	47.592
537.42	47.766
537.76	47.938
538.10	48.112
538.43	48.273
538.77	48.483
539.11	48.620
539.45	48.777
539.79	48.890
540.12	48.960
540.46	48.997
540.80	49.010
541.14	49.015
541.47	49.013
541.81	48.998
542.15	49.004
542.49	48.953
542.82	48.919
543.16	48.822
543.50	48.750
543.84	48.724
544.17	48.744
544.51	48.769
544.85	48.753
545.18	48.787
545.52	48.831
545.86	48.892
546.20	48.918
546.53	48.983
546.87	49.042
547.21	49.138
547.54	49.200
547.88	49.221
548.22	49.308
548.55	49.350
548.89	49.425
549.23	49.450
549.56	49.421
549.90	49.429
550.24	49.457
550.57	49.464
550.91	49.451
551.25	49.434
551.58	49.437
551.92	49.422
552.26	49.478
552.59	49.466
552.93	49.501
553.27	49.547
553.60	49.591
553.94	49.630
554.27	49.640
554.61	49.689
554.95	49.726
555.28	49.778
555.62	49.813
555.95	49.806
556.29	49.842
556.63	49.855
556.96	49.906
557.30	49.924
557.63	49.888
557.97	49.905
558.31	49.889
558.64	49.870
558.98	49.828
559.31	49.791
559.65	49.774
559.98	49.716
560.32	49.752
560.65	49.699
560.99	49.640
561.33	49.634
561.66	49.630
562.00	49.550
562.33	49.505
562.67	49.481
563.00	49.454
563.34	49.429
563.67	49.437
564.01	49.351
564.34	49.316
564.68	49.302
565.01	49.257
565.35	49.215
565.68	49.264
566.02	49.241
566.35	49.185
566.69	49.168
567.02	49.158
567.36	49.067
567.69	49.042
568.03	48.986
568.36	48.948
568.69	48.893
569.03	48.846
569.36	48.772
569.70	48.739
570.03	48.727
570.37	48.641
570.70	48.574
571.04	48.565
571.37	48.474
571.70	48.483
572.04	48.457
572.37	48.450
572.71	48.439
573.04	48.389
573.37	48.367
573.71	48.351
574.04	48.372
574.38	48.369
574.71	48.358
575.04	48.385
575.38	48.360
575.71	48.318
576.05	48.296
576.38	48.277
576.71	48.308
577.05	48.340
577.38	48.313
577.71	48.329
578.05	48.288
578.38	48.241
578.71	48.218
579.05	48.151
579.38	48.132
579.71	48.094
580.05	48.006
580.38	47.964
580.71	47.888
581.05	47.846
581.38	47.782
581.71	47.714
582.05	47.646
582.38	47.576
582.71	47.535
583.04	47.493
583.38	47.447
583.71	47.422
584.04	47.302
584.38	47.227
584.71	47.168
585.04	46.999
585.37	46.976
585.71	46.896
586.04	46.827
586.37	46.767
586.70	46.644
587.04	46.537
587.37	46.450
587.70	46.373
588.03	46.277
588.37	46.183
588.70	46.115
589.03	46.009
589.36	45.924
589.69	45.832
590.03	45.720
590.36	45.642
590.69	45.551
591.02	45.480
591.35	45.384
591.69	45.317
592.02	45.200
592.35	45.141
592.68	45.011
593.01	44.935
593.35	44.805
593.68	44.687
594.01	44.587
594.34	44.483
594.67	44.361
595.00	44.296
595.34	44.171
595.67	44.115
596.00	44.028
596.33	43.988
596.66	43.912
596.99	43.874
597.32	43.832
597.65	43.815
597.99	43.746
598.32	43.668
598.65	43.573
598.98	43.487
599.31	43.321
599.64	43.230
599.97	43.057
600.30	42.917
600.63	42.797
600.96	42.631
601.30	42.479
601.63	42.359
601.96	42.249
602.29	42.152
602.62	42.058
602.95	41.974
603.28	41.887
603.61	41.845
603.94	41.795
604.27	41.712
604.60	41.654
604.93	41.527
605.26	41.447
605.59	41.368
605.92	41.301
606.25	41.173
606.58	41.086
606.91	40.954
607.24	40.877
607.57	40.776
607.90	40.699
608.23	40.638
608.56	40.609
608.89	40.583
609.22	40.511
609.55	40.457
609.88	40.423
610.21	40.401
610.54	40.422
610.87	40.328
611.20	40.270
611.53	40.209
611.86	40.117
612.19	40.046
612.52	39.984
612.85	39.903
613.18	39.790
613.51	39.749
613.84	39.616
614.17	39.469
614.49	39.421
614.82	39.315
615.15	39.202
615.48	39.139
615.81	39.037
616.14	38.916
616.47	38.834
616.80	38.727
617.13	38.613
617.46	38.555
617.78	38.485
618.11	38.370
618.44	38.250
618.77	38.205
619.10	38.109
619.43	38.059
619.76	37.993
620.09	37.894
620.41	37.780
620.74	37.675
621.07	37.570
621.40	37.468
621.73	37.356
622.06	37.309
622.38	37.192
622.71	37.095
623.04	36.941
623.37	36.813
623.70	36.748
624.02	36.626
624.35	36.560
624.68	36.525
625.01	36.400
625.34	36.306
625.66	36.209
625.99	36.079
626.32	35.986
626.65	35.931
626.98	35.857
627.30	35.776
627.63	35.719
627.96	35.677
628.29	35.532
628.61	35.504
628.94	35.463
629.27	35.376
629.60	35.379
629.92	35.306
630.25	35.213
630.58	35.092
630.91	34.972
631.23	34.930
631.56	34.833
631.89	34.794
632.21	34.701
632.54	34.608
632.87	34.525
633.19	34.403
633.52	34.390
633.85	34.377
634.18	34.344
634.50	34.267
634.83	34.237
635.16	34.170
635.48	34.092
635.81	34.046
636.14	34.008
636.46	34.039
636.79	33.966
637.11	33.885
637.44	33.808
637.77	33.748
638.09	33.778
638.42	33.687
638.75	33.636
639.07	33.624
639.40	33.546
639.73	33.456
640.05	33.363
640.38	33.310
640.70	33.180
641.03	33.109
641.36	33.060
641.68	32.997
642.01	32.888
642.33	32.769
642.66	32.640
642.98	32.609
643.31	32.546
643.64	32.445
643.96	32.402
644.29	32.391
644.61	32.296
644.94	32.241
645.26	32.164
645.59	32.126
645.91	32.090
646.24	31.985
646.56	31.974
646.89	31.892
647.22	31.833
647.54	31.735
647.87	31.633
648.19	31.553
648.52	31.455
648.84	31.349
649.17	31.287
649.49	31.177
649.82	31.168
650.14	31.029
650.47	31.013
650.79	30.958
651.11	30.917
651.44	30.879
651.76	30.809
652.09	30.774
652.41	30.763
652.74	30.703
653.06	30.672
653.39	30.561
653.71	30.511
654.04	30.378
654.36	30.253
654.68	30.184
655.01	30.120
655.33	30.036
655.66	29.914
655.98	29.782
656.30	29.712
656.63	29.602
656.95	29.559
657.28	29.501
657.60	29.513
657.92	29.478
658.25	29.427
658.57	29.365
658.90	29.360
659.22	29.335
659.54	29.290
659.87	29.234
660.19	29.250
660.51	29.265
660.84	29.232
661.16	29.114
661.48	29.113
661.81	29.046
662.13	29.012
662.45	28.955
662.78	28.893
663.10	28.836
663.42	28.780
663.75	28.725
664.07	28.575
664.39	28.489
664.72	28.410
665.04	28.332
665.36	28.347
665.69	28.261
666.01	28.205
666.33	28.266
666.65	28.281
666.98	28.250
667.30	28.154
667.62	28.056
667.94	28.025
668.27	28.039
668.59	27.944
668.91	27.809
669.23	27.788
669.56	27.824
669.88	27.714
670.20	27.664
670.52	27.649
670.85	27.607
671.17	27.652
671.49	27.554
671.81	27.542
672.13	27.537
672.46	27.582
672.78	27.526
673.10	27.471
673.42	27.396
673.74	27.379
674.07	27.268
674.39	27.237
674.71	27.267
675.03	27.246
675.35	27.151
675.67	27.054
676.00	26.905
676.32	26.877
676.64	26.793
676.96	26.757
677.28	26.712
677.60	26.708
677.92	26.664
678.25	26.560
678.57	26.534
678.89	26.501
679.21	26.510
679.53	26.541
679.85	26.513
680.17	26.492
680.49	26.471
680.81	26.413
681.13	26.360
681.46	26.350
681.78	26.371
682.10	26.318
682.42	26.197
682.74	26.179
683.06	26.076
683.38	26.032
683.70	26.055
684.02	25.992
684.34	25.884
684.66	25.897
684.98	25.882
685.30	25.815
685.62	25.821
685.94	25.916
686.26	25.797
686.58	25.802
686.90	25.755
687.22	25.624
687.54	25.635
687.86	25.697
688.18	25.673
688.50	25.602
688.82	25.577
689.14	25.567
689.46	25.503
689.78	25.574
690.10	25.549
690.42	25.593
690.74	25.622
691.06	25.572
691.38	25.496
691.70	25.431
692.02	25.416
692.34	25.415
692.66	25.373
692.98	25.281
693.30	25.146
693.62	25.061
693.94	24.936
694.26	24.845
694.57	24.790
694.89	24.787
695.21	24.718
695.53	24.681
695.85	24.620
696.17	24.547
696.49	24.555
696.81	24.540
697.13	24.592
697.44	24.563
697.76	24.526
698.08	24.523
698.40	24.530
698.72	24.530
699.04	24.490
699.36	24.498
699.67	24.442
699.99	24.402
700.31	24.364
700.63	24.179
700.95	24.104
701.27	24.052
701.58	24.004
701.90	23.896
702.22	23.874
702.54	23.752
702.86	23.612
703.17	23.630
703.49	23.589
703.81	23.594
704.13	23.737
704.45	23.717
704.76	23.676
705.08	23.614
705.40	23.561
705.72	23.445
706.03	23.475
706.35	23.518
706.67	23.447
706.99	23.415
707.30	23.397
707.62	23.264
707.94	23.282
708.26	23.332
708.57	23.255
708.89	23.243
709.21	23.189
709.53	23.127
709.84	23.046
710.16	23.039
710.48	23.101
710.79	23.088
711.11	23.072
711.43	22.968
711.74	22.980
712.06	23.060
712.38	23.053
712.69	23.099
713.01	23.152
713.33	23.156
713.64	23.156
713.96	23.099
714.28	23.107
714.59	23.223
714.91	23.337
715.23	23.279
715.54	23.265
715.86	23.318
716.17	23.319
716.49	23.373
716.81	23.420
717.12	23.399
717.44	23.232
717.76	23.070
718.07	22.916
718.39	22.916
718.70	22.893
719.02	22.894
719.33	22.831
719.65	22.760
719.97	22.708
720.28	22.686
720.60	22.540
720.91	22.660
721.23	22.596
721.54	22.572
721.86	22.390
722.17	22.395
722.49	22.322
722.81	22.110
723.12	22.078
723.44	22.010
723.75	21.891
724.07	21.971
724.38	21.926
724.70	22.048
725.01	22.089
725.33	22.118
725.64	21.991
725.96	21.847
726.27	21.996
726.59	22.074
726.90	22.022
727.22	22.106
727.53	22.072
727.84	22.096
728.16	22.086
728.47	22.060
728.79	22.025
729.10	22.189
729.42	22.326
729.73	22.156
730.05	22.069
730.36	22.001
730.67	21.823
730.99	21.770
731.30	21.845
731.62	21.785
731.93	21.702
732.24	21.694
732.56	21.535
732.87	21.407
733.19	21.489
733.50	21.538
733.81	21.551
734.13	21.574
734.44	21.591
734.76	21.382
735.07	21.220
735.38	21.202
735.70	21.154
736.01	21.060
736.32	20.985
736.64	20.998
736.95	20.862
737.26	20.812
737.58	20.774
737.89	20.773
738.20	20.764
738.52	20.996
738.83	20.963
739.14	20.893
739.45	20.915
739.77	21.040
740.08	20.854
740.39	20.910
740.71	20.820
741.02	20.748
741.33	20.629
741.64	20.503
741.96	20.338
742.27	20.328
742.58	20.363
742.90	20.270
743.21	19.904
743.52	20.007
743.83	19.774
744.14	19.687
744.46	19.498
744.77	19.509
745.08	19.586
745.39	19.583
745.71	19.703
746.02	19.593
746.33	19.657
746.64	19.841
746.95	19.645
747.27	19.785
747.58	19.812
747.89	20.029
748.20	20.003
748.51	20.038
748.82	20.051
749.14	19.797
749.45	19.864
749.76	19.716
750.07	19.580
750.38	19.637
750.69	19.672
751.01	19.885
751.32	20.034
751.63	20.100
751.94	20.052
752.25	20.071
752.56	20.131
752.87	20.180
753.18	20.225
753.49	20.285
753.81	20.276
754.12	20.043
754.43	20.079
754.74	19.785
755.05	19.798
755.36	19.749
755.67	19.749
755.98	19.797
756.29	19.900
756.60	20.014
756.91	20.102
757.22	20.112
757.53	20.180
757.84	20.125
758.15	20.415
758.46	20.448
758.77	20.528
759.09	20.686
759.40	20.738
759.71	20.809
760.02	20.867
760.33	20.936
760.64	21.014
760.95	21.206
761.26	21.275
761.57	21.139
761.88	21.220
762.18	21.147
762.49	21.104
762.80	20.989
763.11	20.844
763.42	20.694
763.73	20.597
764.04	20.552
764.35	20.448
764.66	20.305
764.97	20.305
765.28	20.040
765.59	19.884
765.90	19.641
766.21	19.601
766.52	19.463
766.83	19.405
767.14	19.302
767.44	19.233
767.75	19.104
768.06	18.857
768.37	18.793
768.68	18.776
768.99	19.017
769.30	19.063
769.61	19.032
769.91	19.252
770.22	19.398
770.53	19.627
770.84	19.654
771.15	19.699
771.46	19.822
771.77	19.598
772.07	19.397
772.38	19.203
772.69	19.071
773.00	19.122
773.31	18.843
773.61	18.658
773.92	18.310
774.23	18.096
774.54	17.683
774.85	17.592
775.15	17.700
775.46	17.817
775.77	17.541
776.08	17.345
776.39	17.093
776.69	17.032
777.00	17.212
777.31	17.459
777.62	17.511
777.92	17.875
778.23	18.049
778.54	17.840
778.85	17.834
779.15	17.996
779.46	18.100
779.77	18.246
780.07	18.504
780.38	18.181
780.69	17.893
781.00	17.892
781.30	17.779
781.61	17.672
781.92	17.928
782.22	18.016
782.53	18.352
782.84	18.549
783.14	18.737
783.45	18.581
783.76	18.527
784.06	18.594
784.37	18.767
784.68	18.854
784.98	18.825
785.29	19.188
785.60	19.384
785.90	19.300
786.21	19.065
786.51	18.948
786.82	18.841
787.13	19.152
787.43	19.478
787.74	19.557
788.04	19.557
788.35	19.660
788.66	19.397
788.96	19.148
789.27	19.388
789.57	19.431
789.88	19.502
790.19	19.433
790.49	19.302
790.80	18.949
791.10	18.758
791.41	18.689
791.71	18.763
792.02	18.625
792.32	18.758
792.63	18.160
792.93	18.642
793.24	18.555
793.54	18.677
793.85	18.389
794.15	18.440
794.46	18.377
794.76	18.211
795.07	18.277
795.37	18.300
795.68	18.338
795.98	18.757
796.29	18.411
796.59	18.275
796.90	18.233
797.20	18.475
797.51	18.319
797.81	18.434
798.12	18.358
798.42	18.451
798.72	18.405
799.03	18.588
799.33	18.584
799.64	18.777
799.94	18.913
800.25	18.931
800.55	19.061
800.85	19.267
801.16	18.914
801.46	19.621
801.77	19.449
802.07	19.698
802.37	19.624
802.68	19.625
802.98	19.424
803.28	19.541
803.59	19.711
803.89	19.467
804.20	19.550
804.50	20.026
804.80	19.607
805.11	19.666
805.41	19.564
805.71	19.040
806.02	18.673
806.32	18.982
806.62	18.681
806.93	18.556
807.23	18.435
807.53	18.261
807.83	18.486
808.14	18.135
808.44	17.834
808.74	17.647
809.05	18.082
809.35	18.632
809.65	18.125
809.95	18.707
810.26	18.674
810.56	18.758
810.86	19.184
811.16	19.128
811.47	19.452
811.77	20.177
812.07	20.702
812.37	21.079
812.68	20.863
812.98	21.470
813.28	20.748
813.58	21.043
813.88	21.223
814.19	20.827
814.49	20.081
814.79	20.170
815.09	19.715
815.39	19.406
815.70	19.129
816.00	18.973
816.30	18.832
816.60	19.514
816.90	19.694
817.20	19.815
817.50	20.162
817.81	20.244
818.11	20.312
818.41	20.398
818.71	20.480
819.01	20.679
819.31	20.784
819.61	20.751
819.92	20.744
820.22	20.801
820.52	20.798
820.82	20.732
821.12	20.779
821.42	20.777
821.72	20.757
822.02	20.840
822.32	20.781
822.62	20.764
822.92	20.762
823.22	20.830
823.52	20.697
823.83	20.772
824.13	20.834
824.43	20.946
824.73	20.998
825.03	21.018
825.33	20.765
825.63	20.738
825.93	20.672
826.23	20.670
826.53	20.526
826.83	20.580
827.13	20.562
827.43	20.396
827.73	20.304
828.03	20.189
828.33	20.229
828.63	20.202
828.93	20.278
829.23	20.297
829.53	20.017
829.83	19.844
830.13	19.884
830.42	19.630
830.72	19.505
831.02	19.401
831.32	19.496
831.62	19.261
831.92	19.481
832.22	19.363
832.52	19.431
832.82	19.638
833.12	19.751
833.42	19.755
833.72	19.488
834.01	19.700
834.31	19.641
834.61	19.783
834.91	20.053
835.21	20.011
835.51	20.061
835.81	19.734
836.11	19.980
836.40	19.961
836.70	20.072
837.00	20.251
837.30	20.240
837.60	20.454
837.90	20.375
838.19	19.969
838.49	19.598
838.79	19.639
839.09	20.070
839.39	19.554
839.68	19.553
839.98	19.305
840.28	19.060
840.58	18.087
840.88	17.845
841.17	17.631
841.47	16.981
841.77	16.740
842.07	15.955
842.36	15.842
842.66	15.939
842.96	16.204
843.26	16.556
843.55	16.499
843.85	17.874
844.15	17.403
844.45	16.244
844.74	17.032
845.04	17.855
845.34	19.032
845.63	19.946
845.93	19.447
846.23	17.404
846.53	15.804
846.82	16.379
847.12	16.644
847.42	17.639
847.71	19.012
848.01	19.489
848.31	19.490
848.60	18.601
848.90	17.578
849.19	18.004
849.49	19.689
849.79	20.230
850.08	21.725
850.38	21.426
850.68	21.337
850.97	21.908
851.27	21.127
851.56	21.391
851.86	21.329
852.16	22.865
852.45	22.445
852.75	22.030
853.04	21.657
853.34	20.040
853.64	21.183
853.93	20.070
854.23	17.787
854.52	19.529
854.82	20.025
855.11	20.241
855.41	18.727
855.70	19.309
856.00	19.886
856.30	19.460
856.59	19.979
856.89	20.478
857.18	19.948
857.48	21.354
857.77	20.774
858.07	19.981
858.36	21.376
858.66	20.873
858.95	20.826
859.25	19.753
859.54	20.913
859.84	21.168
860.13	19.374
860.42	20.731
860.72	22.312
861.01	21.832
861.31	21.380
861.60	19.233
861.90	19.755
862.19	19.871
862.49	20.723
862.78	20.775
863.07	19.465
863.37	19.343
863.66	19.511
863.96	17.460
864.25	17.954
864.54	19.306
864.84	19.311
865.13	18.296
865.43	17.028
865.72	26.885
866.01	26.620
866.31	12.743
866.60	9.663
866.89	6.204
>>>>>End Spectral Data<<<<<
