OOIBase32 Version 2.0.0.6 Data File
++++++++++++++++++++++++++++++++++++
Date: 01-23-2012, 22:10:29
User: Valued Ocean Optics Customer
Spectrometer Serial Number: USB2E2917
Spectrometer Channel: Master
Integration Time (msec): 5
Spectra Averaged: 10
Boxcar Smoothing: 5
Correct for Electrical Dark: Enabled
Time Normalized: Disabled
Dual-beam Reference: Disabled
Reference Channel: Master
Temperature: Not acquired
Spectrometer Type: S2000
ADC Type: USB2000
Number of Pixels in File: 2048
Graph Title: 
>>>>>Begin Spectral Data<<<<<
180.30	0.000
180.67	0.000
181.03	238.710
181.40	-246.546
181.77	15347.000
182.14	-255.251
182.51	22.386
182.88	-8110.434
183.25	188.414
183.62	-20.658
183.99	12.140
184.36	-130.098
184.73	245.289
185.10	18.999
185.46	156.800
185.83	138.965
186.20	-41.920
186.57	667.745
186.94	27.425
187.31	200.290
187.68	-93.402
188.05	7.375
188.42	8.063
188.78	26.207
189.15	36.858
189.52	47.699
189.89	36.999
190.26	45.523
190.63	35.832
191.00	35.110
191.37	42.879
191.73	51.981
192.10	44.471
192.47	37.218
192.84	34.048
193.21	27.363
193.58	31.732
193.94	32.099
194.31	23.323
194.68	34.341
195.05	29.013
195.42	16.847
195.79	12.224
196.15	15.579
196.52	14.499
196.89	2.463
197.26	3.655
197.63	-16.698
198.00	-21.634
198.36	-18.146
198.73	-29.645
199.10	-22.409
199.47	-11.768
199.84	-17.736
200.20	-11.248
200.57	-28.633
200.94	-18.017
201.31	-28.411
201.68	-0.704
202.04	7.708
202.41	19.981
202.78	23.472
203.15	18.096
203.51	-3.661
203.88	-6.487
204.25	-10.349
204.62	9.455
204.98	9.670
205.35	10.699
205.72	16.513
206.09	14.653
206.46	8.368
206.82	10.808
207.19	10.949
207.56	18.449
207.92	11.530
208.29	2.799
208.66	-6.723
209.03	-1.414
209.39	1.271
209.76	-20.938
210.13	-29.792
210.50	-34.730
210.86	-40.873
211.23	-23.623
211.60	-21.591
211.96	-6.084
212.33	-7.559
212.70	3.827
213.07	1.955
213.43	11.548
213.80	15.575
214.17	15.328
214.53	15.725
214.90	23.198
215.27	14.127
215.63	8.007
216.00	-0.106
216.37	4.037
216.74	-10.274
217.10	-8.214
217.47	-18.950
217.84	-14.195
218.20	1.417
218.57	7.698
218.94	3.936
219.30	2.062
219.67	13.795
220.04	10.386
220.40	7.786
220.77	10.851
221.13	-2.115
221.50	-8.348
221.87	-8.672
222.23	-17.857
222.60	-18.306
222.97	-15.917
223.33	-15.303
223.70	-19.160
224.07	-9.186
224.43	-2.531
224.80	-0.898
225.16	1.822
225.53	7.066
225.90	2.174
226.26	0.913
226.63	-0.688
226.99	-0.452
227.36	0.915
227.73	1.654
228.09	-1.619
228.46	-3.137
228.82	-1.414
229.19	-0.725
229.56	-4.151
229.92	-1.654
230.29	0.198
230.65	2.692
231.02	2.819
231.38	1.472
231.75	0.637
232.12	2.859
232.48	4.017
232.85	1.930
233.21	2.583
233.58	3.298
233.94	4.353
234.31	1.939
234.68	-1.771
235.04	-0.842
235.41	0.878
235.77	0.920
236.14	-0.187
236.50	-1.484
236.87	-0.646
237.23	-1.267
237.60	-0.889
237.96	-0.450
238.33	1.548
238.69	2.922
239.06	1.674
239.42	1.975
239.79	3.406
240.15	4.463
240.52	4.422
240.88	4.099
241.25	4.300
241.61	3.898
241.98	3.842
242.34	3.060
242.71	3.289
243.07	3.605
243.44	3.391
243.80	2.846
244.17	2.752
244.53	2.812
244.90	2.820
245.26	2.788
245.63	2.716
245.99	2.810
246.36	2.964
246.72	2.683
247.09	2.700
247.45	2.779
247.81	2.436
248.18	2.074
248.54	2.499
248.91	2.587
249.27	2.763
249.64	3.054
250.00	3.105
250.36	3.392
250.73	3.586
251.09	3.811
251.46	3.586
251.82	4.160
252.19	4.537
252.55	3.998
252.91	3.600
253.28	2.920
253.64	3.064
254.01	2.624
254.37	2.595
254.73	3.103
255.10	3.037
255.46	3.104
255.83	2.804
256.19	2.285
256.55	2.098
256.92	2.450
257.28	2.735
257.65	2.922
258.01	3.008
258.37	3.071
258.74	2.889
259.10	2.820
259.46	2.894
259.83	3.024
260.19	3.181
260.55	3.384
260.92	3.267
261.28	3.129
261.64	2.898
262.01	3.079
262.37	2.692
262.73	2.667
263.10	2.804
263.46	2.998
263.82	2.887
264.19	2.910
264.55	2.957
264.91	3.064
265.28	3.231
265.64	3.125
266.00	2.449
266.37	2.522
266.73	2.768
267.09	2.808
267.46	2.637
267.82	2.606
268.18	2.719
268.54	2.691
268.91	2.709
269.27	2.695
269.63	2.638
270.00	3.119
270.36	3.163
270.72	2.823
271.08	2.501
271.45	2.505
271.81	2.646
272.17	2.844
272.53	2.629
272.90	2.429
273.26	2.167
273.62	1.981
273.98	1.733
274.35	1.679
274.71	1.980
275.07	2.351
275.43	2.433
275.80	2.466
276.16	2.398
276.52	2.378
276.88	2.362
277.25	2.398
277.61	2.789
277.97	2.783
278.33	2.566
278.69	2.524
279.06	2.605
279.42	2.157
279.78	1.994
280.14	1.950
280.50	2.128
280.87	2.295
281.23	2.529
281.59	2.485
281.95	2.509
282.31	2.878
282.68	2.824
283.04	2.640
283.40	2.856
283.76	2.868
284.12	2.807
284.48	2.848
284.85	2.762
285.21	2.597
285.57	2.667
285.93	2.644
286.29	2.325
286.65	2.340
287.02	2.299
287.38	2.295
287.74	2.470
288.10	2.531
288.46	2.392
288.82	2.162
289.18	2.074
289.54	2.060
289.91	2.145
290.27	2.378
290.63	2.369
290.99	2.382
291.35	2.433
291.71	2.488
292.07	2.351
292.43	2.697
292.79	3.267
293.16	3.570
293.52	3.634
293.88	3.631
294.24	3.663
294.60	3.410
294.96	3.415
295.32	3.540
295.68	3.348
296.04	3.488
296.40	3.286
296.76	3.201
297.12	3.205
297.49	3.037
297.85	3.143
298.21	3.233
298.57	3.350
298.93	3.419
299.29	3.313
299.65	3.443
300.01	3.418
300.37	3.346
300.73	3.491
301.09	3.585
301.45	3.791
301.81	3.868
302.17	3.625
302.53	3.670
302.89	3.686
303.25	3.711
303.61	3.739
303.97	3.735
304.33	3.853
304.69	3.644
305.05	3.509
305.41	3.399
305.77	3.214
306.13	3.295
306.49	3.494
306.85	3.605
307.21	3.720
307.57	3.791
307.93	3.786
308.29	3.790
308.65	3.790
309.01	3.774
309.37	3.847
309.73	3.919
310.09	3.983
310.45	3.853
310.81	3.805
311.17	3.700
311.53	3.620
311.89	3.781
312.25	3.797
312.61	3.965
312.96	4.115
313.32	4.117
313.68	4.024
314.04	3.958
314.40	3.992
314.76	3.986
315.12	4.110
315.48	4.234
315.84	4.060
316.20	4.069
316.56	3.948
316.92	3.865
317.27	3.874
317.63	3.923
317.99	3.949
318.35	3.984
318.71	3.983
319.07	3.938
319.43	3.909
319.79	3.939
320.15	3.965
320.50	3.974
320.86	4.024
321.22	4.125
321.58	4.248
321.94	4.289
322.30	4.401
322.66	4.536
323.01	4.541
323.37	4.506
323.73	4.572
324.09	4.731
324.45	4.817
324.81	4.763
325.17	4.674
325.52	4.766
325.88	4.768
326.24	4.750
326.60	4.792
326.96	5.003
327.31	5.111
327.67	5.130
328.03	5.087
328.39	5.061
328.75	5.236
329.11	5.399
329.46	5.370
329.82	5.456
330.18	5.497
330.54	5.571
330.90	5.533
331.25	5.612
331.61	5.746
331.97	5.701
332.33	5.893
332.68	5.834
333.04	5.772
333.40	5.820
333.76	5.833
334.11	5.757
334.47	5.616
334.83	5.456
335.19	5.442
335.54	5.404
335.90	5.556
336.26	5.429
336.62	5.468
336.97	5.443
337.33	5.339
337.69	5.374
338.05	5.510
338.40	5.620
338.76	5.812
339.12	5.760
339.48	5.726
339.83	5.610
340.19	5.624
340.55	5.593
340.90	5.497
341.26	5.478
341.62	5.453
341.97	5.509
342.33	5.498
342.69	5.399
343.04	5.400
343.40	5.409
343.76	5.450
344.12	5.524
344.47	5.537
344.83	5.568
345.19	5.616
345.54	5.614
345.90	5.559
346.26	5.481
346.61	5.528
346.97	5.467
347.32	5.473
347.68	5.506
348.04	5.438
348.39	5.492
348.75	5.587
349.11	5.535
349.46	5.509
349.82	5.508
350.18	5.519
350.53	5.484
350.89	5.596
351.24	5.559
351.60	5.514
351.96	5.535
352.31	5.510
352.67	5.498
353.02	5.548
353.38	5.537
353.74	5.479
354.09	5.496
354.45	5.529
354.80	5.435
355.16	5.431
355.52	5.425
355.87	5.376
356.23	5.382
356.58	5.420
356.94	5.460
357.29	5.495
357.65	5.505
358.00	5.539
358.36	5.551
358.72	5.637
359.07	5.691
359.43	5.718
359.78	5.811
360.14	5.833
360.49	5.806
360.85	5.809
361.20	5.888
361.56	5.907
361.91	5.917
362.27	5.907
362.62	5.861
362.98	5.868
363.33	5.925
363.69	5.848
364.04	5.793
364.40	5.833
364.75	5.860
365.11	5.826
365.46	5.833
365.82	5.822
366.17	5.769
366.53	5.835
366.88	5.867
367.24	5.868
367.59	5.936
367.95	6.006
368.30	6.020
368.66	6.019
369.01	6.028
369.37	6.108
369.72	6.163
370.08	6.285
370.43	6.276
370.78	6.278
371.14	6.305
371.49	6.378
371.85	6.438
372.20	6.506
372.56	6.576
372.91	6.625
373.26	6.640
373.62	6.636
373.97	6.671
374.33	6.737
374.68	6.768
375.03	6.811
375.39	6.778
375.74	6.769
376.10	6.798
376.45	6.834
376.80	6.900
377.16	6.919
377.51	6.987
377.87	7.014
378.22	7.084
378.57	7.203
378.93	7.218
379.28	7.311
379.63	7.440
379.99	7.518
380.34	7.585
380.70	7.629
381.05	7.757
381.40	7.847
381.76	7.895
382.11	7.996
382.46	7.975
382.82	8.112
383.17	8.204
383.52	8.237
383.88	8.252
384.23	8.298
384.58	8.387
384.94	8.426
385.29	8.537
385.64	8.676
385.99	8.732
386.35	8.938
386.70	8.992
387.05	9.036
387.41	9.146
387.76	9.224
388.11	9.267
388.47	9.363
388.82	9.446
389.17	9.464
389.52	9.519
389.88	9.569
390.23	9.614
390.58	9.695
390.93	9.790
391.29	9.860
391.64	10.006
391.99	10.123
392.34	10.193
392.70	10.277
393.05	10.384
393.40	10.435
393.75	10.540
394.11	10.592
394.46	10.671
394.81	10.729
395.16	10.741
395.52	10.806
395.87	10.890
396.22	10.946
396.57	11.022
396.92	11.096
397.28	11.200
397.63	11.252
397.98	11.352
398.33	11.458
398.68	11.580
399.04	11.718
399.39	11.810
399.74	11.895
400.09	11.986
400.44	12.079
400.80	12.126
401.15	12.224
401.50	12.339
401.85	12.394
402.20	12.453
402.55	12.525
402.90	12.557
403.26	12.609
403.61	12.707
403.96	12.767
404.31	12.847
404.66	12.937
405.01	12.996
405.36	13.058
405.72	13.125
406.07	13.229
406.42	13.292
406.77	13.394
407.12	13.479
407.47	13.547
407.82	13.640
408.17	13.669
408.53	13.745
408.88	13.822
409.23	13.894
409.58	13.956
409.93	14.001
410.28	14.076
410.63	14.160
410.98	14.241
411.33	14.294
411.68	14.336
412.03	14.449
412.38	14.523
412.73	14.533
413.09	14.565
413.44	14.593
413.79	14.641
414.14	14.676
414.49	14.700
414.84	14.729
415.19	14.773
415.54	14.810
415.89	14.806
416.24	14.829
416.59	14.879
416.94	14.905
417.29	14.930
417.64	14.951
417.99	14.977
418.34	15.033
418.69	15.049
419.04	15.071
419.39	15.111
419.74	15.146
420.09	15.176
420.44	15.197
420.79	15.237
421.14	15.269
421.49	15.307
421.84	15.350
422.19	15.388
422.54	15.435
422.89	15.468
423.24	15.489
423.59	15.553
423.94	15.600
424.29	15.656
424.64	15.717
424.99	15.810
425.34	15.886
425.68	15.975
426.03	16.050
426.38	16.137
426.73	16.240
427.08	16.360
427.43	16.437
427.78	16.502
428.13	16.601
428.48	16.660
428.83	16.731
429.18	16.781
429.53	16.805
429.87	16.842
430.22	16.874
430.57	16.896
430.92	16.911
431.27	16.945
431.62	16.986
431.97	16.996
432.32	17.044
432.67	17.070
433.01	17.099
433.36	17.168
433.71	17.220
434.06	17.262
434.41	17.332
434.76	17.410
435.11	17.465
435.45	17.503
435.80	17.559
436.15	17.583
436.50	17.611
436.85	17.639
437.20	17.638
437.54	17.652
437.89	17.675
438.24	17.690
438.59	17.705
438.94	17.724
439.29	17.769
439.63	17.790
439.98	17.822
440.33	17.833
440.68	17.856
441.03	17.886
441.37	17.905
441.72	17.907
442.07	17.902
442.42	17.882
442.76	17.881
443.11	17.871
443.46	17.860
443.81	17.860
444.16	17.868
444.50	17.864
444.85	17.879
445.20	17.883
445.55	17.913
445.89	17.941
446.24	17.976
446.59	18.016
446.94	18.053
447.28	18.102
447.63	18.129
447.98	18.181
448.32	18.253
448.67	18.305
449.02	18.346
449.37	18.370
449.71	18.396
450.06	18.437
450.41	18.462
450.75	18.479
451.10	18.503
451.45	18.564
451.79	18.593
452.14	18.609
452.49	18.624
452.84	18.675
453.18	18.713
453.53	18.765
453.88	18.821
454.22	18.840
454.57	18.878
454.92	18.933
455.26	18.971
455.61	18.993
455.95	19.019
456.30	19.041
456.65	19.056
456.99	19.076
457.34	19.116
457.69	19.139
458.03	19.147
458.38	19.190
458.73	19.201
459.07	19.236
459.42	19.290
459.76	19.333
460.11	19.409
460.46	19.495
460.80	19.602
461.15	19.675
461.49	19.735
461.84	19.851
462.19	19.944
462.53	20.063
462.88	20.124
463.22	20.168
463.57	20.266
463.91	20.309
464.26	20.340
464.61	20.382
464.95	20.426
465.30	20.485
465.64	20.548
465.99	20.585
466.33	20.614
466.68	20.670
467.02	20.737
467.37	20.774
467.71	20.824
468.06	20.890
468.41	20.925
468.75	20.961
469.10	21.001
469.44	21.055
469.79	21.086
470.13	21.155
470.48	21.196
470.82	21.236
471.17	21.276
471.51	21.314
471.86	21.344
472.20	21.367
472.55	21.437
472.89	21.469
473.23	21.482
473.58	21.514
473.92	21.523
474.27	21.566
474.61	21.585
474.96	21.610
475.30	21.613
475.65	21.639
475.99	21.693
476.34	21.691
476.68	21.751
477.02	21.780
477.37	21.820
477.71	21.878
478.06	21.943
478.40	22.079
478.75	22.248
479.09	22.426
479.43	22.614
479.78	22.867
480.12	23.165
480.47	23.478
480.81	23.831
481.15	24.177
481.50	24.538
481.84	24.982
482.19	25.442
482.53	25.816
482.87	26.024
483.22	26.003
483.56	25.776
483.90	25.413
484.25	24.945
484.59	24.508
484.94	24.204
485.28	23.898
485.62	23.480
485.97	23.039
486.31	22.646
486.65	22.449
487.00	22.466
487.34	22.651
487.68	22.952
488.03	23.320
488.37	23.612
488.71	23.733
489.06	23.804
489.40	23.852
489.74	23.883
490.09	23.942
490.43	23.969
490.77	24.019
491.11	24.062
491.46	24.098
491.80	24.162
492.14	24.233
492.49	24.298
492.83	24.370
493.17	24.463
493.51	24.551
493.86	24.658
494.20	24.782
494.54	24.881
494.88	25.003
495.23	25.108
495.57	25.203
495.91	25.303
496.25	25.410
496.60	25.489
496.94	25.612
497.28	25.707
497.62	25.823
497.97	25.945
498.31	26.057
498.65	26.158
498.99	26.304
499.33	26.456
499.68	26.595
500.02	26.726
500.36	26.846
500.70	26.968
501.04	27.104
501.39	27.212
501.73	27.341
502.07	27.473
502.41	27.620
502.75	27.753
503.09	27.857
503.44	27.994
503.78	28.109
504.12	28.276
504.46	28.391
504.80	28.504
505.14	28.645
505.49	28.752
505.83	28.888
506.17	29.016
506.51	29.135
506.85	29.244
507.19	29.341
507.53	29.490
507.87	29.611
508.22	29.741
508.56	29.887
508.90	30.016
509.24	30.143
509.58	30.277
509.92	30.393
510.26	30.490
510.60	30.664
510.94	30.812
511.28	30.938
511.63	31.107
511.97	31.245
512.31	31.395
512.65	31.539
512.99	31.711
513.33	31.871
513.67	32.045
514.01	32.235
514.35	32.353
514.69	32.508
515.03	32.651
515.37	32.722
515.71	32.830
516.05	32.933
516.39	33.031
516.73	33.104
517.07	33.210
517.41	33.312
517.75	33.388
518.09	33.489
518.43	33.559
518.77	33.632
519.11	33.761
519.45	33.882
519.79	34.010
520.13	34.169
520.47	34.342
520.81	34.476
521.15	34.597
521.49	34.743
521.83	34.883
522.17	35.055
522.51	35.214
522.85	35.358
523.19	35.560
523.53	35.820
523.87	36.058
524.21	36.310
524.55	36.534
524.89	36.741
525.23	36.957
525.57	37.119
525.91	37.266
526.25	37.422
526.58	37.564
526.92	37.647
527.26	37.661
527.60	37.668
527.94	37.632
528.28	37.627
528.62	37.593
528.96	37.553
529.30	37.557
529.64	37.536
529.97	37.499
530.31	37.468
530.65	37.472
530.99	37.508
531.33	37.552
531.67	37.654
532.01	37.708
532.35	37.772
532.68	37.800
533.02	37.834
533.36	37.875
533.70	37.919
534.04	37.959
534.38	38.006
534.71	38.092
535.05	38.149
535.39	38.176
535.73	38.235
536.07	38.352
536.41	38.477
536.74	38.587
537.08	38.683
537.42	38.814
537.76	38.943
538.10	39.066
538.43	39.161
538.77	39.255
539.11	39.358
539.45	39.421
539.79	39.467
540.12	39.494
540.46	39.496
540.80	39.490
541.14	39.463
541.47	39.445
541.81	39.419
542.15	39.410
542.49	39.389
542.82	39.342
543.16	39.360
543.50	39.382
543.84	39.433
544.17	39.496
544.51	39.603
544.85	39.685
545.18	39.764
545.52	39.816
545.86	39.860
546.20	39.951
546.53	40.041
546.87	40.125
547.21	40.202
547.54	40.284
547.88	40.372
548.22	40.446
548.55	40.534
548.89	40.603
549.23	40.709
549.56	40.760
549.90	40.871
550.24	40.956
550.57	40.982
550.91	41.017
551.25	41.045
551.58	41.077
551.92	41.133
552.26	41.160
552.59	41.207
552.93	41.272
553.27	41.359
553.60	41.342
553.94	41.390
554.27	41.456
554.61	41.505
554.95	41.590
555.28	41.666
555.62	41.727
555.95	41.825
556.29	41.906
556.63	41.944
556.96	41.973
557.30	42.038
557.63	42.107
557.97	42.154
558.31	42.193
558.64	42.261
558.98	42.327
559.31	42.377
559.65	42.406
559.98	42.437
560.32	42.495
560.65	42.542
560.99	42.627
561.33	42.665
561.66	42.683
562.00	42.771
562.33	42.771
562.67	42.797
563.00	42.836
563.34	42.873
563.67	42.872
564.01	42.889
564.34	42.883
564.68	42.870
565.01	42.910
565.35	42.959
565.68	42.958
566.02	43.001
566.35	43.054
566.69	43.074
567.02	43.098
567.36	43.142
567.69	43.182
568.03	43.279
568.36	43.326
568.69	43.337
569.03	43.431
569.36	43.505
569.70	43.529
570.03	43.550
570.37	43.602
570.70	43.665
571.04	43.726
571.37	43.769
571.70	43.815
572.04	43.864
572.37	43.939
572.71	43.941
573.04	44.007
573.37	44.108
573.71	44.171
574.04	44.249
574.38	44.316
574.71	44.386
575.04	44.503
575.38	44.574
575.71	44.689
576.05	44.781
576.38	44.905
576.71	45.002
577.05	45.059
577.38	45.172
577.71	45.279
578.05	45.366
578.38	45.438
578.71	45.503
579.05	45.582
579.38	45.628
579.71	45.693
580.05	45.723
580.38	45.742
580.71	45.819
581.05	45.908
581.38	45.902
581.71	45.981
582.05	46.030
582.38	46.074
582.71	46.130
583.04	46.166
583.38	46.198
583.71	46.266
584.04	46.316
584.38	46.368
584.71	46.354
585.04	46.424
585.37	46.460
585.71	46.530
586.04	46.577
586.37	46.600
586.70	46.669
587.04	46.710
587.37	46.719
587.70	46.741
588.03	46.760
588.37	46.809
588.70	46.843
589.03	46.815
589.36	46.856
589.69	46.884
590.03	46.903
590.36	46.913
590.69	46.934
591.02	46.973
591.35	46.992
591.69	47.003
592.02	46.971
592.35	46.974
592.68	47.010
593.01	46.980
593.35	46.960
593.68	46.981
594.01	47.002
594.34	47.008
594.67	46.976
595.00	46.965
595.34	46.972
595.67	47.014
596.00	47.020
596.33	47.051
596.66	47.087
596.99	47.140
597.32	47.175
597.65	47.261
597.99	47.317
598.32	47.412
598.65	47.547
598.98	47.620
599.31	47.642
599.64	47.712
599.97	47.704
600.30	47.688
600.63	47.671
600.96	47.645
601.30	47.554
601.63	47.532
601.96	47.512
602.29	47.445
602.62	47.431
602.95	47.464
603.28	47.443
603.61	47.493
603.94	47.567
604.27	47.588
604.60	47.625
604.93	47.707
605.26	47.754
605.59	47.824
605.92	47.869
606.25	47.940
606.58	47.967
606.91	48.026
607.24	48.023
607.57	48.006
607.90	48.069
608.23	48.070
608.56	48.065
608.89	48.080
609.22	48.094
609.55	48.168
609.88	48.179
610.21	48.243
610.54	48.313
610.87	48.396
611.20	48.463
611.53	48.485
611.86	48.600
612.19	48.734
612.52	48.815
612.85	48.874
613.18	48.937
613.51	48.929
613.84	48.898
614.17	48.896
614.49	48.944
614.82	48.958
615.15	48.978
615.48	48.988
615.81	48.965
616.14	48.951
616.47	48.925
616.80	48.872
617.13	48.915
617.46	48.957
617.78	48.925
618.11	48.915
618.44	48.985
618.77	48.983
619.10	49.001
619.43	48.996
619.76	49.034
620.09	49.063
620.41	49.104
620.74	49.075
621.07	49.067
621.40	49.125
621.73	49.090
622.06	49.082
622.38	49.071
622.71	48.978
623.04	48.937
623.37	48.914
623.70	48.842
624.02	48.791
624.35	48.787
624.68	48.723
625.01	48.690
625.34	48.671
625.66	48.612
625.99	48.572
626.32	48.619
626.65	48.646
626.98	48.637
627.30	48.690
627.63	48.689
627.96	48.733
628.29	48.803
628.61	48.791
628.94	48.769
629.27	48.823
629.60	48.927
629.92	48.901
630.25	48.883
630.58	48.853
630.91	48.829
631.23	48.822
631.56	48.775
631.89	48.773
632.21	48.755
632.54	48.780
632.87	48.765
633.19	48.678
633.52	48.708
633.85	48.712
634.18	48.742
634.50	48.783
634.83	48.798
635.16	48.823
635.48	48.823
635.81	48.869
636.14	48.911
636.46	48.928
636.79	49.006
637.11	49.014
637.44	49.042
637.77	49.047
638.09	49.013
638.42	49.039
638.75	49.042
639.07	49.057
639.40	49.067
639.73	49.080
640.05	49.115
640.38	49.028
640.70	49.053
641.03	49.026
641.36	49.000
641.68	49.001
642.01	48.971
642.33	48.999
642.66	49.017
642.98	48.984
643.31	48.934
643.64	48.849
643.96	48.897
644.29	48.866
644.61	48.859
644.94	48.861
645.26	48.780
645.59	48.762
645.91	48.756
646.24	48.698
646.56	48.655
646.89	48.648
647.22	48.635
647.54	48.559
647.87	48.481
648.19	48.479
648.52	48.394
648.84	48.475
649.17	48.393
649.49	48.361
649.82	48.353
650.14	48.367
650.47	48.322
650.79	48.276
651.11	48.245
651.44	48.295
651.76	48.278
652.09	48.283
652.41	48.251
652.74	48.322
653.06	48.258
653.39	48.240
653.71	48.165
654.04	48.140
654.36	48.125
654.68	48.116
655.01	48.026
655.33	47.936
655.66	47.855
655.98	47.710
656.30	47.545
656.63	47.508
656.95	47.405
657.28	47.345
657.60	47.242
657.92	47.104
658.25	47.020
658.57	46.965
658.90	46.985
659.22	47.002
659.54	47.073
659.87	47.091
660.19	47.040
660.51	47.074
660.84	47.151
661.16	47.199
661.48	47.340
661.81	47.440
662.13	47.523
662.45	47.496
662.78	47.473
663.10	47.503
663.42	47.583
663.75	47.587
664.07	47.569
664.39	47.449
664.72	47.425
665.04	47.327
665.36	47.195
665.69	47.122
666.01	47.049
666.33	47.119
666.65	46.953
666.98	46.931
667.30	46.862
667.62	46.748
667.94	46.759
668.27	46.773
668.59	46.792
668.91	46.850
669.23	46.920
669.56	46.832
669.88	46.689
670.20	46.730
670.52	46.660
670.85	46.697
671.17	46.667
671.49	46.735
671.81	46.694
672.13	46.626
672.46	46.571
672.78	46.426
673.10	46.491
673.42	46.457
673.74	46.439
674.07	46.432
674.39	46.409
674.71	46.410
675.03	46.322
675.35	46.251
675.67	46.186
676.00	46.161
676.32	46.113
676.64	46.030
676.96	46.023
677.28	45.921
677.60	45.880
677.92	45.779
678.25	45.713
678.57	45.638
678.89	45.579
679.21	45.519
679.53	45.489
679.85	45.447
680.17	45.483
680.49	45.427
680.81	45.427
681.13	45.387
681.46	45.394
681.78	45.492
682.10	45.473
682.42	45.464
682.74	45.517
683.06	45.440
683.38	45.422
683.70	45.349
684.02	45.379
684.34	45.354
684.66	45.273
684.98	45.158
685.30	45.095
685.62	44.993
685.94	44.882
686.26	44.772
686.58	44.714
686.90	44.638
687.22	44.575
687.54	44.503
687.86	44.379
688.18	44.344
688.50	44.351
688.82	44.205
689.14	44.140
689.46	44.175
689.78	44.132
690.10	44.154
690.42	44.072
690.74	44.092
691.06	43.948
691.38	43.971
691.70	43.900
692.02	43.875
692.34	43.825
692.66	43.852
692.98	43.797
693.30	43.756
693.62	43.635
693.94	43.564
694.26	43.405
694.57	43.363
694.89	43.206
695.21	43.224
695.53	43.063
695.85	43.002
696.17	42.875
696.49	42.789
696.81	42.707
697.13	42.632
697.44	42.585
697.76	42.473
698.08	42.367
698.40	42.385
698.72	42.233
699.04	42.200
699.36	42.128
699.67	42.088
699.99	41.970
700.31	41.840
700.63	41.822
700.95	41.759
701.27	41.750
701.58	41.767
701.90	41.600
702.22	41.648
702.54	41.533
702.86	41.480
703.17	41.325
703.49	41.250
703.81	41.281
704.13	41.161
704.45	41.120
704.76	41.068
705.08	40.999
705.40	41.002
705.72	40.885
706.03	40.929
706.35	40.969
706.67	41.011
706.99	40.942
707.30	40.842
707.62	40.810
707.94	40.769
708.26	40.649
708.57	40.587
708.89	40.575
709.21	40.439
709.53	40.308
709.84	40.083
710.16	39.990
710.48	39.990
710.79	39.887
711.11	39.818
711.43	39.633
711.74	39.659
712.06	39.673
712.38	39.591
712.69	39.587
713.01	39.626
713.33	39.613
713.64	39.634
713.96	39.635
714.28	39.782
714.59	39.787
714.91	39.914
715.23	39.936
715.54	39.814
715.86	39.804
716.17	39.842
716.49	39.747
716.81	39.752
717.12	39.606
717.44	39.502
717.76	39.413
718.07	39.330
718.39	39.135
718.70	39.024
719.02	38.937
719.33	38.890
719.65	38.726
719.97	38.778
720.28	38.686
720.60	38.649
720.91	38.675
721.23	38.531
721.54	38.514
721.86	38.608
722.17	38.453
722.49	38.472
722.81	38.312
723.12	38.211
723.44	38.077
723.75	38.049
724.07	38.033
724.38	37.829
724.70	37.785
725.01	37.653
725.33	37.574
725.64	37.587
725.96	37.437
726.27	37.390
726.59	37.451
726.90	37.410
727.22	37.306
727.53	37.249
727.84	37.255
728.16	37.059
728.47	36.957
728.79	36.779
729.10	36.587
729.42	36.517
729.73	36.382
730.05	36.296
730.36	36.201
730.67	36.102
730.99	35.949
731.30	35.854
731.62	35.818
731.93	35.845
732.24	35.780
732.56	35.760
732.87	35.620
733.19	35.478
733.50	35.327
733.81	35.177
734.13	35.145
734.44	35.070
734.76	34.981
735.07	34.840
735.38	34.512
735.70	34.498
736.01	34.396
736.32	34.572
736.64	34.710
736.95	34.674
737.26	34.592
737.58	34.570
737.89	34.543
738.20	34.408
738.52	34.415
738.83	34.468
739.14	34.195
739.45	34.088
739.77	33.848
740.08	33.645
740.39	33.454
740.71	33.397
741.02	33.223
741.33	33.198
741.64	33.065
741.96	32.754
742.27	32.595
742.58	32.600
742.90	32.559
743.21	32.447
743.52	32.584
743.83	32.670
744.14	32.493
744.46	32.420
744.77	32.024
745.08	32.088
745.39	32.242
745.71	32.176
746.02	32.194
746.33	32.035
746.64	32.061
746.95	31.751
747.27	31.546
747.58	31.691
747.89	31.670
748.20	31.816
748.51	31.749
748.82	31.765
749.14	31.648
749.45	31.702
749.76	31.754
750.07	31.590
750.38	31.514
750.69	31.629
751.01	31.519
751.32	31.470
751.63	31.460
751.94	31.454
752.25	31.258
752.56	31.414
752.87	31.302
753.18	31.226
753.49	31.169
753.81	31.171
754.12	31.138
754.43	31.173
754.74	31.165
755.05	31.033
755.36	31.028
755.67	31.285
755.98	31.325
756.29	31.309
756.60	31.503
756.91	31.795
757.22	32.071
757.53	32.208
757.84	32.305
758.15	32.519
758.46	32.870
758.77	33.104
759.09	33.266
759.40	33.461
759.71	33.719
760.02	33.693
760.33	33.676
760.64	33.559
760.95	33.512
761.26	33.414
761.57	33.418
761.88	33.335
762.18	33.213
762.49	33.069
762.80	32.817
763.11	32.519
763.42	32.470
763.73	32.230
764.04	32.079
764.35	31.790
764.66	31.591
764.97	31.300
765.28	31.032
765.59	30.776
765.90	30.459
766.21	30.313
766.52	30.061
766.83	29.841
767.14	29.747
767.44	29.603
767.75	29.439
768.06	29.500
768.37	29.251
768.68	29.256
768.99	29.013
769.30	28.917
769.61	28.638
769.91	28.636
770.22	28.285
770.53	28.245
770.84	28.348
771.15	28.475
771.46	28.384
771.77	28.458
772.07	28.216
772.38	28.208
772.69	28.056
773.00	28.107
773.31	28.152
773.61	28.284
773.92	28.055
774.23	27.775
774.54	27.646
774.85	27.337
775.15	27.389
775.46	27.414
775.77	27.331
776.08	27.254
776.39	27.224
776.69	27.153
777.00	27.068
777.31	27.075
777.62	26.939
777.92	26.946
778.23	26.974
778.54	26.604
778.85	26.294
779.15	26.422
779.46	26.591
779.77	26.525
780.07	26.446
780.38	26.209
780.69	26.443
781.00	26.465
781.30	26.240
781.61	26.268
781.92	26.378
782.22	26.719
782.53	26.429
782.84	26.508
783.14	26.617
783.45	26.741
783.76	26.995
784.06	26.787
784.37	26.987
784.68	27.078
784.98	27.250
785.29	27.251
785.60	27.505
785.90	27.934
786.21	27.911
786.51	28.056
786.82	28.249
787.13	28.285
787.43	28.665
787.74	28.635
788.04	28.587
788.35	28.255
788.66	28.150
788.96	27.931
789.27	27.770
789.57	27.711
789.88	27.720
790.19	27.446
790.49	27.348
790.80	27.285
791.10	27.264
791.41	27.389
791.71	27.582
792.02	27.835
792.32	27.667
792.63	27.754
792.93	27.629
793.24	27.334
793.54	27.390
793.85	27.379
794.15	27.002
794.46	26.805
794.76	26.869
795.07	26.903
795.37	26.763
795.68	26.780
795.98	26.915
796.29	27.161
796.59	27.384
796.90	27.187
797.20	27.186
797.51	27.413
797.81	27.465
798.12	27.559
798.42	27.590
798.72	27.576
799.03	27.738
799.33	27.358
799.64	27.243
799.94	26.906
800.25	27.113
800.55	27.423
800.85	27.212
801.16	27.555
801.46	27.323
801.77	27.205
802.07	27.018
802.37	26.898
802.68	26.916
802.98	26.574
803.28	26.520
803.59	26.026
803.89	25.672
804.20	25.859
804.50	25.570
804.80	25.619
805.11	25.774
805.41	25.991
805.71	25.763
806.02	25.996
806.32	26.638
806.62	26.803
806.93	27.109
807.23	27.130
807.53	26.838
807.83	27.182
808.14	26.767
808.44	26.633
808.74	26.678
809.05	26.890
809.35	26.872
809.65	26.162
809.95	26.049
810.26	26.230
810.56	26.627
810.86	26.913
811.16	26.314
811.47	26.695
811.77	27.214
812.07	27.159
812.37	27.102
812.68	27.085
812.98	27.713
813.28	28.254
813.58	27.925
813.88	27.663
814.19	27.390
814.49	27.969
814.79	28.130
815.09	27.592
815.39	27.826
815.70	27.944
816.00	28.041
816.30	27.887
816.60	27.802
816.90	28.477
817.20	28.688
817.50	29.114
817.81	28.919
818.11	29.055
818.41	29.147
818.71	29.023
819.01	29.062
819.31	29.042
819.61	28.973
819.92	28.882
820.22	28.827
820.52	28.830
820.82	28.849
821.12	28.867
821.42	28.865
821.72	28.873
822.02	28.836
822.32	28.732
822.62	28.635
822.92	28.657
823.22	28.663
823.52	28.612
823.83	28.555
824.13	28.413
824.43	28.305
824.73	28.177
825.03	28.083
825.33	28.019
825.63	28.051
825.93	28.156
826.23	28.090
826.53	27.973
826.83	28.012
827.13	27.882
827.43	27.949
827.73	28.111
828.03	28.117
828.33	27.956
828.63	28.237
828.93	28.288
829.23	28.365
829.53	28.460
829.83	28.751
830.13	28.650
830.42	28.725
830.72	28.583
831.02	28.298
831.32	28.227
831.62	28.178
831.92	27.856
832.22	27.950
832.52	27.751
832.82	27.734
833.12	27.546
833.42	27.394
833.72	27.452
834.01	27.379
834.31	27.399
834.61	27.323
834.91	27.360
835.21	27.378
835.51	27.232
835.81	27.348
836.11	27.067
836.40	26.877
836.70	27.081
837.00	27.136
837.30	26.994
837.60	26.432
837.90	26.538
838.19	26.523
838.49	26.751
838.79	26.473
839.09	26.152
839.39	25.976
839.68	26.431
839.98	25.865
840.28	25.313
840.58	25.058
840.88	25.132
841.17	24.734
841.47	24.433
841.77	23.839
842.07	23.279
842.36	23.076
842.66	22.784
842.96	23.343
843.26	23.802
843.55	22.948
843.85	23.220
844.15	23.097
844.45	23.366
844.74	23.722
845.04	23.365
845.34	23.412
845.63	22.517
845.93	23.353
846.23	21.150
846.53	19.998
846.82	20.277
847.12	18.776
847.42	18.035
847.71	17.337
848.01	16.753
848.31	17.994
848.60	18.345
848.90	18.259
849.19	17.601
849.49	17.288
849.79	18.425
850.08	20.584
850.38	21.767
850.68	23.112
850.97	22.763
851.27	22.586
851.56	21.865
851.86	20.561
852.16	21.549
852.45	22.236
852.75	23.382
853.04	22.732
853.34	21.317
853.64	20.675
853.93	19.985
854.23	19.921
854.52	19.984
854.82	19.269
855.11	19.702
855.41	17.369
855.70	16.516
856.00	17.038
856.30	16.859
856.59	15.427
856.89	15.732
857.18	16.885
857.48	17.373
857.77	17.072
858.07	16.866
858.36	18.490
858.66	21.078
858.95	21.573
859.25	20.236
859.54	21.009
859.84	21.458
860.13	21.404
860.42	20.314
860.72	21.962
861.01	22.967
861.31	24.490
861.60	22.416
861.90	20.785
862.19	19.050
862.49	18.923
862.78	20.233
863.07	20.693
863.37	21.269
863.66	21.002
863.96	19.362
864.25	20.352
864.54	20.687
864.84	20.840
865.13	20.852
865.43	22.040
865.72	39.130
866.01	31.541
866.31	10.494
866.60	10.406
866.89	23.766
>>>>>End Spectral Data<<<<<
