OOIBase32 Version 2.0.0.6 Data File
++++++++++++++++++++++++++++++++++++
Date: 01-23-2012, 22:10:24
User: Valued Ocean Optics Customer
Spectrometer Serial Number: USB2E2917
Spectrometer Channel: Master
Integration Time (msec): 5
Spectra Averaged: 10
Boxcar Smoothing: 5
Correct for Electrical Dark: Enabled
Time Normalized: Disabled
Dual-beam Reference: Disabled
Reference Channel: Master
Temperature: Not acquired
Spectrometer Type: S2000
ADC Type: USB2000
Number of Pixels in File: 2048
Graph Title: 
>>>>>Begin Spectral Data<<<<<
180.30	0.000
180.67	0.000
181.03	323.803
181.40	-29.516
181.77	4984.267
182.14	7.838
182.51	-43.212
182.88	-359.905
183.25	148.879
183.62	5.914
183.99	27.015
184.36	31.269
184.73	208.916
185.10	-5.439
185.46	157.873
185.83	128.702
186.20	-24.840
186.57	302.295
186.94	-52.938
187.31	54.038
187.68	-444.249
188.05	124.397
188.42	85.909
188.78	83.729
189.15	60.357
189.52	54.559
189.89	31.316
190.26	23.986
190.63	49.085
191.00	34.408
191.37	24.037
191.73	11.868
192.10	10.235
192.47	11.278
192.84	15.785
193.21	12.538
193.58	11.858
193.94	9.180
194.31	3.638
194.68	5.574
195.05	-2.787
195.42	-11.023
195.79	-3.471
196.15	2.800
196.52	13.782
196.89	8.973
197.26	20.179
197.63	24.387
198.00	22.706
198.36	19.765
198.73	8.326
199.10	13.612
199.47	9.925
199.84	-5.220
200.20	-5.521
200.57	-35.119
200.94	-32.437
201.31	-48.245
201.68	-26.095
202.04	-20.387
202.41	-0.232
202.78	-11.242
203.15	-6.301
203.51	-28.865
203.88	-12.325
204.25	-34.064
204.62	-12.916
204.98	-4.697
205.35	0.424
205.72	-3.929
206.09	3.945
206.46	-7.121
206.82	4.374
207.19	-4.116
207.56	13.803
207.92	4.976
208.29	14.051
208.66	6.436
209.03	-6.344
209.39	-19.994
209.76	-26.004
210.13	-37.924
210.50	-43.230
210.86	-47.286
211.23	-18.485
211.60	-14.796
211.96	-1.193
212.33	-7.546
212.70	4.175
213.07	-2.157
213.43	7.709
213.80	4.063
214.17	3.554
214.53	4.623
214.90	11.673
215.27	-4.673
215.63	-18.303
216.00	-21.417
216.37	-2.886
216.74	-19.354
217.10	-12.721
217.47	-23.643
217.84	-17.896
218.20	-2.632
218.57	4.455
218.94	-3.629
219.30	-3.358
219.67	5.785
220.04	0.850
220.40	-16.942
220.77	-17.316
221.13	-21.704
221.50	-21.675
221.87	-25.806
222.23	-31.472
222.60	-26.394
222.97	-26.364
223.33	-21.587
223.70	-23.364
224.07	-11.584
224.43	-6.776
224.80	-1.756
225.16	2.085
225.53	5.023
225.90	1.753
226.26	-0.022
226.63	-1.622
226.99	-0.664
227.36	-0.243
227.73	0.869
228.09	-5.270
228.46	-5.345
228.82	-4.853
229.19	-6.156
229.56	-10.186
229.92	-6.652
230.29	-5.019
230.65	-3.882
231.02	-3.181
231.38	-3.648
231.75	-4.028
232.12	-0.553
232.48	1.126
232.85	-0.237
233.21	1.688
233.58	5.479
233.94	5.238
234.31	3.593
234.68	1.206
235.04	1.109
235.41	1.540
235.77	1.956
236.14	1.312
236.50	-1.912
236.87	-2.424
237.23	-3.548
237.60	-3.355
237.96	-4.321
238.33	-3.238
238.69	-2.234
239.06	-2.114
239.42	-1.949
239.79	-1.258
240.15	-0.345
240.52	0.270
240.88	0.297
241.25	1.295
241.61	1.417
241.98	2.353
242.34	2.410
242.71	2.674
243.07	3.063
243.44	3.076
243.80	3.094
244.17	3.135
244.53	3.612
244.90	3.864
245.26	3.714
245.63	3.499
245.99	3.240
246.36	3.339
246.72	2.747
247.09	2.368
247.45	2.118
247.81	1.530
248.18	1.536
248.54	1.341
248.91	0.798
249.27	0.467
249.64	0.336
250.00	0.674
250.36	0.460
250.73	0.869
251.09	1.481
251.46	1.915
251.82	2.318
252.19	1.963
252.55	1.762
252.91	2.157
253.28	1.773
253.64	2.119
254.01	1.988
254.37	1.819
254.73	2.290
255.10	2.327
255.46	2.343
255.83	2.167
256.19	2.319
256.55	2.217
256.92	2.212
257.28	2.409
257.65	2.487
258.01	2.465
258.37	2.414
258.74	2.339
259.10	2.205
259.46	2.187
259.83	2.345
260.19	2.253
260.55	2.214
260.92	2.071
261.28	1.819
261.64	1.330
262.01	1.078
262.37	0.841
262.73	0.651
263.10	0.808
263.46	0.857
263.82	0.738
264.19	0.533
264.55	0.751
264.91	1.042
265.28	1.468
265.64	1.586
266.00	1.435
266.37	1.409
266.73	1.810
267.09	1.599
267.46	1.654
267.82	1.683
268.18	1.890
268.54	1.756
268.91	2.038
269.27	2.082
269.63	2.248
270.00	2.411
270.36	2.759
270.72	2.453
271.08	2.307
271.45	2.100
271.81	2.328
272.17	2.313
272.53	2.216
272.90	1.834
273.26	1.625
273.62	1.499
273.98	1.374
274.35	1.207
274.71	1.554
275.07	1.727
275.43	2.102
275.80	2.209
276.16	2.494
276.52	2.477
276.88	2.372
277.25	2.342
277.61	2.483
277.97	2.418
278.33	2.083
278.69	1.712
279.06	1.933
279.42	1.463
279.78	1.012
280.14	0.725
280.50	0.925
280.87	1.164
281.23	1.532
281.59	1.419
281.95	1.690
282.31	1.973
282.68	2.048
283.04	1.914
283.40	2.135
283.76	2.088
284.12	2.237
284.48	2.231
284.85	2.182
285.21	1.836
285.57	1.887
285.93	1.802
286.29	1.822
286.65	1.865
287.02	1.873
287.38	1.878
287.74	2.103
288.10	1.905
288.46	1.700
288.82	1.621
289.18	1.613
289.54	1.666
289.91	1.643
290.27	1.602
290.63	1.664
290.99	1.683
291.35	1.739
291.71	1.842
292.07	1.861
292.43	2.087
292.79	2.423
293.16	2.684
293.52	2.623
293.88	2.647
294.24	2.697
294.60	2.635
294.96	2.669
295.32	2.631
295.68	2.358
296.04	2.596
296.40	2.583
296.76	2.430
297.12	2.409
297.49	2.448
297.85	2.566
298.21	2.611
298.57	2.674
298.93	2.585
299.29	2.702
299.65	2.957
300.01	2.842
300.37	2.691
300.73	3.015
301.09	3.097
301.45	3.287
301.81	3.261
302.17	3.221
302.53	3.187
302.89	3.186
303.25	3.058
303.61	3.012
303.97	3.119
304.33	3.230
304.69	2.913
305.05	2.784
305.41	2.660
305.77	2.657
306.13	2.719
306.49	2.819
306.85	2.840
307.21	2.948
307.57	2.973
307.93	2.843
308.29	2.899
308.65	2.848
309.01	2.896
309.37	3.073
309.73	3.124
310.09	3.142
310.45	3.086
310.81	3.110
311.17	2.888
311.53	2.852
311.89	3.021
312.25	3.017
312.61	3.201
312.96	3.272
313.32	3.224
313.68	3.111
314.04	3.081
314.40	3.045
314.76	3.074
315.12	3.335
315.48	3.531
315.84	3.364
316.20	3.459
316.56	3.502
316.92	3.421
317.27	3.190
317.63	3.144
317.99	3.142
318.35	3.141
318.71	3.156
319.07	3.231
319.43	3.258
319.79	3.250
320.15	3.228
320.50	3.059
320.86	3.126
321.22	3.266
321.58	3.402
321.94	3.368
322.30	3.413
322.66	3.505
323.01	3.392
323.37	3.333
323.73	3.426
324.09	3.455
324.45	3.593
324.81	3.575
325.17	3.605
325.52	3.562
325.88	3.570
326.24	3.599
326.60	3.631
326.96	3.742
327.31	3.829
327.67	3.835
328.03	3.801
328.39	3.714
328.75	3.783
329.11	3.812
329.46	3.832
329.82	3.872
330.18	3.940
330.54	3.893
330.90	3.848
331.25	3.754
331.61	3.755
331.97	3.790
332.33	3.948
332.68	3.896
333.04	3.973
333.40	4.055
333.76	4.024
334.11	3.868
334.47	3.873
334.83	3.858
335.19	3.849
335.54	3.976
335.90	4.008
336.26	3.979
336.62	4.097
336.97	4.047
337.33	4.008
337.69	4.088
338.05	4.176
338.40	4.192
338.76	4.245
339.12	4.275
339.48	4.213
339.83	4.169
340.19	4.065
340.55	3.918
340.90	3.879
341.26	3.809
341.62	3.687
341.97	3.745
342.33	3.778
342.69	3.733
343.04	3.728
343.40	3.632
343.76	3.621
344.12	3.731
344.47	3.891
344.83	3.903
345.19	3.936
345.54	4.072
345.90	4.089
346.26	4.040
346.61	4.084
346.97	4.096
347.32	4.199
347.68	4.152
348.04	4.126
348.39	4.066
348.75	4.133
349.11	4.098
349.46	4.068
349.82	4.100
350.18	4.141
350.53	4.067
350.89	4.130
351.24	4.084
351.60	4.149
351.96	4.176
352.31	4.211
352.67	4.145
353.02	4.209
353.38	4.195
353.74	4.103
354.09	4.089
354.45	4.239
354.80	4.158
355.16	4.139
355.52	4.166
355.87	4.112
356.23	4.033
356.58	4.100
356.94	4.099
357.29	4.063
357.65	4.028
358.00	3.985
358.36	3.872
358.72	3.917
359.07	3.950
359.43	3.990
359.78	4.048
360.14	4.094
360.49	4.057
360.85	4.022
361.20	4.066
361.56	4.133
361.91	4.147
362.27	4.189
362.62	4.133
362.98	4.054
363.33	4.011
363.69	3.901
364.04	3.860
364.40	3.842
364.75	3.865
365.11	3.882
365.46	3.906
365.82	3.884
366.17	3.852
366.53	3.904
366.88	3.983
367.24	4.030
367.59	4.161
367.95	4.195
368.30	4.216
368.66	4.256
369.01	4.224
369.37	4.225
369.72	4.294
370.08	4.373
370.43	4.368
370.78	4.326
371.14	4.339
371.49	4.336
371.85	4.367
372.20	4.351
372.56	4.404
372.91	4.420
373.26	4.417
373.62	4.417
373.97	4.405
374.33	4.425
374.68	4.470
375.03	4.494
375.39	4.448
375.74	4.490
376.10	4.532
376.45	4.545
376.80	4.543
377.16	4.613
377.51	4.683
377.87	4.679
378.22	4.752
378.57	4.802
378.93	4.807
379.28	4.922
379.63	4.923
379.99	5.007
380.34	5.071
380.70	5.165
381.05	5.188
381.40	5.197
381.76	5.278
382.11	5.294
382.46	5.345
382.82	5.398
383.17	5.439
383.52	5.472
383.88	5.456
384.23	5.458
384.58	5.464
384.94	5.516
385.29	5.553
385.64	5.619
385.99	5.682
386.35	5.743
386.70	5.804
387.05	5.794
387.41	5.862
387.76	5.930
388.11	5.985
388.47	6.089
388.82	6.091
389.17	6.152
389.52	6.163
389.88	6.197
390.23	6.245
390.58	6.305
390.93	6.386
391.29	6.447
391.64	6.527
391.99	6.558
392.34	6.597
392.70	6.652
393.05	6.690
393.40	6.788
393.75	6.869
394.11	6.909
394.46	6.918
394.81	6.939
395.16	6.946
395.52	6.966
395.87	6.990
396.22	7.023
396.57	7.075
396.92	7.123
397.28	7.141
397.63	7.140
397.98	7.193
398.33	7.257
398.68	7.341
399.04	7.417
399.39	7.491
399.74	7.580
400.09	7.633
400.44	7.708
400.80	7.768
401.15	7.799
401.50	7.863
401.85	7.933
402.20	7.998
402.55	8.061
402.90	8.125
403.26	8.178
403.61	8.233
403.96	8.296
404.31	8.355
404.66	8.404
405.01	8.489
405.36	8.574
405.72	8.590
406.07	8.654
406.42	8.716
406.77	8.767
407.12	8.825
407.47	8.901
407.82	8.953
408.17	9.019
408.53	9.083
408.88	9.133
409.23	9.189
409.58	9.263
409.93	9.315
410.28	9.346
410.63	9.409
410.98	9.494
411.33	9.523
411.68	9.554
412.03	9.607
412.38	9.658
412.73	9.717
413.09	9.731
413.44	9.787
413.79	9.827
414.14	9.888
414.49	9.927
414.84	9.930
415.19	9.971
415.54	10.024
415.89	10.056
416.24	10.083
416.59	10.102
416.94	10.138
417.29	10.177
417.64	10.201
417.99	10.222
418.34	10.244
418.69	10.271
419.04	10.306
419.39	10.339
419.74	10.362
420.09	10.393
420.44	10.421
420.79	10.452
421.14	10.457
421.49	10.481
421.84	10.521
422.19	10.554
422.54	10.610
422.89	10.633
423.24	10.661
423.59	10.694
423.94	10.732
424.29	10.764
424.64	10.803
424.99	10.851
425.34	10.918
425.68	10.974
426.03	11.054
426.38	11.093
426.73	11.164
427.08	11.222
427.43	11.288
427.78	11.343
428.13	11.409
428.48	11.468
428.83	11.559
429.18	11.599
429.53	11.629
429.87	11.654
430.22	11.660
430.57	11.673
430.92	11.703
431.27	11.764
431.62	11.781
431.97	11.800
432.32	11.846
432.67	11.861
433.01	11.892
433.36	11.942
433.71	12.012
434.06	12.079
434.41	12.154
434.76	12.217
435.11	12.237
435.45	12.302
435.80	12.347
436.15	12.368
436.50	12.383
436.85	12.399
437.20	12.407
437.54	12.394
437.89	12.402
438.24	12.420
438.59	12.418
438.94	12.440
439.29	12.450
439.63	12.485
439.98	12.505
440.33	12.544
440.68	12.579
441.03	12.613
441.37	12.628
441.72	12.647
442.07	12.645
442.42	12.679
442.76	12.686
443.11	12.691
443.46	12.671
443.81	12.677
444.16	12.680
444.50	12.677
444.85	12.670
445.20	12.679
445.55	12.701
445.89	12.706
446.24	12.702
446.59	12.705
446.94	12.725
447.28	12.771
447.63	12.804
447.98	12.827
448.32	12.868
448.67	12.903
449.02	12.949
449.37	12.984
449.71	13.031
450.06	13.051
450.41	13.107
450.75	13.118
451.10	13.121
451.45	13.129
451.79	13.150
452.14	13.149
452.49	13.174
452.84	13.208
453.18	13.208
453.53	13.223
453.88	13.274
454.22	13.275
454.57	13.315
454.92	13.377
455.26	13.419
455.61	13.447
455.95	13.496
456.30	13.526
456.65	13.517
456.99	13.554
457.34	13.592
457.69	13.632
458.03	13.655
458.38	13.684
458.73	13.706
459.07	13.743
459.42	13.787
459.76	13.813
460.11	13.842
460.46	13.903
460.80	13.953
461.15	14.002
461.49	14.022
461.84	14.101
462.19	14.171
462.53	14.242
462.88	14.305
463.22	14.359
463.57	14.411
463.91	14.463
464.26	14.532
464.61	14.577
464.95	14.640
465.30	14.702
465.64	14.740
465.99	14.770
466.33	14.784
466.68	14.818
467.02	14.836
467.37	14.870
467.71	14.908
468.06	14.940
468.41	14.969
468.75	14.996
469.10	15.009
469.44	15.041
469.79	15.065
470.13	15.128
470.48	15.144
470.82	15.199
471.17	15.248
471.51	15.287
471.86	15.302
472.20	15.342
472.55	15.378
472.89	15.433
473.23	15.451
473.58	15.501
473.92	15.509
474.27	15.551
474.61	15.569
474.96	15.575
475.30	15.579
475.65	15.605
475.99	15.615
476.34	15.617
476.68	15.637
477.02	15.677
477.37	15.711
477.71	15.741
478.06	15.780
478.40	15.866
478.75	16.009
479.09	16.168
479.43	16.331
479.78	16.543
480.12	16.776
480.47	17.021
480.81	17.284
481.15	17.551
481.50	17.837
481.84	18.183
482.19	18.531
482.53	18.818
482.87	18.967
483.22	18.968
483.56	18.810
483.90	18.547
484.25	18.225
484.59	17.914
484.94	17.683
485.28	17.451
485.62	17.140
485.97	16.824
486.31	16.548
486.65	16.419
487.00	16.426
487.34	16.567
487.68	16.795
488.03	17.072
488.37	17.295
488.71	17.402
489.06	17.466
489.40	17.516
489.74	17.551
490.09	17.595
490.43	17.617
490.77	17.658
491.11	17.698
491.46	17.745
491.80	17.784
492.14	17.827
492.49	17.881
492.83	17.949
493.17	18.023
493.51	18.110
493.86	18.196
494.20	18.292
494.54	18.357
494.88	18.449
495.23	18.528
495.57	18.619
495.91	18.709
496.25	18.797
496.60	18.853
496.94	18.950
497.28	19.031
497.62	19.115
497.97	19.224
498.31	19.355
498.65	19.464
498.99	19.592
499.33	19.688
499.68	19.822
500.02	19.930
500.36	20.068
500.70	20.172
501.04	20.296
501.39	20.398
501.73	20.509
502.07	20.644
502.41	20.754
502.75	20.850
503.09	20.980
503.44	21.086
503.78	21.210
504.12	21.336
504.46	21.461
504.80	21.576
505.14	21.715
505.49	21.819
505.83	21.925
506.17	22.043
506.51	22.176
506.85	22.295
507.19	22.423
507.53	22.550
507.87	22.677
508.22	22.804
508.56	22.918
508.90	23.048
509.24	23.176
509.58	23.304
509.92	23.434
510.26	23.564
510.60	23.693
510.94	23.807
511.28	23.920
511.63	24.067
511.97	24.176
512.31	24.335
512.65	24.471
512.99	24.606
513.33	24.750
513.67	24.921
514.01	25.056
514.35	25.180
514.69	25.325
515.03	25.488
515.37	25.586
515.71	25.732
516.05	25.819
516.39	25.911
516.73	26.028
517.07	26.103
517.41	26.183
517.75	26.264
518.09	26.352
518.43	26.431
518.77	26.503
519.11	26.636
519.45	26.746
519.79	26.870
520.13	26.999
520.47	27.110
520.81	27.274
521.15	27.397
521.49	27.542
521.83	27.656
522.17	27.800
522.51	27.917
522.85	28.030
523.19	28.217
523.53	28.434
523.87	28.665
524.21	28.912
524.55	29.133
524.89	29.326
525.23	29.528
525.57	29.706
525.91	29.860
526.25	30.024
526.58	30.155
526.92	30.244
527.26	30.304
527.60	30.338
527.94	30.338
528.28	30.338
528.62	30.336
528.96	30.318
529.30	30.323
529.64	30.312
529.97	30.286
530.31	30.291
530.65	30.282
530.99	30.302
531.33	30.355
531.67	30.420
532.01	30.464
532.35	30.513
532.68	30.537
533.02	30.550
533.36	30.577
533.70	30.592
534.04	30.608
534.38	30.631
534.71	30.699
535.05	30.738
535.39	30.748
535.73	30.806
536.07	30.914
536.41	31.028
536.74	31.146
537.08	31.274
537.42	31.398
537.76	31.505
538.10	31.632
538.43	31.706
538.77	31.780
539.11	31.888
539.45	31.969
539.79	31.998
540.12	32.032
540.46	32.049
540.80	32.043
541.14	32.053
541.47	32.058
541.81	32.060
542.15	32.064
542.49	32.053
542.82	32.040
543.16	32.026
543.50	32.039
543.84	32.066
544.17	32.103
544.51	32.178
544.85	32.218
545.18	32.248
545.52	32.295
545.86	32.329
546.20	32.397
546.53	32.458
546.87	32.520
547.21	32.582
547.54	32.650
547.88	32.731
548.22	32.781
548.55	32.872
548.89	32.938
549.23	32.985
549.56	33.025
549.90	33.090
550.24	33.137
550.57	33.179
550.91	33.197
551.25	33.215
551.58	33.237
551.92	33.276
552.26	33.278
552.59	33.319
552.93	33.382
553.27	33.439
553.60	33.453
553.94	33.490
554.27	33.547
554.61	33.626
554.95	33.700
555.28	33.789
555.62	33.851
555.95	33.934
556.29	34.014
556.63	34.068
556.96	34.098
557.30	34.163
557.63	34.208
557.97	34.236
558.31	34.246
558.64	34.297
558.98	34.292
559.31	34.302
559.65	34.334
559.98	34.306
560.32	34.354
560.65	34.406
560.99	34.452
561.33	34.513
561.66	34.546
562.00	34.602
562.33	34.631
562.67	34.683
563.00	34.733
563.34	34.741
563.67	34.782
564.01	34.768
564.34	34.806
564.68	34.811
565.01	34.797
565.35	34.814
565.68	34.852
566.02	34.874
566.35	34.907
566.69	34.907
567.02	34.945
567.36	34.970
567.69	35.008
568.03	35.020
568.36	35.045
568.69	35.072
569.03	35.136
569.36	35.149
569.70	35.130
570.03	35.190
570.37	35.233
570.70	35.277
571.04	35.341
571.37	35.365
571.70	35.432
572.04	35.461
572.37	35.523
572.71	35.524
573.04	35.571
573.37	35.661
573.71	35.655
574.04	35.728
574.38	35.782
574.71	35.804
575.04	35.894
575.38	35.926
575.71	35.981
576.05	36.046
576.38	36.150
576.71	36.174
577.05	36.221
577.38	36.315
577.71	36.368
578.05	36.404
578.38	36.467
578.71	36.468
579.05	36.524
579.38	36.605
579.71	36.635
580.05	36.622
580.38	36.693
580.71	36.732
581.05	36.778
581.38	36.770
581.71	36.817
582.05	36.876
582.38	36.952
582.71	36.992
583.04	37.037
583.38	37.117
583.71	37.191
584.04	37.232
584.38	37.250
584.71	37.223
585.04	37.274
585.37	37.310
585.71	37.316
586.04	37.331
586.37	37.335
586.70	37.325
587.04	37.312
587.37	37.310
587.70	37.340
588.03	37.360
588.37	37.408
588.70	37.464
589.03	37.457
589.36	37.509
589.69	37.498
590.03	37.543
590.36	37.565
590.69	37.601
591.02	37.654
591.35	37.670
591.69	37.688
592.02	37.670
592.35	37.608
592.68	37.640
593.01	37.596
593.35	37.653
593.68	37.640
594.01	37.639
594.34	37.651
594.67	37.618
595.00	37.589
595.34	37.577
595.67	37.583
596.00	37.650
596.33	37.640
596.66	37.678
596.99	37.694
597.32	37.745
597.65	37.809
597.99	37.826
598.32	37.873
598.65	37.929
598.98	38.006
599.31	38.036
599.64	38.041
599.97	38.092
600.30	38.067
600.63	38.037
600.96	37.999
601.30	37.957
601.63	37.929
601.96	37.908
602.29	37.909
602.62	37.913
602.95	37.917
603.28	37.906
603.61	37.915
603.94	37.943
604.27	37.924
604.60	37.925
604.93	37.977
605.26	37.977
605.59	38.026
605.92	38.046
606.25	38.043
606.58	38.086
606.91	38.114
607.24	38.081
607.57	38.082
607.90	38.130
608.23	38.158
608.56	38.163
608.89	38.204
609.22	38.224
609.55	38.228
609.88	38.247
610.21	38.287
610.54	38.334
610.87	38.385
611.20	38.451
611.53	38.547
611.86	38.619
612.19	38.664
612.52	38.742
612.85	38.757
613.18	38.806
613.51	38.784
613.84	38.776
614.17	38.755
614.49	38.785
614.82	38.781
615.15	38.739
615.48	38.730
615.81	38.725
616.14	38.694
616.47	38.677
616.80	38.691
617.13	38.749
617.46	38.761
617.78	38.765
618.11	38.777
618.44	38.808
618.77	38.822
619.10	38.798
619.43	38.792
619.76	38.806
620.09	38.846
620.41	38.810
620.74	38.841
621.07	38.818
621.40	38.850
621.73	38.814
622.06	38.805
622.38	38.742
622.71	38.752
623.04	38.709
623.37	38.698
623.70	38.679
624.02	38.673
624.35	38.633
624.68	38.612
625.01	38.562
625.34	38.553
625.66	38.505
625.99	38.562
626.32	38.535
626.65	38.574
626.98	38.557
627.30	38.556
627.63	38.578
627.96	38.589
628.29	38.574
628.61	38.594
628.94	38.638
629.27	38.673
629.60	38.669
629.92	38.624
630.25	38.618
630.58	38.603
630.91	38.595
631.23	38.584
631.56	38.563
631.89	38.623
632.21	38.629
632.54	38.556
632.87	38.571
633.19	38.590
633.52	38.655
633.85	38.649
634.18	38.633
634.50	38.578
634.83	38.564
635.16	38.561
635.48	38.526
635.81	38.513
636.14	38.599
636.46	38.613
636.79	38.570
637.11	38.529
637.44	38.549
637.77	38.593
638.09	38.619
638.42	38.631
638.75	38.634
639.07	38.660
639.40	38.643
639.73	38.614
640.05	38.647
640.38	38.693
640.70	38.699
641.03	38.705
641.36	38.752
641.68	38.710
642.01	38.673
642.33	38.666
642.66	38.664
642.98	38.682
643.31	38.661
643.64	38.542
643.96	38.467
644.29	38.467
644.61	38.422
644.94	38.333
645.26	38.328
645.59	38.356
645.91	38.397
646.24	38.414
646.56	38.354
646.89	38.314
647.22	38.359
647.54	38.340
647.87	38.326
648.19	38.321
648.52	38.317
648.84	38.333
649.17	38.318
649.49	38.236
649.82	38.150
650.14	38.180
650.47	38.176
650.79	38.130
651.11	38.093
651.44	38.106
651.76	38.050
652.09	38.077
652.41	38.069
652.74	37.998
653.06	37.981
653.39	37.998
653.71	37.974
654.04	37.956
654.36	37.927
654.68	37.929
655.01	37.843
655.33	37.829
655.66	37.749
655.98	37.691
656.30	37.634
656.63	37.593
656.95	37.529
657.28	37.451
657.60	37.392
657.92	37.314
658.25	37.226
658.57	37.212
658.90	37.225
659.22	37.177
659.54	37.198
659.87	37.175
660.19	37.135
660.51	37.121
660.84	37.122
661.16	37.156
661.48	37.192
661.81	37.304
662.13	37.283
662.45	37.176
662.78	37.195
663.10	37.145
663.42	37.181
663.75	37.213
664.07	37.194
664.39	37.169
664.72	37.081
665.04	36.977
665.36	36.775
665.69	36.681
666.01	36.666
666.33	36.628
666.65	36.603
666.98	36.571
667.30	36.485
667.62	36.375
667.94	36.331
668.27	36.295
668.59	36.283
668.91	36.362
669.23	36.412
669.56	36.387
669.88	36.332
670.20	36.252
670.52	36.159
670.85	36.197
671.17	36.218
671.49	36.212
671.81	36.212
672.13	36.204
672.46	36.152
672.78	36.062
673.10	36.031
673.42	36.011
673.74	36.089
674.07	36.095
674.39	36.008
674.71	36.012
675.03	35.973
675.35	35.840
675.67	35.818
676.00	35.745
676.32	35.716
676.64	35.678
676.96	35.624
677.28	35.519
677.60	35.521
677.92	35.501
678.25	35.397
678.57	35.368
678.89	35.443
679.21	35.419
679.53	35.442
679.85	35.443
680.17	35.443
680.49	35.412
680.81	35.413
681.13	35.349
681.46	35.313
681.78	35.447
682.10	35.392
682.42	35.336
682.74	35.274
683.06	35.262
683.38	35.225
683.70	35.207
684.02	35.222
684.34	35.169
684.66	35.198
684.98	35.165
685.30	35.104
685.62	35.076
685.94	34.991
686.26	34.960
686.58	34.923
686.90	34.922
687.22	34.874
687.54	34.798
687.86	34.716
688.18	34.610
688.50	34.498
688.82	34.371
689.14	34.326
689.46	34.341
689.78	34.278
690.10	34.206
690.42	34.173
690.74	34.102
691.06	34.053
691.38	34.046
691.70	34.049
692.02	34.087
692.34	34.073
692.66	34.079
692.98	33.988
693.30	34.081
693.62	34.028
693.94	33.921
694.26	33.843
694.57	33.703
694.89	33.584
695.21	33.610
695.53	33.555
695.85	33.503
696.17	33.377
696.49	33.373
696.81	33.196
697.13	33.130
697.44	33.131
697.76	33.060
698.08	33.114
698.40	33.190
698.72	33.026
699.04	32.949
699.36	32.835
699.67	32.807
699.99	32.669
700.31	32.625
700.63	32.584
700.95	32.447
701.27	32.406
701.58	32.331
701.90	32.101
702.22	32.148
702.54	31.993
702.86	31.961
703.17	31.837
703.49	31.750
703.81	31.715
704.13	31.635
704.45	31.624
704.76	31.552
705.08	31.484
705.40	31.483
705.72	31.265
706.03	31.303
706.35	31.347
706.67	31.308
706.99	31.329
707.30	31.317
707.62	31.283
707.94	31.225
708.26	31.147
708.57	31.027
708.89	31.042
709.21	31.050
709.53	31.011
709.84	30.890
710.16	30.946
710.48	30.930
710.79	30.828
711.11	30.743
711.43	30.623
711.74	30.598
712.06	30.714
712.38	30.599
712.69	30.597
713.01	30.666
713.33	30.602
713.64	30.525
713.96	30.481
714.28	30.578
714.59	30.610
714.91	30.759
715.23	30.862
715.54	30.713
715.86	30.715
716.17	30.725
716.49	30.674
716.81	30.708
717.12	30.639
717.44	30.522
717.76	30.493
718.07	30.405
718.39	30.263
718.70	30.127
719.02	30.083
719.33	30.031
719.65	29.833
719.97	29.685
720.28	29.565
720.60	29.570
720.91	29.640
721.23	29.453
721.54	29.392
721.86	29.357
722.17	29.345
722.49	29.331
722.81	29.270
723.12	29.202
723.44	29.115
723.75	29.095
724.07	29.047
724.38	28.889
724.70	28.980
725.01	28.993
725.33	29.001
725.64	28.873
725.96	28.784
726.27	28.710
726.59	28.779
726.90	28.806
727.22	28.793
727.53	28.693
727.84	28.780
728.16	28.607
728.47	28.617
728.79	28.516
729.10	28.517
729.42	28.494
729.73	28.478
730.05	28.423
730.36	28.334
730.67	28.208
730.99	28.180
731.30	27.951
731.62	27.814
731.93	27.643
732.24	27.482
732.56	27.321
732.87	27.099
733.19	26.990
733.50	26.860
733.81	26.715
734.13	26.561
734.44	26.429
734.76	26.402
735.07	26.420
735.38	26.238
735.70	26.219
736.01	26.187
736.32	26.333
736.64	26.365
736.95	26.246
737.26	26.188
737.58	26.123
737.89	26.040
738.20	25.977
738.52	25.857
738.83	25.892
739.14	25.722
739.45	25.685
739.77	25.559
740.08	25.357
740.39	25.309
740.71	25.185
741.02	25.194
741.33	25.208
741.64	25.102
741.96	24.972
742.27	24.774
742.58	24.649
742.90	24.565
743.21	24.340
743.52	24.280
743.83	24.435
744.14	24.489
744.46	24.196
744.77	23.995
745.08	24.019
745.39	23.853
745.71	23.797
746.02	23.907
746.33	23.781
746.64	23.841
746.95	23.784
747.27	23.499
747.58	23.408
747.89	23.448
748.20	23.448
748.51	23.278
748.82	23.500
749.14	23.501
749.45	23.433
749.76	23.419
750.07	23.251
750.38	23.296
750.69	23.342
751.01	23.299
751.32	23.316
751.63	23.356
751.94	23.473
752.25	23.336
752.56	23.341
752.87	23.246
753.18	23.192
753.49	23.139
753.81	22.964
754.12	22.813
754.43	22.934
754.74	23.180
755.05	23.263
755.36	23.333
755.67	23.519
755.98	23.730
756.29	23.991
756.60	24.148
756.91	24.533
757.22	24.940
757.53	25.212
757.84	25.317
758.15	25.273
758.46	25.505
758.77	25.650
759.09	25.725
759.40	25.817
759.71	25.965
760.02	26.076
760.33	26.145
760.64	26.103
760.95	26.103
761.26	26.151
761.57	26.176
761.88	26.013
762.18	25.956
762.49	25.870
762.80	25.627
763.11	25.365
763.42	25.201
763.73	25.034
764.04	24.723
764.35	24.458
764.66	24.197
764.97	23.969
765.28	23.810
765.59	23.547
765.90	23.356
766.21	23.265
766.52	22.956
766.83	22.684
767.14	22.510
767.44	22.525
767.75	22.478
768.06	22.282
768.37	22.159
768.68	22.047
768.99	21.682
769.30	21.308
769.61	20.949
769.91	21.064
770.22	20.922
770.53	20.565
770.84	20.518
771.15	20.293
771.46	20.101
771.77	19.932
772.07	19.795
772.38	19.984
772.69	19.961
773.00	19.945
773.31	19.841
773.61	19.831
773.92	19.775
774.23	19.578
774.54	19.625
774.85	19.310
775.15	19.367
775.46	19.349
775.77	19.270
776.08	19.322
776.39	19.235
776.69	19.415
777.00	19.478
777.31	19.685
777.62	19.650
777.92	19.639
778.23	19.943
778.54	19.776
778.85	19.739
779.15	19.791
779.46	19.594
779.77	20.037
780.07	19.785
780.38	19.824
780.69	19.540
781.00	19.632
781.30	19.531
781.61	19.609
781.92	19.733
782.22	19.733
782.53	19.517
782.84	19.656
783.14	19.493
783.45	19.580
783.76	19.521
784.06	19.679
784.37	19.840
784.68	19.976
784.98	20.142
785.29	20.394
785.60	20.483
785.90	20.734
786.21	20.693
786.51	20.622
786.82	20.529
787.13	20.732
787.43	21.049
787.74	21.049
788.04	21.034
788.35	20.664
788.66	20.435
788.96	20.468
789.27	20.489
789.57	20.738
789.88	20.795
790.19	21.040
790.49	20.784
790.80	20.473
791.10	20.151
791.41	19.956
791.71	20.194
792.02	20.286
792.32	20.294
792.63	20.022
792.93	19.967
793.24	19.727
793.54	19.325
793.85	19.520
794.15	19.328
794.46	19.157
794.76	19.325
795.07	19.358
795.37	19.449
795.68	19.238
795.98	19.392
796.29	19.384
796.59	19.691
796.90	19.393
797.20	19.233
797.51	19.460
797.81	19.734
798.12	19.765
798.42	19.670
798.72	19.345
799.03	19.362
799.33	19.415
799.64	19.524
799.94	19.167
800.25	19.710
800.55	19.764
800.85	19.493
801.16	19.455
801.46	19.481
801.77	19.533
802.07	19.514
802.37	19.373
802.68	19.183
802.98	18.972
803.28	18.947
803.59	18.657
803.89	18.869
804.20	18.917
804.50	19.008
804.80	18.901
805.11	18.486
805.41	18.494
805.71	18.770
806.02	18.826
806.32	19.017
806.62	19.274
806.93	19.615
807.23	19.485
807.53	19.670
807.83	19.650
808.14	19.745
808.44	20.479
808.74	20.838
809.05	20.900
809.35	21.268
809.65	21.129
809.95	21.227
810.26	21.275
810.56	21.682
810.86	21.711
811.16	21.693
811.47	21.593
811.77	21.952
812.07	21.660
812.37	21.060
812.68	20.926
812.98	21.442
813.28	21.670
813.58	21.374
813.88	20.747
814.19	20.958
814.49	20.784
814.79	21.063
815.09	20.821
815.39	21.363
815.70	22.049
816.00	21.586
816.30	21.332
816.60	21.134
816.90	21.806
817.20	22.333
817.50	22.470
817.81	22.570
818.11	22.761
818.41	22.874
818.71	22.765
819.01	22.755
819.31	22.873
819.61	22.954
819.92	23.059
820.22	23.006
820.52	23.108
820.82	23.160
821.12	23.252
821.42	23.265
821.72	23.239
822.02	23.239
822.32	23.248
822.62	23.226
822.92	23.131
823.22	23.111
823.52	23.135
823.83	22.949
824.13	22.845
824.43	22.726
824.73	22.587
825.03	22.608
825.33	22.610
825.63	22.584
825.93	22.626
826.23	22.758
826.53	22.561
826.83	22.556
827.13	22.468
827.43	22.397
827.73	22.418
828.03	22.334
828.33	22.128
828.63	22.042
828.93	21.790
829.23	21.824
829.53	21.508
829.83	21.786
830.13	21.499
830.42	21.671
830.72	21.793
831.02	21.815
831.32	22.051
831.62	21.766
831.92	21.558
832.22	21.702
832.52	21.763
832.82	22.016
833.12	22.012
833.42	21.896
833.72	22.141
834.01	22.106
834.31	21.894
834.61	21.992
834.91	22.066
835.21	22.184
835.51	22.095
835.81	21.714
836.11	21.512
836.40	21.259
836.70	21.759
837.00	21.165
837.30	20.994
837.60	21.069
837.90	20.659
838.19	20.946
838.49	20.741
838.79	20.702
839.09	21.052
839.39	20.451
839.68	20.929
839.98	20.557
840.28	20.551
840.58	20.091
840.88	20.203
841.17	20.388
841.47	20.088
841.77	20.383
842.07	20.336
842.36	20.051
842.66	19.942
842.96	19.284
843.26	18.042
843.55	17.397
843.85	17.348
844.15	16.993
844.45	16.327
844.74	16.270
845.04	15.338
845.34	15.729
845.63	14.845
845.93	15.881
846.23	15.402
846.53	16.080
846.82	16.183
847.12	16.275
847.42	15.788
847.71	14.935
848.01	14.884
848.31	16.656
848.60	17.137
848.90	16.892
849.19	15.842
849.49	15.771
849.79	15.803
850.08	16.679
850.38	16.563
850.68	16.439
850.97	16.540
851.27	16.679
851.56	15.415
851.86	14.414
852.16	15.340
852.45	16.726
852.75	16.532
853.04	15.985
853.34	15.106
853.64	14.411
853.93	13.949
854.23	14.206
854.52	13.527
854.82	13.784
855.11	14.049
855.41	13.561
855.70	14.526
856.00	14.480
856.30	14.742
856.59	14.367
856.89	15.292
857.18	16.200
857.48	15.614
857.77	14.452
858.07	14.218
858.36	13.650
858.66	12.595
858.95	12.808
859.25	11.806
859.54	12.217
859.84	11.350
860.13	12.928
860.42	12.780
860.72	14.360
861.01	16.512
861.31	15.937
861.60	14.809
861.90	15.329
862.19	12.455
862.49	11.761
862.78	13.562
863.07	14.492
863.37	11.983
863.66	12.098
863.96	10.725
864.25	9.920
864.54	10.973
864.84	11.505
865.13	11.890
865.43	11.144
865.72	16.018
866.01	17.163
866.31	7.048
866.60	10.533
866.89	-3.352
>>>>>End Spectral Data<<<<<
