OOIBase32 Version 2.0.0.6 Data File
++++++++++++++++++++++++++++++++++++
Date: 01-23-2012, 22:05:05
User: Valued Ocean Optics Customer
Spectrometer Serial Number: USB2E2917
Spectrometer Channel: Master
Integration Time (msec): 5
Spectra Averaged: 10
Boxcar Smoothing: 5
Correct for Electrical Dark: Enabled
Time Normalized: Disabled
Dual-beam Reference: Disabled
Reference Channel: Master
Temperature: Not acquired
Spectrometer Type: S2000
ADC Type: USB2000
Number of Pixels in File: 2048
Graph Title: 
>>>>>Begin Spectral Data<<<<<
180.30	0.000
180.67	0.000
181.03	187.776
181.40	152.336
181.77	6178.200
182.14	-51.496
182.51	127.964
182.88	5440.148
183.25	309.457
183.62	34.826
183.99	38.223
184.36	65.154
184.73	66.766
185.10	-32.026
185.46	114.915
185.83	182.171
186.20	118.777
186.57	878.487
186.94	156.766
187.31	195.545
187.68	-83.314
188.05	-21.179
188.42	5.057
188.78	26.724
189.15	34.593
189.52	53.213
189.89	41.408
190.26	20.904
190.63	26.427
191.00	21.762
191.37	23.231
191.73	24.101
192.10	27.723
192.47	23.575
192.84	33.741
193.21	36.953
193.58	29.529
193.94	35.246
194.31	36.401
194.68	47.291
195.05	49.990
195.42	38.336
195.79	22.840
196.15	18.167
196.52	19.213
196.89	5.353
197.26	4.536
197.63	-0.503
198.00	-3.942
198.36	-5.441
198.73	-15.745
199.10	-13.579
199.47	-3.018
199.84	9.798
200.20	11.393
200.57	8.328
200.94	3.242
201.31	0.184
201.68	20.900
202.04	25.000
202.41	29.638
202.78	30.730
203.15	29.813
203.51	9.778
203.88	1.872
204.25	-4.034
204.62	4.651
204.98	13.886
205.35	14.347
205.72	1.698
206.09	-0.466
206.46	8.717
206.82	16.576
207.19	10.512
207.56	25.739
207.92	29.381
208.29	36.744
208.66	32.301
209.03	30.015
209.39	24.290
209.76	18.325
210.13	12.034
210.50	9.295
210.86	13.033
211.23	27.892
211.60	17.089
211.96	20.299
212.33	17.153
212.70	20.481
213.07	10.435
213.43	16.381
213.80	16.704
214.17	18.320
214.53	10.788
214.90	3.099
215.27	-13.653
215.63	-17.949
216.00	-23.232
216.37	-21.597
216.74	-39.450
217.10	-42.277
217.47	-51.045
217.84	-38.693
218.20	-28.309
218.57	-21.509
218.94	-18.568
219.30	-11.420
219.67	-4.150
220.04	-2.434
220.40	1.180
220.77	1.731
221.13	1.127
221.50	-5.210
221.87	-11.792
222.23	-16.689
222.60	-11.645
222.97	-13.544
223.33	-9.193
223.70	-4.611
224.07	-0.904
224.43	-0.558
224.80	3.145
225.16	5.405
225.53	7.537
225.90	3.643
226.26	4.132
226.63	3.425
226.99	4.967
227.36	4.348
227.73	2.388
228.09	0.637
228.46	1.532
228.82	2.742
229.19	3.445
229.56	2.831
229.92	5.535
230.29	5.638
230.65	6.184
231.02	6.739
231.38	7.070
231.75	7.043
232.12	8.030
232.48	7.877
232.85	6.642
233.21	8.678
233.58	10.399
233.94	10.991
234.31	8.900
234.68	7.705
235.04	6.692
235.41	4.961
235.77	6.038
236.14	5.502
236.50	4.159
236.87	4.577
237.23	1.711
237.60	0.974
237.96	1.452
238.33	3.236
238.69	3.197
239.06	2.858
239.42	3.375
239.79	3.022
240.15	3.503
240.52	3.800
240.88	4.081
241.25	4.727
241.61	4.578
241.98	4.252
242.34	3.696
242.71	4.059
243.07	4.513
243.44	4.282
243.80	4.156
244.17	3.672
244.53	3.656
244.90	3.016
245.26	2.944
245.63	2.915
245.99	2.706
246.36	2.892
246.72	2.466
247.09	2.314
247.45	2.346
247.81	2.285
248.18	2.305
248.54	2.293
248.91	2.431
249.27	2.492
249.64	2.566
250.00	2.927
250.36	3.183
250.73	3.471
251.09	3.208
251.46	3.155
251.82	3.638
252.19	3.981
252.55	3.817
252.91	3.866
253.28	3.392
253.64	3.076
254.01	2.636
254.37	2.315
254.73	2.744
255.10	3.137
255.46	3.154
255.83	2.552
256.19	2.916
256.55	2.978
256.92	3.270
257.28	3.451
257.65	3.737
258.01	4.035
258.37	3.956
258.74	3.846
259.10	3.747
259.46	4.039
259.83	4.376
260.19	4.087
260.55	4.070
260.92	3.902
261.28	3.719
261.64	3.390
262.01	3.038
262.37	3.021
262.73	2.729
263.10	2.522
263.46	2.493
263.82	2.259
264.19	2.185
264.55	2.172
264.91	2.301
265.28	2.401
265.64	2.493
266.00	2.519
266.37	2.498
266.73	2.852
267.09	3.163
267.46	2.880
267.82	2.862
268.18	3.072
268.54	3.179
268.91	3.465
269.27	3.586
269.63	3.537
270.00	3.663
270.36	3.607
270.72	3.455
271.08	2.939
271.45	2.954
271.81	3.207
272.17	3.305
272.53	3.068
272.90	2.616
273.26	2.488
273.62	2.551
273.98	2.285
274.35	2.103
274.71	2.281
275.07	2.556
275.43	2.781
275.80	2.815
276.16	2.901
276.52	2.979
276.88	3.113
277.25	3.116
277.61	3.317
277.97	3.506
278.33	3.436
278.69	3.145
279.06	3.239
279.42	2.781
279.78	2.470
280.14	2.392
280.50	2.591
280.87	2.609
281.23	2.744
281.59	2.554
281.95	2.429
282.31	2.730
282.68	2.917
283.04	2.944
283.40	3.078
283.76	3.021
284.12	2.948
284.48	2.961
284.85	2.937
285.21	2.863
285.57	3.015
285.93	3.174
286.29	3.101
286.65	3.094
287.02	3.112
287.38	3.207
287.74	3.233
288.10	3.152
288.46	2.990
288.82	2.872
289.18	2.760
289.54	2.588
289.91	2.648
290.27	2.685
290.63	2.607
290.99	2.438
291.35	2.366
291.71	2.728
292.07	2.781
292.43	2.971
292.79	3.301
293.16	3.384
293.52	3.416
293.88	3.358
294.24	3.380
294.60	3.296
294.96	3.476
295.32	3.655
295.68	3.352
296.04	3.507
296.40	3.443
296.76	3.467
297.12	3.543
297.49	3.669
297.85	3.720
298.21	3.689
298.57	3.731
298.93	3.748
299.29	3.595
299.65	3.694
300.01	3.688
300.37	3.574
300.73	3.606
301.09	3.658
301.45	3.573
301.81	3.458
302.17	3.478
302.53	3.557
302.89	3.499
303.25	3.566
303.61	3.734
303.97	3.632
304.33	3.734
304.69	3.655
305.05	3.769
305.41	3.840
305.77	4.164
306.13	4.212
306.49	4.433
306.85	4.578
307.21	4.605
307.57	4.673
307.93	4.751
308.29	4.872
308.65	4.853
309.01	4.811
309.37	5.007
309.73	4.954
310.09	5.024
310.45	5.034
310.81	4.993
311.17	4.984
311.53	4.863
311.89	4.862
312.25	4.817
312.61	4.974
312.96	5.006
313.32	4.933
313.68	4.836
314.04	4.940
314.40	4.788
314.76	4.916
315.12	4.975
315.48	5.223
315.84	5.293
316.20	5.387
316.56	5.311
316.92	5.337
317.27	5.364
317.63	5.330
317.99	5.278
318.35	5.363
318.71	5.287
319.07	5.263
319.43	5.151
319.79	5.118
320.15	5.008
320.50	4.834
320.86	4.885
321.22	4.817
321.58	4.914
321.94	4.896
322.30	4.969
322.66	4.959
323.01	5.065
323.37	5.063
323.73	5.170
324.09	5.369
324.45	5.552
324.81	5.499
325.17	5.526
325.52	5.527
325.88	5.480
326.24	5.591
326.60	5.679
326.96	5.768
327.31	5.765
327.67	5.673
328.03	5.613
328.39	5.678
328.75	5.717
329.11	5.693
329.46	5.758
329.82	5.858
330.18	5.732
330.54	5.734
330.90	5.689
331.25	5.723
331.61	5.781
331.97	5.747
332.33	5.730
332.68	5.747
333.04	5.737
333.40	5.837
333.76	5.810
334.11	5.830
334.47	5.784
334.83	5.708
335.19	5.800
335.54	5.936
335.90	6.075
336.26	6.049
336.62	6.061
336.97	6.136
337.33	6.007
337.69	6.048
338.05	6.032
338.40	6.130
338.76	6.187
339.12	6.142
339.48	6.118
339.83	6.095
340.19	6.172
340.55	6.196
340.90	6.120
341.26	6.129
341.62	6.176
341.97	6.242
342.33	6.284
342.69	6.280
343.04	6.290
343.40	6.278
343.76	6.283
344.12	6.319
344.47	6.314
344.83	6.380
345.19	6.446
345.54	6.492
345.90	6.536
346.26	6.460
346.61	6.594
346.97	6.636
347.32	6.687
347.68	6.637
348.04	6.549
348.39	6.628
348.75	6.779
349.11	6.770
349.46	6.716
349.82	6.716
350.18	6.766
350.53	6.623
350.89	6.666
351.24	6.646
351.60	6.722
351.96	6.858
352.31	6.854
352.67	6.713
353.02	6.740
353.38	6.723
353.74	6.661
354.09	6.709
354.45	6.789
354.80	6.762
355.16	6.721
355.52	6.719
355.87	6.600
356.23	6.592
356.58	6.679
356.94	6.692
357.29	6.724
357.65	6.763
358.00	6.730
358.36	6.700
358.72	6.707
359.07	6.772
359.43	6.727
359.78	6.776
360.14	6.802
360.49	6.859
360.85	6.871
361.20	6.975
361.56	7.031
361.91	7.103
362.27	7.185
362.62	7.170
362.98	7.141
363.33	7.189
363.69	7.206
364.04	7.164
364.40	7.163
364.75	7.211
365.11	7.186
365.46	7.166
365.82	7.133
366.17	7.125
366.53	7.207
366.88	7.263
367.24	7.321
367.59	7.413
367.95	7.516
368.30	7.504
368.66	7.516
369.01	7.574
369.37	7.640
369.72	7.631
370.08	7.703
370.43	7.754
370.78	7.738
371.14	7.773
371.49	7.772
371.85	7.779
372.20	7.811
372.56	7.865
372.91	7.854
373.26	7.842
373.62	7.878
373.97	7.929
374.33	7.886
374.68	7.961
375.03	8.027
375.39	8.032
375.74	8.051
376.10	8.092
376.45	8.075
376.80	8.113
377.16	8.162
377.51	8.239
377.87	8.214
378.22	8.286
378.57	8.342
378.93	8.345
379.28	8.425
379.63	8.487
379.99	8.540
380.34	8.573
380.70	8.564
381.05	8.661
381.40	8.699
381.76	8.722
382.11	8.797
382.46	8.771
382.82	8.790
383.17	8.825
383.52	8.861
383.88	8.875
384.23	8.949
384.58	9.014
384.94	9.005
385.29	9.034
385.64	9.089
385.99	9.119
386.35	9.245
386.70	9.300
387.05	9.301
387.41	9.315
387.76	9.315
388.11	9.309
388.47	9.346
388.82	9.345
389.17	9.380
389.52	9.423
389.88	9.457
390.23	9.455
390.58	9.498
390.93	9.543
391.29	9.585
391.64	9.660
391.99	9.683
392.34	9.716
392.70	9.773
393.05	9.781
393.40	9.782
393.75	9.820
394.11	9.816
394.46	9.857
394.81	9.867
395.16	9.857
395.52	9.875
395.87	9.881
396.22	9.856
396.57	9.837
396.92	9.866
397.28	9.912
397.63	9.853
397.98	9.904
398.33	9.888
398.68	9.922
399.04	9.958
399.39	9.952
399.74	10.006
400.09	10.072
400.44	10.091
400.80	10.112
401.15	10.121
401.50	10.190
401.85	10.222
402.20	10.251
402.55	10.278
402.90	10.314
403.26	10.379
403.61	10.427
403.96	10.460
404.31	10.494
404.66	10.536
405.01	10.587
405.36	10.596
405.72	10.613
406.07	10.642
406.42	10.671
406.77	10.701
407.12	10.709
407.47	10.733
407.82	10.731
408.17	10.748
408.53	10.786
408.88	10.780
409.23	10.806
409.58	10.807
409.93	10.792
410.28	10.820
410.63	10.834
410.98	10.910
411.33	10.906
411.68	10.925
412.03	10.953
412.38	10.954
412.73	10.982
413.09	10.960
413.44	10.962
413.79	10.972
414.14	10.961
414.49	10.942
414.84	10.897
415.19	10.896
415.54	10.898
415.89	10.906
416.24	10.884
416.59	10.866
416.94	10.876
417.29	10.877
417.64	10.877
417.99	10.895
418.34	10.913
418.69	10.923
419.04	10.918
419.39	10.950
419.74	10.943
420.09	10.970
420.44	11.004
420.79	11.032
421.14	11.051
421.49	11.083
421.84	11.096
422.19	11.132
422.54	11.167
422.89	11.216
423.24	11.226
423.59	11.274
423.94	11.311
424.29	11.324
424.64	11.368
424.99	11.428
425.34	11.482
425.68	11.531
426.03	11.573
426.38	11.619
426.73	11.671
427.08	11.743
427.43	11.822
427.78	11.856
428.13	11.944
428.48	11.960
428.83	11.989
429.18	11.994
429.53	12.029
429.87	12.076
430.22	12.092
430.57	12.125
430.92	12.140
431.27	12.156
431.62	12.176
431.97	12.176
432.32	12.217
432.67	12.237
433.01	12.264
433.36	12.310
433.71	12.321
434.06	12.364
434.41	12.400
434.76	12.444
435.11	12.469
435.45	12.512
435.80	12.530
436.15	12.537
436.50	12.559
436.85	12.583
437.20	12.587
437.54	12.623
437.89	12.624
438.24	12.625
438.59	12.620
438.94	12.627
439.29	12.650
439.63	12.652
439.98	12.703
440.33	12.730
440.68	12.752
441.03	12.780
441.37	12.772
441.72	12.789
442.07	12.808
442.42	12.850
442.76	12.849
443.11	12.836
443.46	12.857
443.81	12.836
444.16	12.834
444.50	12.842
444.85	12.840
445.20	12.858
445.55	12.875
445.89	12.888
446.24	12.872
446.59	12.908
446.94	12.946
447.28	12.992
447.63	13.033
447.98	13.076
448.32	13.119
448.67	13.135
449.02	13.174
449.37	13.176
449.71	13.207
450.06	13.249
450.41	13.291
450.75	13.291
451.10	13.312
451.45	13.349
451.79	13.370
452.14	13.408
452.49	13.444
452.84	13.470
453.18	13.527
453.53	13.550
453.88	13.598
454.22	13.607
454.57	13.651
454.92	13.668
455.26	13.700
455.61	13.713
455.95	13.709
456.30	13.758
456.65	13.785
456.99	13.808
457.34	13.830
457.69	13.849
458.03	13.876
458.38	13.904
458.73	13.926
459.07	13.966
459.42	14.018
459.76	14.066
460.11	14.082
460.46	14.111
460.80	14.164
461.15	14.229
461.49	14.301
461.84	14.374
462.19	14.444
462.53	14.525
462.88	14.563
463.22	14.597
463.57	14.673
463.91	14.736
464.26	14.792
464.61	14.828
464.95	14.857
465.30	14.877
465.64	14.897
465.99	14.916
466.33	14.935
466.68	14.965
467.02	15.015
467.37	15.025
467.71	15.062
468.06	15.083
468.41	15.115
468.75	15.157
469.10	15.184
469.44	15.208
469.79	15.239
470.13	15.276
470.48	15.275
470.82	15.287
471.17	15.327
471.51	15.328
471.86	15.358
472.20	15.368
472.55	15.391
472.89	15.414
473.23	15.441
473.58	15.483
473.92	15.475
474.27	15.506
474.61	15.516
474.96	15.501
475.30	15.508
475.65	15.507
475.99	15.546
476.34	15.560
476.68	15.603
477.02	15.615
477.37	15.619
477.71	15.637
478.06	15.687
478.40	15.749
478.75	15.855
479.09	15.982
479.43	16.131
479.78	16.285
480.12	16.466
480.47	16.671
480.81	16.916
481.15	17.154
481.50	17.415
481.84	17.720
482.19	18.045
482.53	18.307
482.87	18.451
483.22	18.419
483.56	18.249
483.90	17.995
484.25	17.661
484.59	17.336
484.94	17.112
485.28	16.888
485.62	16.589
485.97	16.264
486.31	15.987
486.65	15.823
487.00	15.828
487.34	15.956
487.68	16.155
488.03	16.399
488.37	16.620
488.71	16.709
489.06	16.742
489.40	16.773
489.74	16.798
490.09	16.827
490.43	16.842
490.77	16.861
491.11	16.884
491.46	16.912
491.80	16.943
492.14	16.947
492.49	16.974
492.83	17.002
493.17	17.035
493.51	17.068
493.86	17.096
494.20	17.135
494.54	17.165
494.88	17.209
495.23	17.229
495.57	17.254
495.91	17.304
496.25	17.330
496.60	17.384
496.94	17.425
497.28	17.477
497.62	17.541
497.97	17.605
498.31	17.676
498.65	17.738
498.99	17.820
499.33	17.900
499.68	17.952
500.02	18.018
500.36	18.052
500.70	18.105
501.04	18.158
501.39	18.184
501.73	18.249
502.07	18.304
502.41	18.358
502.75	18.395
503.09	18.436
503.44	18.496
503.78	18.538
504.12	18.600
504.46	18.650
504.80	18.692
505.14	18.757
505.49	18.781
505.83	18.843
506.17	18.872
506.51	18.916
506.85	18.963
507.19	19.014
507.53	19.046
507.87	19.100
508.22	19.148
508.56	19.179
508.90	19.233
509.24	19.293
509.58	19.338
509.92	19.397
510.26	19.452
510.60	19.504
510.94	19.549
511.28	19.616
511.63	19.682
511.97	19.736
512.31	19.826
512.65	19.858
512.99	19.916
513.33	19.960
513.67	20.037
514.01	20.073
514.35	20.140
514.69	20.198
515.03	20.246
515.37	20.283
515.71	20.314
516.05	20.328
516.39	20.371
516.73	20.411
517.07	20.450
517.41	20.475
517.75	20.527
518.09	20.552
518.43	20.585
518.77	20.595
519.11	20.622
519.45	20.683
519.79	20.735
520.13	20.818
520.47	20.840
520.81	20.895
521.15	20.928
521.49	20.971
521.83	21.017
522.17	21.077
522.51	21.164
522.85	21.237
523.19	21.313
523.53	21.409
523.87	21.504
524.21	21.639
524.55	21.749
524.89	21.857
525.23	21.945
525.57	22.026
525.91	22.095
526.25	22.172
526.58	22.240
526.92	22.279
527.26	22.300
527.60	22.304
527.94	22.293
528.28	22.262
528.62	22.240
528.96	22.223
529.30	22.203
529.64	22.161
529.97	22.114
530.31	22.066
530.65	22.028
530.99	22.021
531.33	22.018
531.67	22.034
532.01	22.074
532.35	22.095
532.68	22.098
533.02	22.112
533.36	22.148
533.70	22.153
534.04	22.170
534.38	22.209
534.71	22.238
535.05	22.267
535.39	22.281
535.73	22.294
536.07	22.320
536.41	22.409
536.74	22.474
537.08	22.514
537.42	22.586
537.76	22.673
538.10	22.729
538.43	22.776
538.77	22.828
539.11	22.880
539.45	22.925
539.79	22.949
540.12	22.947
540.46	22.932
540.80	22.933
541.14	22.909
541.47	22.884
541.81	22.885
542.15	22.889
542.49	22.872
542.82	22.849
543.16	22.842
543.50	22.869
543.84	22.871
544.17	22.898
544.51	22.939
544.85	23.011
545.18	23.059
545.52	23.082
545.86	23.108
546.20	23.141
546.53	23.190
546.87	23.227
547.21	23.238
547.54	23.280
547.88	23.352
548.22	23.402
548.55	23.448
548.89	23.503
549.23	23.517
549.56	23.534
549.90	23.597
550.24	23.630
550.57	23.657
550.91	23.684
551.25	23.736
551.58	23.734
551.92	23.770
552.26	23.779
552.59	23.787
552.93	23.852
553.27	23.904
553.60	23.909
553.94	23.974
554.27	24.037
554.61	24.124
554.95	24.177
555.28	24.250
555.62	24.299
555.95	24.370
556.29	24.429
556.63	24.440
556.96	24.477
557.30	24.536
557.63	24.543
557.97	24.576
558.31	24.574
558.64	24.581
558.98	24.586
559.31	24.582
559.65	24.602
559.98	24.608
560.32	24.643
560.65	24.682
560.99	24.698
561.33	24.746
561.66	24.762
562.00	24.780
562.33	24.793
562.67	24.814
563.00	24.869
563.34	24.864
563.67	24.895
564.01	24.907
564.34	24.903
564.68	24.909
565.01	24.905
565.35	24.916
565.68	24.945
566.02	25.008
566.35	25.053
566.69	25.070
567.02	25.115
567.36	25.163
567.69	25.206
568.03	25.270
568.36	25.305
568.69	25.323
569.03	25.351
569.36	25.376
569.70	25.364
570.03	25.396
570.37	25.414
570.70	25.432
571.04	25.443
571.37	25.464
571.70	25.484
572.04	25.512
572.37	25.570
572.71	25.603
573.04	25.658
573.37	25.723
573.71	25.746
574.04	25.799
574.38	25.876
574.71	25.921
575.04	26.026
575.38	26.065
575.71	26.160
576.05	26.213
576.38	26.304
576.71	26.346
577.05	26.393
577.38	26.493
577.71	26.567
578.05	26.591
578.38	26.625
578.71	26.627
579.05	26.670
579.38	26.694
579.71	26.727
580.05	26.727
580.38	26.804
580.71	26.858
581.05	26.855
581.38	26.861
581.71	26.903
582.05	26.948
582.38	26.990
582.71	27.044
583.04	27.066
583.38	27.095
583.71	27.131
584.04	27.147
584.38	27.169
584.71	27.214
585.04	27.261
585.37	27.272
585.71	27.308
586.04	27.349
586.37	27.381
586.70	27.404
587.04	27.400
587.37	27.436
587.70	27.426
588.03	27.457
588.37	27.431
588.70	27.423
589.03	27.440
589.36	27.458
589.69	27.452
590.03	27.459
590.36	27.476
590.69	27.573
591.02	27.605
591.35	27.638
591.69	27.618
592.02	27.676
592.35	27.714
592.68	27.717
593.01	27.693
593.35	27.698
593.68	27.678
594.01	27.690
594.34	27.654
594.67	27.635
595.00	27.617
595.34	27.603
595.67	27.610
596.00	27.607
596.33	27.627
596.66	27.662
596.99	27.709
597.32	27.745
597.65	27.802
597.99	27.816
598.32	27.860
598.65	27.951
598.98	28.059
599.31	28.077
599.64	28.136
599.97	28.173
600.30	28.164
600.63	28.163
600.96	28.175
601.30	28.131
601.63	28.127
601.96	28.128
602.29	28.114
602.62	28.110
602.95	28.176
603.28	28.150
603.61	28.194
603.94	28.247
604.27	28.295
604.60	28.349
604.93	28.414
605.26	28.467
605.59	28.525
605.92	28.573
606.25	28.598
606.58	28.606
606.91	28.674
607.24	28.695
607.57	28.709
607.90	28.736
608.23	28.728
608.56	28.772
608.89	28.836
609.22	28.872
609.55	28.912
609.88	28.941
610.21	28.971
610.54	29.018
610.87	29.083
611.20	29.176
611.53	29.228
611.86	29.337
612.19	29.435
612.52	29.488
612.85	29.549
613.18	29.550
613.51	29.585
613.84	29.628
614.17	29.701
614.49	29.705
614.82	29.709
615.15	29.707
615.48	29.728
615.81	29.689
616.14	29.701
616.47	29.708
616.80	29.767
617.13	29.822
617.46	29.811
617.78	29.757
618.11	29.833
618.44	29.832
618.77	29.850
619.10	29.840
619.43	29.879
619.76	29.926
620.09	29.911
620.41	29.909
620.74	29.935
621.07	30.007
621.40	30.090
621.73	30.065
622.06	30.076
622.38	30.133
622.71	30.107
623.04	30.095
623.37	30.043
623.70	30.083
624.02	30.111
624.35	30.126
624.68	30.084
625.01	30.084
625.34	30.105
625.66	30.188
625.99	30.220
626.32	30.292
626.65	30.359
626.98	30.445
627.30	30.516
627.63	30.564
627.96	30.601
628.29	30.696
628.61	30.748
628.94	30.801
629.27	30.833
629.60	30.851
629.92	30.861
630.25	30.894
630.58	30.907
630.91	30.921
631.23	30.915
631.56	30.902
631.89	30.970
632.21	30.975
632.54	30.964
632.87	30.960
633.19	30.986
633.52	31.047
633.85	31.047
634.18	31.009
634.50	30.999
634.83	31.010
635.16	31.095
635.48	31.081
635.81	31.135
636.14	31.244
636.46	31.281
636.79	31.337
637.11	31.368
637.44	31.452
637.77	31.560
638.09	31.568
638.42	31.657
638.75	31.724
639.07	31.726
639.40	31.762
639.73	31.761
640.05	31.875
640.38	31.885
640.70	31.924
641.03	31.941
641.36	31.980
641.68	32.000
642.01	31.997
642.33	31.977
642.66	32.056
642.98	32.083
643.31	32.038
643.64	31.990
643.96	31.990
644.29	31.963
644.61	31.962
644.94	31.988
645.26	32.022
645.59	32.070
645.91	32.092
646.24	32.123
646.56	32.078
646.89	32.118
647.22	32.133
647.54	32.166
647.87	32.204
648.19	32.244
648.52	32.248
648.84	32.293
649.17	32.330
649.49	32.345
649.82	32.314
650.14	32.351
650.47	32.328
650.79	32.360
651.11	32.329
651.44	32.311
651.76	32.305
652.09	32.290
652.41	32.371
652.74	32.376
653.06	32.382
653.39	32.432
653.71	32.493
654.04	32.585
654.36	32.578
654.68	32.556
655.01	32.578
655.33	32.562
655.66	32.546
655.98	32.467
656.30	32.384
656.63	32.349
656.95	32.315
657.28	32.290
657.60	32.249
657.92	32.213
658.25	32.271
658.57	32.275
658.90	32.223
659.22	32.244
659.54	32.287
659.87	32.315
660.19	32.333
660.51	32.448
660.84	32.475
661.16	32.509
661.48	32.603
661.81	32.697
662.13	32.749
662.45	32.822
662.78	32.893
663.10	32.954
663.42	33.031
663.75	33.120
664.07	33.073
664.39	33.072
664.72	33.099
665.04	33.111
665.36	33.011
665.69	33.024
666.01	33.002
666.33	33.015
666.65	32.960
666.98	33.001
667.30	32.952
667.62	32.901
667.94	32.921
668.27	32.969
668.59	32.978
668.91	33.054
669.23	33.124
669.56	33.239
669.88	33.238
670.20	33.257
670.52	33.181
670.85	33.236
671.17	33.301
671.49	33.364
671.81	33.376
672.13	33.412
672.46	33.433
672.78	33.337
673.10	33.338
673.42	33.369
673.74	33.410
674.07	33.445
674.39	33.429
674.71	33.444
675.03	33.438
675.35	33.409
675.67	33.389
676.00	33.385
676.32	33.383
676.64	33.353
676.96	33.341
677.28	33.363
677.60	33.368
677.92	33.354
678.25	33.313
678.57	33.308
678.89	33.348
679.21	33.354
679.53	33.355
679.85	33.429
680.17	33.464
680.49	33.468
680.81	33.504
681.13	33.595
681.46	33.725
681.78	33.867
682.10	33.852
682.42	33.881
682.74	33.894
683.06	33.964
683.38	34.020
683.70	34.078
684.02	34.167
684.34	34.158
684.66	34.210
684.98	34.211
685.30	34.262
685.62	34.314
685.94	34.283
686.26	34.332
686.58	34.337
686.90	34.346
687.22	34.402
687.54	34.441
687.86	34.509
688.18	34.464
688.50	34.411
688.82	34.325
689.14	34.360
689.46	34.469
689.78	34.493
690.10	34.510
690.42	34.528
690.74	34.512
691.06	34.484
691.38	34.399
691.70	34.352
692.02	34.379
692.34	34.402
692.66	34.382
692.98	34.296
693.30	34.352
693.62	34.309
693.94	34.207
694.26	34.150
694.57	34.070
694.89	34.072
695.21	34.164
695.53	34.170
695.85	34.108
696.17	34.150
696.49	34.103
696.81	34.040
697.13	34.040
697.44	34.073
697.76	34.030
698.08	34.030
698.40	34.079
698.72	34.086
699.04	34.068
699.36	34.126
699.67	34.044
699.99	34.109
700.31	34.069
700.63	34.017
700.95	34.086
701.27	34.164
701.58	34.224
701.90	34.164
702.22	34.139
702.54	34.123
702.86	34.108
703.17	34.162
703.49	34.103
703.81	34.137
704.13	34.173
704.45	34.118
704.76	34.131
705.08	34.088
705.40	34.067
705.72	34.041
706.03	34.070
706.35	34.104
706.67	34.092
706.99	34.123
707.30	34.120
707.62	34.200
707.94	34.270
708.26	34.180
708.57	34.288
708.89	34.268
709.21	34.235
709.53	34.264
709.84	34.226
710.16	34.250
710.48	34.379
710.79	34.318
711.11	34.349
711.43	34.304
711.74	34.310
712.06	34.236
712.38	34.370
712.69	34.352
713.01	34.332
713.33	34.305
713.64	34.293
713.96	34.239
714.28	34.470
714.59	34.453
714.91	34.538
715.23	34.744
715.54	34.853
715.86	34.909
716.17	35.070
716.49	35.079
716.81	35.150
717.12	35.162
717.44	35.159
717.76	35.125
718.07	35.173
718.39	35.161
718.70	35.033
719.02	35.017
719.33	34.912
719.65	34.814
719.97	35.000
720.28	35.005
720.60	35.142
720.91	35.188
721.23	35.074
721.54	35.003
721.86	35.012
722.17	34.935
722.49	34.901
722.81	34.882
723.12	35.050
723.44	34.905
723.75	34.877
724.07	34.771
724.38	34.674
724.70	34.702
725.01	34.839
725.33	34.921
725.64	35.033
725.96	34.981
726.27	34.986
726.59	34.847
726.90	34.784
727.22	34.797
727.53	34.859
727.84	34.889
728.16	34.820
728.47	34.737
728.79	34.651
729.10	34.638
729.42	34.700
729.73	34.725
730.05	34.699
730.36	34.722
730.67	34.737
730.99	34.693
731.30	34.625
731.62	34.572
731.93	34.541
732.24	34.375
732.56	34.340
732.87	34.058
733.19	33.956
733.50	33.856
733.81	33.824
734.13	33.667
734.44	33.629
734.76	33.581
735.07	33.553
735.38	33.401
735.70	33.547
736.01	33.412
736.32	33.601
736.64	33.600
736.95	33.713
737.26	33.674
737.58	33.776
737.89	33.707
738.20	33.693
738.52	33.649
738.83	33.705
739.14	33.493
739.45	33.529
739.77	33.510
740.08	33.469
740.39	33.381
740.71	33.299
741.02	33.244
741.33	33.365
741.64	33.229
741.96	33.146
742.27	32.865
742.58	32.963
742.90	32.965
743.21	32.936
743.52	32.953
743.83	33.007
744.14	32.968
744.46	32.879
744.77	32.688
745.08	32.768
745.39	32.848
745.71	33.250
746.02	33.222
746.33	33.176
746.64	33.070
746.95	33.122
747.27	32.951
747.58	32.983
747.89	32.908
748.20	32.754
748.51	32.870
748.82	33.008
749.14	32.794
749.45	32.684
749.76	32.648
750.07	32.697
750.38	32.497
750.69	32.625
751.01	32.706
751.32	32.740
751.63	32.704
751.94	32.632
752.25	32.573
752.56	32.519
752.87	32.514
753.18	32.431
753.49	32.367
753.81	32.482
754.12	32.483
754.43	32.503
754.74	32.818
755.05	32.982
755.36	33.139
755.67	33.265
755.98	33.361
756.29	33.569
756.60	33.761
756.91	33.989
757.22	34.126
757.53	34.304
757.84	34.539
758.15	34.545
758.46	34.901
758.77	35.069
759.09	35.195
759.40	35.541
759.71	35.731
760.02	35.879
760.33	36.003
760.64	36.064
760.95	36.081
761.26	36.041
761.57	36.133
761.88	35.977
762.18	35.966
762.49	35.899
762.80	35.710
763.11	35.519
763.42	35.419
763.73	35.306
764.04	35.060
764.35	34.887
764.66	34.728
764.97	34.402
765.28	34.280
765.59	33.837
765.90	33.526
766.21	33.366
766.52	33.011
766.83	32.809
767.14	32.594
767.44	32.493
767.75	32.233
768.06	31.799
768.37	31.659
768.68	31.461
768.99	31.471
769.30	31.343
769.61	31.034
769.91	31.228
770.22	31.124
770.53	30.800
770.84	31.040
771.15	31.013
771.46	31.286
771.77	31.216
772.07	31.342
772.38	31.301
772.69	31.285
773.00	31.246
773.31	31.243
773.61	31.297
773.92	31.285
774.23	31.153
774.54	31.010
774.85	30.855
775.15	30.800
775.46	30.598
775.77	30.430
776.08	30.404
776.39	30.430
776.69	30.379
777.00	30.267
777.31	30.518
777.62	30.390
777.92	30.505
778.23	30.520
778.54	30.394
778.85	30.313
779.15	30.568
779.46	30.664
779.77	30.793
780.07	30.840
780.38	30.671
780.69	30.330
781.00	30.128
781.30	29.980
781.61	29.793
781.92	30.188
782.22	29.990
782.53	29.932
782.84	29.983
783.14	29.901
783.45	29.914
783.76	29.871
784.06	30.235
784.37	30.595
784.68	30.695
784.98	31.058
785.29	30.968
785.60	31.363
785.90	31.575
786.21	31.580
786.51	31.755
786.82	31.776
787.13	32.139
787.43	32.188
787.74	32.154
788.04	32.227
788.35	32.174
788.66	32.200
788.96	32.218
789.27	32.259
789.57	32.325
789.88	32.193
790.19	32.219
790.49	32.000
790.80	31.931
791.10	31.838
791.41	32.067
791.71	31.974
792.02	32.277
792.32	32.208
792.63	32.159
792.93	32.118
793.24	32.093
793.54	31.837
793.85	32.121
794.15	32.134
794.46	31.988
794.76	31.820
795.07	31.926
795.37	31.536
795.68	31.571
795.98	31.496
796.29	31.372
796.59	31.461
796.90	31.494
797.20	30.994
797.51	30.962
797.81	30.822
798.12	30.866
798.42	30.760
798.72	30.720
799.03	30.625
799.33	30.492
799.64	30.382
799.94	30.221
800.25	30.358
800.55	30.804
800.85	30.577
801.16	30.972
801.46	30.972
801.77	30.754
802.07	30.581
802.37	30.510
802.68	30.590
802.98	30.635
803.28	31.039
803.59	30.897
803.89	30.957
804.20	31.365
804.50	31.315
804.80	30.946
805.11	30.994
805.41	30.958
805.71	31.240
806.02	31.200
806.32	31.267
806.62	31.080
806.93	30.997
807.23	30.550
807.53	29.797
807.83	29.852
808.14	30.116
808.44	30.192
808.74	30.744
809.05	30.722
809.35	30.661
809.65	30.738
809.95	30.555
810.26	30.986
810.56	31.287
810.86	31.912
811.16	32.042
811.47	31.962
811.77	32.440
812.07	32.255
812.37	31.950
812.68	32.292
812.98	32.542
813.28	33.162
813.58	32.871
813.88	32.752
814.19	32.703
814.49	32.378
814.79	32.585
815.09	32.379
815.39	32.589
815.70	33.001
816.00	32.903
816.30	32.798
816.60	32.499
816.90	32.861
817.20	33.442
817.50	33.612
817.81	33.783
818.11	33.893
818.41	34.138
818.71	33.890
819.01	33.940
819.31	33.962
819.61	33.938
819.92	33.947
820.22	33.908
820.52	33.901
820.82	33.881
821.12	33.874
821.42	33.825
821.72	33.771
822.02	33.709
822.32	33.649
822.62	33.574
822.92	33.580
823.22	33.554
823.52	33.492
823.83	33.325
824.13	33.338
824.43	33.227
824.73	33.142
825.03	32.983
825.33	33.037
825.63	33.102
825.93	33.187
826.23	33.032
826.53	32.810
826.83	32.757
827.13	32.684
827.43	32.629
827.73	32.650
828.03	32.531
828.33	32.412
828.63	32.476
828.93	32.077
829.23	31.987
829.53	31.979
829.83	32.272
830.13	32.188
830.42	32.255
830.72	32.047
831.02	32.144
831.32	32.343
831.62	32.276
831.92	32.140
832.22	32.372
832.52	32.254
832.82	32.352
833.12	32.375
833.42	32.235
833.72	32.417
834.01	32.249
834.31	32.173
834.61	32.147
834.91	32.423
835.21	32.481
835.51	32.089
835.81	31.967
836.11	31.940
836.40	31.695
836.70	32.018
837.00	31.418
837.30	31.481
837.60	31.215
837.90	31.218
838.19	30.830
838.49	30.415
838.79	30.523
839.09	30.297
839.39	29.921
839.68	29.707
839.98	29.254
840.28	29.125
840.58	28.944
840.88	28.544
841.17	28.250
841.47	28.059
841.77	28.355
842.07	27.990
842.36	28.050
842.66	27.430
842.96	27.809
843.26	27.664
843.55	27.500
843.85	26.285
844.15	25.674
844.45	25.646
844.74	25.279
845.04	24.808
845.34	25.054
845.63	23.956
845.93	24.187
846.23	22.884
846.53	23.170
846.82	23.015
847.12	24.023
847.42	24.101
847.71	22.661
848.01	22.729
848.31	23.494
848.60	22.075
848.90	21.792
849.19	21.494
849.49	21.538
849.79	21.840
850.08	22.659
850.38	22.825
850.68	23.896
850.97	25.530
851.27	25.011
851.56	23.159
851.86	23.972
852.16	24.232
852.45	25.011
852.75	25.091
853.04	24.518
853.34	24.420
853.64	23.715
853.93	23.641
854.23	23.570
854.52	23.755
854.82	24.993
855.11	24.647
855.41	25.643
855.70	24.668
856.00	25.483
856.30	26.753
856.59	25.846
856.89	26.435
857.18	26.284
857.48	25.917
857.77	25.197
858.07	26.514
858.36	26.295
858.66	24.524
858.95	24.205
859.25	21.217
859.54	20.173
859.84	20.787
860.13	21.121
860.42	21.291
860.72	20.835
861.01	22.002
861.31	18.732
861.60	20.176
861.90	21.212
862.19	21.903
862.49	23.047
862.78	24.922
863.07	24.742
863.37	24.632
863.66	24.047
863.96	24.844
864.25	24.241
864.54	25.579
864.84	24.420
865.13	24.265
865.43	24.512
865.72	21.471
866.01	23.944
866.31	18.339
866.60	18.063
866.89	25.193
>>>>>End Spectral Data<<<<<
