OOIBase32 Version 2.0.0.6 Data File
++++++++++++++++++++++++++++++++++++
Date: 01-23-2012, 22:04:56
User: Valued Ocean Optics Customer
Spectrometer Serial Number: USB2E2917
Spectrometer Channel: Master
Integration Time (msec): 5
Spectra Averaged: 10
Boxcar Smoothing: 5
Correct for Electrical Dark: Enabled
Time Normalized: Disabled
Dual-beam Reference: Disabled
Reference Channel: Master
Temperature: Not acquired
Spectrometer Type: S2000
ADC Type: USB2000
Number of Pixels in File: 2048
Graph Title: 
>>>>>Begin Spectral Data<<<<<
180.30	0.000
180.67	0.000
181.03	248.207
181.40	32.152
181.77	-1826.867
182.14	140.851
182.51	129.444
182.88	-1628.814
183.25	37.801
183.62	-65.645
183.99	42.195
184.36	-54.651
184.73	222.419
185.10	3.909
185.46	98.436
185.83	106.259
186.20	65.138
186.57	310.326
186.94	-10.232
187.31	45.878
187.68	-141.422
188.05	-27.420
188.42	-9.774
188.78	-14.734
189.15	-6.488
189.52	-16.085
189.89	-15.358
190.26	-30.021
190.63	-1.030
191.00	5.171
191.37	4.743
191.73	17.480
192.10	28.566
192.47	25.440
192.84	25.371
193.21	10.544
193.58	19.076
193.94	18.143
194.31	1.251
194.68	-1.327
195.05	-16.801
195.42	-38.683
195.79	-49.369
196.15	-53.391
196.52	-52.811
196.89	-70.025
197.26	-50.324
197.63	-63.467
198.00	-62.890
198.36	-44.614
198.73	-34.931
199.10	-22.755
199.47	-1.799
199.84	-3.304
200.20	12.741
200.57	-3.915
200.94	-1.030
201.31	-9.784
201.68	7.513
202.04	4.044
202.41	7.904
202.78	-8.206
203.15	-9.668
203.51	-31.152
203.88	-32.377
204.25	-41.379
204.62	-10.384
204.98	-3.147
205.35	2.437
205.72	4.688
206.09	1.138
206.46	5.572
206.82	15.246
207.19	16.025
207.56	8.693
207.92	1.596
208.29	-3.133
208.66	-11.546
209.03	-14.472
209.39	-16.184
209.76	-25.313
210.13	-30.240
210.50	-41.728
210.86	-26.302
211.23	-14.953
211.60	-8.371
211.96	-2.706
212.33	-1.497
212.70	8.042
213.07	12.985
213.43	10.488
213.80	8.843
214.17	9.139
214.53	23.160
214.90	18.852
215.27	17.061
215.63	13.901
216.00	16.849
216.37	17.500
216.74	10.797
217.10	5.238
217.47	5.405
217.84	3.313
218.20	8.726
218.57	1.354
218.94	-3.442
219.30	-0.726
219.67	0.635
220.04	-0.718
220.40	-10.430
220.77	-13.687
221.13	-20.513
221.50	-17.770
221.87	-16.581
222.23	-14.143
222.60	-11.262
222.97	-13.068
223.33	-21.464
223.70	-19.245
224.07	-11.014
224.43	-4.684
224.80	0.894
225.16	4.990
225.53	4.801
225.90	2.780
226.26	1.311
226.63	-0.946
226.99	-1.054
227.36	0.988
227.73	2.383
228.09	-1.749
228.46	-3.600
228.82	-3.248
229.19	-4.509
229.56	-5.838
229.92	-3.655
230.29	-1.492
230.65	0.019
231.02	0.589
231.38	-0.300
231.75	-2.089
232.12	0.233
232.48	0.596
232.85	-3.017
233.21	-0.689
233.58	0.019
233.94	0.368
234.31	-2.664
234.68	-4.911
235.04	-5.314
235.41	-2.994
235.77	-1.768
236.14	-1.918
236.50	-0.846
236.87	0.529
237.23	-1.238
237.60	-0.977
237.96	-0.863
238.33	0.756
238.69	1.627
239.06	1.520
239.42	0.957
239.79	1.349
240.15	2.261
240.52	2.252
240.88	2.497
241.25	3.271
241.61	3.093
241.98	3.293
242.34	2.745
242.71	2.978
243.07	3.497
243.44	3.583
243.80	3.597
244.17	3.620
244.53	3.673
244.90	3.710
245.26	3.703
245.63	3.692
245.99	3.691
246.36	4.049
246.72	4.016
247.09	3.792
247.45	3.669
247.81	3.120
248.18	2.600
248.54	2.513
248.91	2.369
249.27	2.476
249.64	2.859
250.00	2.769
250.36	2.619
250.73	2.675
251.09	3.104
251.46	3.475
251.82	4.010
252.19	4.367
252.55	3.870
252.91	3.733
253.28	3.017
253.64	2.715
254.01	2.275
254.37	1.978
254.73	2.274
255.10	2.123
255.46	1.898
255.83	1.628
256.19	1.669
256.55	1.895
256.92	2.035
257.28	2.228
257.65	2.491
258.01	2.649
258.37	2.608
258.74	2.437
259.10	2.407
259.46	2.477
259.83	2.787
260.19	2.781
260.55	2.798
260.92	2.754
261.28	2.579
261.64	2.210
262.01	2.117
262.37	2.145
262.73	2.091
263.10	2.147
263.46	2.364
263.82	2.246
264.19	1.898
264.55	1.790
264.91	1.854
265.28	1.953
265.64	2.017
266.00	1.884
266.37	2.011
266.73	2.102
267.09	2.089
267.46	2.262
267.82	1.996
268.18	2.440
268.54	2.356
268.91	2.719
269.27	2.891
269.63	2.954
270.00	3.242
270.36	3.172
270.72	3.199
271.08	3.019
271.45	2.574
271.81	2.933
272.17	2.975
272.53	3.033
272.90	2.667
273.26	2.584
273.62	2.523
273.98	2.179
274.35	2.005
274.71	1.863
275.07	2.030
275.43	2.287
275.80	2.214
276.16	2.139
276.52	2.298
276.88	2.330
277.25	2.180
277.61	2.441
277.97	2.504
278.33	2.349
278.69	2.280
279.06	2.511
279.42	2.275
279.78	1.990
280.14	1.979
280.50	1.877
280.87	1.900
281.23	2.172
281.59	1.951
281.95	1.951
282.31	2.333
282.68	2.543
283.04	2.382
283.40	2.617
283.76	2.537
284.12	2.439
284.48	2.479
284.85	2.461
285.21	2.329
285.57	2.420
285.93	2.566
286.29	2.322
286.65	2.270
287.02	2.305
287.38	2.261
287.74	2.505
288.10	2.696
288.46	2.705
288.82	2.639
289.18	2.539
289.54	2.390
289.91	2.442
290.27	2.584
290.63	2.580
290.99	2.560
291.35	2.565
291.71	2.645
292.07	2.459
292.43	2.701
292.79	3.049
293.16	3.079
293.52	3.113
293.88	3.098
294.24	3.174
294.60	3.177
294.96	3.266
295.32	3.224
295.68	2.938
296.04	3.142
296.40	3.029
296.76	2.950
297.12	3.039
297.49	3.111
297.85	3.180
298.21	3.196
298.57	3.224
298.93	3.181
299.29	3.268
299.65	3.413
300.01	3.339
300.37	3.160
300.73	3.204
301.09	3.186
301.45	3.321
301.81	3.180
302.17	3.061
302.53	3.066
302.89	2.880
303.25	2.797
303.61	2.921
303.97	2.901
304.33	3.026
304.69	2.941
305.05	2.968
305.41	2.830
305.77	2.790
306.13	2.821
306.49	2.871
306.85	2.989
307.21	3.040
307.57	2.914
307.93	2.909
308.29	2.967
308.65	2.925
309.01	3.029
309.37	3.177
309.73	3.205
310.09	3.184
310.45	3.143
310.81	3.147
311.17	3.081
311.53	3.195
311.89	3.296
312.25	3.261
312.61	3.249
312.96	3.212
313.32	3.065
313.68	3.050
314.04	3.091
314.40	3.024
314.76	3.077
315.12	3.301
315.48	3.340
315.84	3.227
316.20	3.283
316.56	3.277
316.92	3.178
317.27	3.203
317.63	3.228
317.99	3.237
318.35	3.312
318.71	3.297
319.07	3.233
319.43	3.218
319.79	3.226
320.15	3.248
320.50	3.203
320.86	3.278
321.22	3.293
321.58	3.365
321.94	3.407
322.30	3.467
322.66	3.567
323.01	3.469
323.37	3.468
323.73	3.472
324.09	3.474
324.45	3.638
324.81	3.616
325.17	3.588
325.52	3.547
325.88	3.553
326.24	3.584
326.60	3.614
326.96	3.761
327.31	3.795
327.67	3.831
328.03	3.789
328.39	3.659
328.75	3.783
329.11	3.876
329.46	3.849
329.82	3.891
330.18	3.790
330.54	3.690
330.90	3.612
331.25	3.619
331.61	3.507
331.97	3.572
332.33	3.661
332.68	3.482
333.04	3.442
333.40	3.469
333.76	3.436
334.11	3.450
334.47	3.446
334.83	3.427
335.19	3.454
335.54	3.673
335.90	3.706
336.26	3.762
336.62	3.913
336.97	3.875
337.33	3.921
337.69	3.941
338.05	4.004
338.40	4.066
338.76	4.108
339.12	4.029
339.48	3.991
339.83	3.964
340.19	3.946
340.55	3.870
340.90	3.875
341.26	3.837
341.62	3.848
341.97	3.859
342.33	3.984
342.69	4.007
343.04	4.069
343.40	4.053
343.76	4.053
344.12	4.079
344.47	4.109
344.83	4.121
345.19	4.091
345.54	4.066
345.90	4.085
346.26	3.908
346.61	3.964
346.97	3.969
347.32	3.944
347.68	3.883
348.04	3.852
348.39	3.873
348.75	3.984
349.11	3.963
349.46	3.920
349.82	3.876
350.18	3.936
350.53	3.819
350.89	3.844
351.24	3.869
351.60	3.900
351.96	3.868
352.31	3.852
352.67	3.787
353.02	3.861
353.38	3.898
353.74	3.932
354.09	3.957
354.45	4.003
354.80	3.956
355.16	3.868
355.52	3.939
355.87	3.966
356.23	4.025
356.58	4.071
356.94	4.065
357.29	4.073
357.65	4.011
358.00	3.982
358.36	3.987
358.72	3.993
359.07	4.063
359.43	4.029
359.78	4.058
360.14	4.030
360.49	4.027
360.85	4.069
361.20	4.119
361.56	4.155
361.91	4.189
362.27	4.160
362.62	4.137
362.98	4.115
363.33	4.125
363.69	4.124
364.04	4.124
364.40	4.139
364.75	4.138
365.11	4.156
365.46	4.154
365.82	4.130
366.17	4.187
366.53	4.239
366.88	4.251
367.24	4.259
367.59	4.261
367.95	4.243
368.30	4.224
368.66	4.226
369.01	4.210
369.37	4.203
369.72	4.206
370.08	4.160
370.43	4.143
370.78	4.185
371.14	4.203
371.49	4.197
371.85	4.256
372.20	4.274
372.56	4.287
372.91	4.270
373.26	4.269
373.62	4.283
373.97	4.356
374.33	4.360
374.68	4.353
375.03	4.419
375.39	4.437
375.74	4.415
376.10	4.404
376.45	4.400
376.80	4.410
377.16	4.456
377.51	4.504
377.87	4.482
378.22	4.495
378.57	4.520
378.93	4.456
379.28	4.500
379.63	4.496
379.99	4.523
380.34	4.595
380.70	4.636
381.05	4.677
381.40	4.677
381.76	4.703
382.11	4.764
382.46	4.736
382.82	4.754
383.17	4.783
383.52	4.803
383.88	4.791
384.23	4.719
384.58	4.670
384.94	4.683
385.29	4.669
385.64	4.698
385.99	4.668
386.35	4.746
386.70	4.769
387.05	4.735
387.41	4.747
387.76	4.779
388.11	4.776
388.47	4.868
388.82	4.842
389.17	4.856
389.52	4.843
389.88	4.851
390.23	4.823
390.58	4.830
390.93	4.849
391.29	4.890
391.64	4.907
391.99	4.924
392.34	4.888
392.70	4.895
393.05	4.890
393.40	4.906
393.75	4.950
394.11	4.951
394.46	4.945
394.81	4.911
395.16	4.842
395.52	4.854
395.87	4.852
396.22	4.849
396.57	4.836
396.92	4.852
397.28	4.867
397.63	4.833
397.98	4.864
398.33	4.885
398.68	4.915
399.04	4.943
399.39	4.928
399.74	4.974
400.09	5.002
400.44	5.039
400.80	5.052
401.15	5.053
401.50	5.092
401.85	5.142
402.20	5.156
402.55	5.204
402.90	5.223
403.26	5.254
403.61	5.272
403.96	5.304
404.31	5.329
404.66	5.367
405.01	5.388
405.36	5.415
405.72	5.384
406.07	5.419
406.42	5.413
406.77	5.451
407.12	5.471
407.47	5.495
407.82	5.499
408.17	5.486
408.53	5.492
408.88	5.545
409.23	5.565
409.58	5.574
409.93	5.590
410.28	5.633
410.63	5.654
410.98	5.678
411.33	5.693
411.68	5.708
412.03	5.768
412.38	5.785
412.73	5.767
413.09	5.778
413.44	5.827
413.79	5.850
414.14	5.858
414.49	5.893
414.84	5.918
415.19	5.961
415.54	6.008
415.89	6.028
416.24	6.061
416.59	6.096
416.94	6.123
417.29	6.114
417.64	6.135
417.99	6.171
418.34	6.196
418.69	6.204
419.04	6.199
419.39	6.215
419.74	6.241
420.09	6.245
420.44	6.268
420.79	6.268
421.14	6.291
421.49	6.294
421.84	6.310
422.19	6.315
422.54	6.355
422.89	6.378
423.24	6.384
423.59	6.394
423.94	6.431
424.29	6.437
424.64	6.461
424.99	6.514
425.34	6.564
425.68	6.580
426.03	6.635
426.38	6.636
426.73	6.682
427.08	6.689
427.43	6.724
427.78	6.737
428.13	6.761
428.48	6.813
428.83	6.814
429.18	6.816
429.53	6.829
429.87	6.833
430.22	6.858
430.57	6.879
430.92	6.892
431.27	6.906
431.62	6.944
431.97	6.959
432.32	6.966
432.67	7.001
433.01	7.025
433.36	7.045
433.71	7.070
434.06	7.077
434.41	7.111
434.76	7.169
435.11	7.180
435.45	7.180
435.80	7.209
436.15	7.216
436.50	7.231
436.85	7.263
437.20	7.277
437.54	7.299
437.89	7.322
438.24	7.323
438.59	7.327
438.94	7.361
439.29	7.379
439.63	7.390
439.98	7.436
440.33	7.435
440.68	7.432
441.03	7.446
441.37	7.424
441.72	7.426
442.07	7.437
442.42	7.447
442.76	7.446
443.11	7.438
443.46	7.428
443.81	7.410
444.16	7.416
444.50	7.400
444.85	7.414
445.20	7.450
445.55	7.461
445.89	7.449
446.24	7.459
446.59	7.467
446.94	7.488
447.28	7.514
447.63	7.516
447.98	7.526
448.32	7.570
448.67	7.578
449.02	7.560
449.37	7.569
449.71	7.573
450.06	7.570
450.41	7.582
450.75	7.593
451.10	7.588
451.45	7.626
451.79	7.633
452.14	7.637
452.49	7.639
452.84	7.646
453.18	7.663
453.53	7.701
453.88	7.707
454.22	7.718
454.57	7.723
454.92	7.757
455.26	7.769
455.61	7.802
455.95	7.822
456.30	7.858
456.65	7.889
456.99	7.889
457.34	7.906
457.69	7.949
458.03	7.949
458.38	7.967
458.73	7.983
459.07	8.006
459.42	8.019
459.76	8.034
460.11	8.036
460.46	8.047
460.80	8.089
461.15	8.116
461.49	8.110
461.84	8.145
462.19	8.166
462.53	8.178
462.88	8.205
463.22	8.234
463.57	8.272
463.91	8.305
464.26	8.335
464.61	8.353
464.95	8.372
465.30	8.402
465.64	8.432
465.99	8.462
466.33	8.481
466.68	8.494
467.02	8.517
467.37	8.524
467.71	8.530
468.06	8.558
468.41	8.579
468.75	8.594
469.10	8.593
469.44	8.615
469.79	8.615
470.13	8.640
470.48	8.630
470.82	8.637
471.17	8.667
471.51	8.671
471.86	8.653
472.20	8.664
472.55	8.681
472.89	8.710
473.23	8.707
473.58	8.733
473.92	8.739
474.27	8.764
474.61	8.771
474.96	8.753
475.30	8.767
475.65	8.789
475.99	8.792
476.34	8.802
476.68	8.814
477.02	8.830
477.37	8.839
477.71	8.858
478.06	8.889
478.40	8.935
478.75	9.014
479.09	9.099
479.43	9.185
479.78	9.299
480.12	9.425
480.47	9.557
480.81	9.704
481.15	9.863
481.50	10.024
481.84	10.212
482.19	10.407
482.53	10.575
482.87	10.664
483.22	10.659
483.56	10.571
483.90	10.419
484.25	10.237
484.59	10.060
484.94	9.918
485.28	9.791
485.62	9.612
485.97	9.418
486.31	9.238
486.65	9.145
487.00	9.143
487.34	9.210
487.68	9.317
488.03	9.447
488.37	9.551
488.71	9.594
489.06	9.618
489.40	9.635
489.74	9.649
490.09	9.663
490.43	9.661
490.77	9.671
491.11	9.672
491.46	9.696
491.80	9.719
492.14	9.736
492.49	9.756
492.83	9.747
493.17	9.766
493.51	9.799
493.86	9.858
494.20	9.896
494.54	9.919
494.88	9.964
495.23	9.997
495.57	10.050
495.91	10.112
496.25	10.146
496.60	10.184
496.94	10.232
497.28	10.279
497.62	10.314
497.97	10.384
498.31	10.456
498.65	10.504
498.99	10.562
499.33	10.610
499.68	10.663
500.02	10.736
500.36	10.810
500.70	10.869
501.04	10.926
501.39	10.963
501.73	11.031
502.07	11.102
502.41	11.166
502.75	11.235
503.09	11.307
503.44	11.376
503.78	11.448
504.12	11.515
504.46	11.595
504.80	11.670
505.14	11.738
505.49	11.774
505.83	11.836
506.17	11.915
506.51	11.962
506.85	12.010
507.19	12.066
507.53	12.107
507.87	12.156
508.22	12.223
508.56	12.272
508.90	12.343
509.24	12.423
509.58	12.494
509.92	12.553
510.26	12.629
510.60	12.693
510.94	12.757
511.28	12.839
511.63	12.940
511.97	13.003
512.31	13.078
512.65	13.150
512.99	13.215
513.33	13.293
513.67	13.367
514.01	13.457
514.35	13.540
514.69	13.624
515.03	13.707
515.37	13.759
515.71	13.821
516.05	13.883
516.39	13.947
516.73	14.017
517.07	14.061
517.41	14.121
517.75	14.156
518.09	14.201
518.43	14.247
518.77	14.284
519.11	14.351
519.45	14.386
519.79	14.438
520.13	14.489
520.47	14.526
520.81	14.614
521.15	14.672
521.49	14.747
521.83	14.803
522.17	14.868
522.51	14.922
522.85	14.993
523.19	15.107
523.53	15.241
523.87	15.384
524.21	15.530
524.55	15.632
524.89	15.756
525.23	15.881
525.57	15.992
525.91	16.074
526.25	16.168
526.58	16.241
526.92	16.301
527.26	16.332
527.60	16.353
527.94	16.356
528.28	16.371
528.62	16.362
528.96	16.345
529.30	16.327
529.64	16.322
529.97	16.305
530.31	16.298
530.65	16.294
530.99	16.306
531.33	16.322
531.67	16.364
532.01	16.389
532.35	16.428
532.68	16.448
533.02	16.472
533.36	16.493
533.70	16.521
534.04	16.530
534.38	16.561
534.71	16.579
535.05	16.598
535.39	16.610
535.73	16.638
536.07	16.669
536.41	16.749
536.74	16.819
537.08	16.888
537.42	16.962
537.76	17.042
538.10	17.090
538.43	17.159
538.77	17.215
539.11	17.258
539.45	17.299
539.79	17.336
540.12	17.344
540.46	17.358
540.80	17.349
541.14	17.325
541.47	17.324
541.81	17.335
542.15	17.328
542.49	17.311
542.82	17.310
543.16	17.321
543.50	17.317
543.84	17.327
544.17	17.349
544.51	17.399
544.85	17.461
545.18	17.487
545.52	17.504
545.86	17.526
546.20	17.581
546.53	17.617
546.87	17.631
547.21	17.663
547.54	17.681
547.88	17.717
548.22	17.740
548.55	17.776
548.89	17.821
549.23	17.860
549.56	17.902
549.90	17.948
550.24	17.978
550.57	18.013
550.91	18.037
551.25	18.068
551.58	18.082
551.92	18.132
552.26	18.146
552.59	18.170
552.93	18.210
553.27	18.255
553.60	18.277
553.94	18.347
554.27	18.376
554.61	18.422
554.95	18.476
555.28	18.540
555.62	18.578
555.95	18.637
556.29	18.681
556.63	18.701
556.96	18.724
557.30	18.762
557.63	18.752
557.97	18.802
558.31	18.846
558.64	18.894
558.98	18.930
559.31	18.944
559.65	18.973
559.98	18.985
560.32	19.023
560.65	19.067
560.99	19.097
561.33	19.157
561.66	19.185
562.00	19.204
562.33	19.224
562.67	19.223
563.00	19.260
563.34	19.277
563.67	19.304
564.01	19.325
564.34	19.310
564.68	19.329
565.01	19.332
565.35	19.350
565.68	19.372
566.02	19.379
566.35	19.454
566.69	19.486
567.02	19.532
567.36	19.575
567.69	19.586
568.03	19.650
568.36	19.665
568.69	19.709
569.03	19.721
569.36	19.761
569.70	19.787
570.03	19.776
570.37	19.777
570.70	19.799
571.04	19.802
571.37	19.847
571.70	19.881
572.04	19.915
572.37	19.926
572.71	19.954
573.04	19.963
573.37	20.006
573.71	20.024
574.04	20.061
574.38	20.078
574.71	20.137
575.04	20.157
575.38	20.190
575.71	20.223
576.05	20.291
576.38	20.343
576.71	20.388
577.05	20.404
577.38	20.460
577.71	20.522
578.05	20.531
578.38	20.536
578.71	20.595
579.05	20.600
579.38	20.631
579.71	20.622
580.05	20.624
580.38	20.658
580.71	20.674
581.05	20.687
581.38	20.681
581.71	20.738
582.05	20.749
582.38	20.760
582.71	20.801
583.04	20.820
583.38	20.837
583.71	20.887
584.04	20.902
584.38	20.936
584.71	20.938
585.04	20.967
585.37	20.982
585.71	21.024
586.04	21.016
586.37	21.019
586.70	21.020
587.04	21.038
587.37	21.039
587.70	21.057
588.03	21.074
588.37	21.093
588.70	21.096
589.03	21.100
589.36	21.121
589.69	21.130
590.03	21.108
590.36	21.115
590.69	21.140
591.02	21.123
591.35	21.068
591.69	21.037
592.02	21.050
592.35	21.032
592.68	21.034
593.01	21.011
593.35	21.020
593.68	21.030
594.01	21.018
594.34	21.022
594.67	21.050
595.00	21.087
595.34	21.119
595.67	21.122
596.00	21.159
596.33	21.155
596.66	21.144
596.99	21.161
597.32	21.175
597.65	21.182
597.99	21.177
598.32	21.154
598.65	21.145
598.98	21.125
599.31	21.122
599.64	21.094
599.97	21.081
600.30	21.080
600.63	21.065
600.96	21.058
601.30	21.061
601.63	21.031
601.96	21.036
602.29	21.027
602.62	21.038
602.95	21.038
603.28	21.047
603.61	21.030
603.94	21.072
604.27	21.057
604.60	21.059
604.93	21.075
605.26	21.098
605.59	21.109
605.92	21.126
606.25	21.132
606.58	21.133
606.91	21.125
607.24	21.173
607.57	21.136
607.90	21.139
608.23	21.112
608.56	21.112
608.89	21.092
609.22	21.080
609.55	21.064
609.88	21.039
610.21	21.037
610.54	21.040
610.87	21.013
611.20	21.009
611.53	21.045
611.86	21.085
612.19	21.094
612.52	21.088
612.85	21.111
613.18	21.094
613.51	21.107
613.84	21.086
614.17	21.077
614.49	21.045
614.82	21.080
615.15	21.033
615.48	21.024
615.81	21.013
616.14	21.046
616.47	21.040
616.80	21.066
617.13	21.032
617.46	21.034
617.78	21.020
618.11	21.018
618.44	20.943
618.77	20.949
619.10	20.922
619.43	20.885
619.76	20.850
620.09	20.822
620.41	20.798
620.74	20.808
621.07	20.767
621.40	20.732
621.73	20.720
622.06	20.746
622.38	20.715
622.71	20.681
623.04	20.667
623.37	20.664
623.70	20.632
624.02	20.603
624.35	20.636
624.68	20.636
625.01	20.642
625.34	20.601
625.66	20.591
625.99	20.607
626.32	20.616
626.65	20.605
626.98	20.581
627.30	20.564
627.63	20.598
627.96	20.551
628.29	20.549
628.61	20.535
628.94	20.569
629.27	20.555
629.60	20.547
629.92	20.512
630.25	20.535
630.58	20.506
630.91	20.533
631.23	20.498
631.56	20.477
631.89	20.483
632.21	20.484
632.54	20.445
632.87	20.443
633.19	20.417
633.52	20.444
633.85	20.405
634.18	20.407
634.50	20.389
634.83	20.352
635.16	20.380
635.48	20.338
635.81	20.329
636.14	20.343
636.46	20.298
636.79	20.271
637.11	20.234
637.44	20.213
637.77	20.197
638.09	20.108
638.42	20.087
638.75	20.051
639.07	20.021
639.40	19.977
639.73	19.988
640.05	20.022
640.38	20.016
640.70	19.982
641.03	19.995
641.36	19.952
641.68	20.043
642.01	20.014
642.33	19.985
642.66	19.995
642.98	19.978
643.31	19.885
643.64	19.829
643.96	19.816
644.29	19.830
644.61	19.818
644.94	19.826
645.26	19.747
645.59	19.761
645.91	19.776
646.24	19.725
646.56	19.732
646.89	19.728
647.22	19.745
647.54	19.726
647.87	19.676
648.19	19.621
648.52	19.620
648.84	19.623
649.17	19.609
649.49	19.556
649.82	19.553
650.14	19.527
650.47	19.505
650.79	19.435
651.11	19.435
651.44	19.440
651.76	19.411
652.09	19.367
652.41	19.351
652.74	19.331
653.06	19.296
653.39	19.286
653.71	19.312
654.04	19.341
654.36	19.381
654.68	19.307
655.01	19.262
655.33	19.268
655.66	19.247
655.98	19.226
656.30	19.188
656.63	19.177
656.95	19.141
657.28	19.046
657.60	18.975
657.92	18.873
658.25	18.854
658.57	18.823
658.90	18.763
659.22	18.732
659.54	18.671
659.87	18.619
660.19	18.566
660.51	18.534
660.84	18.537
661.16	18.533
661.48	18.530
661.81	18.492
662.13	18.436
662.45	18.425
662.78	18.415
663.10	18.395
663.42	18.426
663.75	18.381
664.07	18.425
664.39	18.432
664.72	18.413
665.04	18.391
665.36	18.365
665.69	18.423
666.01	18.350
666.33	18.310
666.65	18.296
666.98	18.281
667.30	18.277
667.62	18.164
667.94	18.107
668.27	18.100
668.59	18.055
668.91	18.024
669.23	17.984
669.56	18.008
669.88	17.962
670.20	17.872
670.52	17.770
670.85	17.781
671.17	17.808
671.49	17.807
671.81	17.790
672.13	17.771
672.46	17.790
672.78	17.670
673.10	17.598
673.42	17.543
673.74	17.570
674.07	17.561
674.39	17.463
674.71	17.416
675.03	17.381
675.35	17.327
675.67	17.359
676.00	17.351
676.32	17.427
676.64	17.499
676.96	17.537
677.28	17.501
677.60	17.512
677.92	17.554
678.25	17.524
678.57	17.488
678.89	17.498
679.21	17.507
679.53	17.481
679.85	17.452
680.17	17.375
680.49	17.343
680.81	17.378
681.13	17.439
681.46	17.465
681.78	17.484
682.10	17.471
682.42	17.422
682.74	17.344
683.06	17.339
683.38	17.355
683.70	17.395
684.02	17.380
684.34	17.282
684.66	17.212
684.98	17.131
685.30	17.154
685.62	17.189
685.94	17.144
686.26	17.130
686.58	17.049
686.90	17.022
687.22	16.962
687.54	16.975
687.86	17.039
688.18	17.015
688.50	16.932
688.82	16.848
689.14	16.769
689.46	16.756
689.78	16.727
690.10	16.751
690.42	16.673
690.74	16.657
691.06	16.618
691.38	16.541
691.70	16.452
692.02	16.469
692.34	16.437
692.66	16.394
692.98	16.437
693.30	16.451
693.62	16.404
693.94	16.400
694.26	16.366
694.57	16.283
694.89	16.234
695.21	16.337
695.53	16.270
695.85	16.271
696.17	16.289
696.49	16.271
696.81	16.238
697.13	16.219
697.44	16.242
697.76	16.251
698.08	16.301
698.40	16.325
698.72	16.172
699.04	16.149
699.36	16.065
699.67	15.990
699.99	15.813
700.31	15.720
700.63	15.678
700.95	15.592
701.27	15.434
701.58	15.266
701.90	15.142
702.22	15.176
702.54	15.158
702.86	15.042
703.17	14.999
703.49	15.065
703.81	15.037
704.13	14.932
704.45	14.841
704.76	14.806
705.08	14.853
705.40	14.820
705.72	14.730
706.03	14.705
706.35	14.813
706.67	14.729
706.99	14.685
707.30	14.707
707.62	14.723
707.94	14.741
708.26	14.727
708.57	14.735
708.89	14.769
709.21	14.778
709.53	14.827
709.84	14.762
710.16	14.795
710.48	14.820
710.79	14.819
711.11	14.816
711.43	14.758
711.74	14.778
712.06	14.711
712.38	14.728
712.69	14.743
713.01	14.675
713.33	14.730
713.64	14.789
713.96	14.870
714.28	14.946
714.59	14.968
714.91	15.078
715.23	15.153
715.54	15.196
715.86	15.247
716.17	15.351
716.49	15.459
716.81	15.428
717.12	15.332
717.44	15.307
717.76	15.126
718.07	15.097
718.39	14.983
718.70	14.943
719.02	14.929
719.33	14.766
719.65	14.603
719.97	14.556
720.28	14.564
720.60	14.603
720.91	14.528
721.23	14.545
721.54	14.655
721.86	14.733
722.17	14.572
722.49	14.555
722.81	14.616
723.12	14.602
723.44	14.617
723.75	14.637
724.07	14.660
724.38	14.632
724.70	14.653
725.01	14.626
725.33	14.590
725.64	14.817
725.96	14.707
726.27	14.745
726.59	14.696
726.90	14.603
727.22	14.581
727.53	14.543
727.84	14.520
728.16	14.457
728.47	14.392
728.79	14.360
729.10	14.288
729.42	14.363
729.73	14.277
730.05	14.297
730.36	14.170
730.67	13.997
730.99	13.916
731.30	13.749
731.62	13.636
731.93	13.573
732.24	13.417
732.56	13.259
732.87	12.937
733.19	12.899
733.50	12.828
733.81	12.769
734.13	12.838
734.44	12.743
734.76	12.867
735.07	12.809
735.38	12.609
735.70	12.627
736.01	12.613
736.32	12.879
736.64	12.897
736.95	12.781
737.26	12.907
737.58	12.739
737.89	12.730
738.20	12.570
738.52	12.562
738.83	12.619
739.14	12.505
739.45	12.460
739.77	12.335
740.08	12.188
740.39	12.055
740.71	11.950
741.02	12.097
741.33	12.242
741.64	12.240
741.96	12.086
742.27	11.902
742.58	11.792
742.90	11.784
743.21	11.685
743.52	11.644
743.83	11.882
744.14	11.714
744.46	11.484
744.77	11.270
745.08	11.235
745.39	11.336
745.71	11.299
746.02	11.419
746.33	11.271
746.64	11.351
746.95	11.399
747.27	11.253
747.58	11.452
747.89	11.480
748.20	11.354
748.51	11.269
748.82	11.408
749.14	11.491
749.45	11.467
749.76	11.600
750.07	11.440
750.38	11.262
750.69	11.323
751.01	11.223
751.32	11.323
751.63	11.387
751.94	11.533
752.25	11.349
752.56	11.467
752.87	11.468
753.18	11.348
753.49	11.275
753.81	11.159
754.12	11.265
754.43	11.448
754.74	11.507
755.05	11.637
755.36	11.696
755.67	12.012
755.98	12.072
756.29	12.254
756.60	12.484
756.91	12.911
757.22	13.452
757.53	13.635
757.84	13.811
758.15	13.989
758.46	14.280
758.77	14.500
759.09	14.655
759.40	14.875
759.71	15.095
760.02	15.124
760.33	15.195
760.64	15.133
760.95	15.132
761.26	15.107
761.57	15.105
761.88	15.017
762.18	14.902
762.49	14.812
762.80	14.645
763.11	14.424
763.42	14.239
763.73	14.087
764.04	13.855
764.35	13.630
764.66	13.254
764.97	12.913
765.28	12.734
765.59	12.525
765.90	12.188
766.21	11.924
766.52	11.642
766.83	11.494
767.14	11.290
767.44	11.127
767.75	10.785
768.06	10.869
768.37	10.657
768.68	10.339
768.99	10.142
769.30	10.077
769.61	9.808
769.91	9.660
770.22	9.527
770.53	9.421
770.84	9.632
771.15	9.800
771.46	9.513
771.77	9.554
772.07	9.748
772.38	9.595
772.69	9.419
773.00	9.344
773.31	9.582
773.61	9.593
773.92	9.620
774.23	9.356
774.54	9.324
774.85	9.445
775.15	9.617
775.46	9.334
775.77	9.322
776.08	9.242
776.39	9.404
776.69	9.460
777.00	9.535
777.31	9.440
777.62	9.510
777.92	9.258
778.23	9.307
778.54	9.133
778.85	9.219
779.15	9.535
779.46	9.698
779.77	9.739
780.07	9.634
780.38	9.645
780.69	9.625
781.00	9.362
781.30	9.345
781.61	9.350
781.92	9.607
782.22	9.536
782.53	9.533
782.84	9.775
783.14	9.957
783.45	9.881
783.76	10.137
784.06	10.195
784.37	10.827
784.68	10.934
784.98	10.975
785.29	11.019
785.60	11.357
785.90	11.288
786.21	10.955
786.51	10.973
786.82	10.754
787.13	10.870
787.43	11.205
787.74	10.924
788.04	11.181
788.35	11.181
788.66	11.181
788.96	10.902
789.27	11.076
789.57	11.608
789.88	11.725
790.19	12.026
790.49	11.819
790.80	11.544
791.10	11.363
791.41	11.297
791.71	11.422
792.02	11.312
792.32	11.355
792.63	11.190
792.93	10.986
793.24	10.743
793.54	10.747
793.85	11.102
794.15	11.005
794.46	11.267
794.76	11.254
795.07	11.276
795.37	11.238
795.68	11.406
795.98	11.358
796.29	11.469
796.59	11.756
796.90	11.629
797.20	11.442
797.51	11.659
797.81	11.533
798.12	11.838
798.42	11.808
798.72	12.089
799.03	12.231
799.33	12.155
799.64	12.204
799.94	11.951
800.25	12.207
800.55	12.156
800.85	11.884
801.16	12.061
801.46	11.904
801.77	11.728
802.07	11.252
802.37	10.929
802.68	11.185
802.98	11.076
803.28	11.078
803.59	10.800
803.89	10.823
804.20	11.082
804.50	11.197
804.80	10.854
805.11	11.171
805.41	11.658
805.71	12.158
806.02	12.205
806.32	12.216
806.62	12.255
806.93	12.380
807.23	12.546
807.53	12.352
807.83	12.405
808.14	12.305
808.44	11.975
808.74	11.915
809.05	11.802
809.35	11.815
809.65	11.684
809.95	11.988
810.26	11.976
810.56	11.862
810.86	12.354
811.16	12.016
811.47	12.681
811.77	12.802
812.07	13.017
812.37	12.555
812.68	12.518
812.98	12.620
813.28	12.859
813.58	13.319
813.88	13.271
814.19	12.847
814.49	12.972
814.79	13.028
815.09	13.510
815.39	13.370
815.70	13.941
816.00	14.172
816.30	14.000
816.60	14.146
816.90	14.319
817.20	14.494
817.50	14.967
817.81	15.124
818.11	15.164
818.41	15.248
818.71	15.295
819.01	15.322
819.31	15.420
819.61	15.632
819.92	15.619
820.22	15.673
820.52	15.794
820.82	15.802
821.12	15.852
821.42	15.894
821.72	15.907
822.02	15.935
822.32	15.903
822.62	15.861
822.92	15.814
823.22	15.811
823.52	15.777
823.83	15.718
824.13	15.702
824.43	15.655
824.73	15.597
825.03	15.530
825.33	15.552
825.63	15.704
825.93	15.653
826.23	15.616
826.53	15.531
826.83	15.552
827.13	15.443
827.43	15.381
827.73	15.341
828.03	15.322
828.33	15.307
828.63	15.241
828.93	14.910
829.23	15.172
829.53	15.039
829.83	15.036
830.13	14.770
830.42	14.908
830.72	14.857
831.02	14.992
831.32	15.000
831.62	14.893
831.92	14.710
832.22	14.813
832.52	14.580
832.82	14.739
833.12	14.810
833.42	14.882
833.72	14.969
834.01	15.128
834.31	14.989
834.61	15.019
834.91	15.061
835.21	15.246
835.51	15.471
835.81	15.713
836.11	15.727
836.40	15.391
836.70	15.478
837.00	14.925
837.30	14.578
837.60	14.893
837.90	14.498
838.19	14.402
838.49	14.157
838.79	13.524
839.09	13.110
839.39	12.900
839.68	13.439
839.98	13.610
840.28	13.501
840.58	13.605
840.88	13.325
841.17	13.095
841.47	13.514
841.77	13.174
842.07	12.563
842.36	12.318
842.66	12.020
842.96	11.679
843.26	10.571
843.55	10.199
843.85	9.082
844.15	7.426
844.45	8.316
844.74	7.471
845.04	7.980
845.34	8.123
845.63	7.562
845.93	8.177
846.23	7.592
846.53	7.336
846.82	6.880
847.12	6.470
847.42	5.536
847.71	4.609
848.01	4.087
848.31	4.261
848.60	4.922
848.90	4.827
849.19	4.281
849.49	4.740
849.79	4.847
850.08	6.451
850.38	6.725
850.68	8.892
850.97	9.726
851.27	9.627
851.56	8.008
851.86	7.933
852.16	8.876
852.45	9.968
852.75	9.781
853.04	10.062
853.34	9.370
853.64	8.771
853.93	9.524
854.23	9.973
854.52	10.365
854.82	12.341
855.11	11.845
855.41	11.482
855.70	10.420
856.00	10.780
856.30	11.117
856.59	10.212
856.89	12.597
857.18	11.405
857.48	9.772
857.77	9.328
858.07	9.174
858.36	9.141
858.66	7.311
858.95	7.059
859.25	6.634
859.54	5.975
859.84	7.303
860.13	6.528
860.42	6.137
860.72	8.016
861.01	9.161
861.31	7.954
861.60	8.956
861.90	10.209
862.19	9.911
862.49	8.312
862.78	10.022
863.07	9.008
863.37	8.606
863.66	8.081
863.96	7.330
864.25	6.834
864.54	8.310
864.84	6.773
865.13	6.774
865.43	6.778
865.72	11.773
866.01	18.759
866.31	-2.196
866.60	-0.082
866.89	3.222
>>>>>End Spectral Data<<<<<
