OOIBase32 Version 2.0.0.6 Data File
++++++++++++++++++++++++++++++++++++
Date: 01-23-2012, 22:06:03
User: Valued Ocean Optics Customer
Spectrometer Serial Number: USB2E2917
Spectrometer Channel: Master
Integration Time (msec): 5
Spectra Averaged: 10
Boxcar Smoothing: 5
Correct for Electrical Dark: Enabled
Time Normalized: Disabled
Dual-beam Reference: Disabled
Reference Channel: Master
Temperature: Not acquired
Spectrometer Type: S2000
ADC Type: USB2000
Number of Pixels in File: 2048
Graph Title: 
>>>>>Begin Spectral Data<<<<<
180.30	0.000
180.67	0.000
181.03	337.670
181.40	-100.464
181.77	10266.600
182.14	176.303
182.51	11.491
182.88	4743.008
183.25	78.005
183.62	-63.456
183.99	46.173
184.36	-37.728
184.73	174.168
185.10	1.896
185.46	-70.540
185.83	206.678
186.20	121.728
186.57	132.084
186.94	-391.069
187.31	185.647
187.68	-138.146
188.05	40.536
188.42	44.049
188.78	53.279
189.15	27.046
189.52	43.034
189.89	33.460
190.26	25.296
190.63	37.958
191.00	33.342
191.37	31.581
191.73	28.350
192.10	26.687
192.47	31.864
192.84	24.907
193.21	9.526
193.58	9.029
193.94	3.578
194.31	4.174
194.68	10.065
195.05	5.061
195.42	-7.678
195.79	-15.673
196.15	-15.506
196.52	-12.449
196.89	-21.866
197.26	-11.902
197.63	-28.924
198.00	-28.006
198.36	-22.157
198.73	-30.873
199.10	-26.671
199.47	-8.123
199.84	-8.335
200.20	0.444
200.57	-25.752
200.94	-28.605
201.31	-31.814
201.68	3.072
202.04	11.986
202.41	23.013
202.78	18.292
203.15	20.008
203.51	-5.798
203.88	0.604
204.25	-13.280
204.62	2.380
204.98	19.831
205.35	14.628
205.72	3.285
206.09	-0.874
206.46	-11.372
206.82	-16.508
207.19	-19.581
207.56	-5.901
207.92	-25.310
208.29	-19.503
208.66	-18.739
209.03	-18.446
209.39	-23.882
209.76	-31.485
210.13	-40.503
210.50	-28.067
210.86	-13.336
211.23	-4.859
211.60	-1.506
211.96	20.006
212.33	12.414
212.70	11.491
213.07	2.750
213.43	12.866
213.80	11.216
214.17	3.145
214.53	-3.276
214.90	-3.906
215.27	-14.987
215.63	-26.797
216.00	-37.908
216.37	-23.219
216.74	-31.378
217.10	-33.884
217.47	-58.050
217.84	-60.249
218.20	-36.892
218.57	-35.232
218.94	-36.201
219.30	-25.432
219.67	-15.867
220.04	-11.604
220.40	-17.722
220.77	-26.593
221.13	-25.967
221.50	-19.661
221.87	-14.605
222.23	-18.414
222.60	-16.466
222.97	-17.453
223.33	-25.058
223.70	-24.211
224.07	-18.431
224.43	-15.961
224.80	-9.253
225.16	-5.392
225.53	-1.046
225.90	-2.989
226.26	-3.126
226.63	-3.867
226.99	-3.187
227.36	0.385
227.73	-0.066
228.09	-1.937
228.46	-0.167
228.82	0.076
229.19	-1.677
229.56	-5.203
229.92	-4.150
230.29	-2.931
230.65	-2.784
231.02	-2.330
231.38	-6.155
231.75	-6.279
232.12	-4.447
232.48	-4.795
232.85	-3.651
233.21	-1.107
233.58	1.798
233.94	3.627
234.31	2.821
234.68	1.426
235.04	-0.684
235.41	1.257
235.77	1.723
236.14	0.965
236.50	-0.488
236.87	-0.658
237.23	-2.774
237.60	-2.939
237.96	-3.914
238.33	-2.843
238.69	-1.449
239.06	-0.757
239.42	-1.064
239.79	-0.812
240.15	-0.288
240.52	0.239
240.88	0.045
241.25	0.821
241.61	1.221
241.98	1.958
242.34	1.854
242.71	2.019
243.07	2.698
243.44	3.189
243.80	2.981
244.17	3.157
244.53	3.294
244.90	3.333
245.26	3.061
245.63	3.099
245.99	3.137
246.36	3.325
246.72	2.979
247.09	2.959
247.45	2.568
247.81	2.328
248.18	1.935
248.54	1.676
248.91	1.529
249.27	1.917
249.64	1.639
250.00	1.430
250.36	1.426
250.73	1.625
251.09	1.238
251.46	1.580
251.82	2.252
252.19	2.506
252.55	2.743
252.91	2.977
253.28	2.419
253.64	2.691
254.01	2.915
254.37	2.883
254.73	3.141
255.10	3.305
255.46	3.239
255.83	2.764
256.19	2.799
256.55	2.678
256.92	2.304
257.28	2.282
257.65	2.288
258.01	2.260
258.37	2.097
258.74	2.044
259.10	1.925
259.46	1.897
259.83	1.926
260.19	1.678
260.55	1.578
260.92	1.577
261.28	1.556
261.64	1.377
262.01	1.184
262.37	0.690
262.73	0.094
263.10	-0.023
263.46	0.207
263.82	0.195
264.19	0.024
264.55	0.137
264.91	0.229
265.28	0.716
265.64	0.873
266.00	0.717
266.37	1.307
266.73	1.904
267.09	2.030
267.46	1.923
267.82	2.101
268.18	2.413
268.54	2.373
268.91	2.512
269.27	2.334
269.63	2.009
270.00	2.011
270.36	1.843
270.72	1.551
271.08	1.102
271.45	1.056
271.81	1.232
272.17	1.408
272.53	1.376
272.90	1.259
273.26	1.114
273.62	1.546
273.98	1.539
274.35	1.520
274.71	1.795
275.07	2.231
275.43	2.288
275.80	2.131
276.16	2.240
276.52	2.088
276.88	2.036
277.25	1.959
277.61	1.660
277.97	1.614
278.33	1.420
278.69	1.196
279.06	1.191
279.42	0.939
279.78	0.939
280.14	0.804
280.50	1.044
280.87	1.341
281.23	1.655
281.59	1.672
281.95	1.775
282.31	2.070
282.68	2.128
283.04	2.209
283.40	2.391
283.76	2.214
284.12	2.211
284.48	2.226
284.85	2.228
285.21	2.031
285.57	2.005
285.93	2.078
286.29	1.996
286.65	2.007
287.02	1.847
287.38	1.790
287.74	2.085
288.10	2.015
288.46	1.912
288.82	1.665
289.18	1.585
289.54	1.572
289.91	1.615
290.27	1.627
290.63	1.747
290.99	1.904
291.35	2.009
291.71	2.135
292.07	2.116
292.43	2.332
292.79	2.708
293.16	3.042
293.52	3.281
293.88	3.403
294.24	3.514
294.60	3.558
294.96	3.569
295.32	3.608
295.68	3.371
296.04	3.562
296.40	3.592
296.76	3.676
297.12	3.733
297.49	3.787
297.85	3.963
298.21	4.167
298.57	4.252
298.93	4.450
299.29	4.689
299.65	5.051
300.01	5.371
300.37	5.577
300.73	6.069
301.09	6.449
301.45	6.782
301.81	7.076
302.17	7.325
302.53	7.680
302.89	8.050
303.25	8.289
303.61	8.631
303.97	8.799
304.33	8.995
304.69	8.982
305.05	9.177
305.41	9.268
305.77	9.393
306.13	9.584
306.49	9.779
306.85	9.949
307.21	10.248
307.57	10.437
307.93	10.584
308.29	10.869
308.65	10.932
309.01	11.092
309.37	11.448
309.73	11.599
310.09	11.725
310.45	11.868
310.81	12.120
311.17	12.160
311.53	12.281
311.89	12.516
312.25	12.532
312.61	12.745
312.96	12.770
313.32	12.821
313.68	12.765
314.04	12.832
314.40	12.941
314.76	12.947
315.12	13.054
315.48	13.088
315.84	13.073
316.20	13.241
316.56	13.212
316.92	13.275
317.27	13.176
317.63	13.309
317.99	13.234
318.35	13.152
318.71	13.063
319.07	13.063
319.43	13.165
319.79	13.092
320.15	13.033
320.50	12.933
320.86	12.975
321.22	13.139
321.58	13.121
321.94	12.996
322.30	12.993
322.66	12.950
323.01	12.980
323.37	12.824
323.73	12.858
324.09	12.923
324.45	12.998
324.81	12.870
325.17	12.630
325.52	12.625
325.88	12.672
326.24	12.680
326.60	12.819
326.96	12.790
327.31	12.755
327.67	12.709
328.03	12.573
328.39	12.465
328.75	12.491
329.11	12.585
329.46	12.512
329.82	12.555
330.18	12.622
330.54	12.494
330.90	12.432
331.25	12.448
331.61	12.304
331.97	12.244
332.33	12.305
332.68	12.152
333.04	12.007
333.40	12.025
333.76	11.957
334.11	11.776
334.47	11.578
334.83	11.370
335.19	11.364
335.54	11.460
335.90	11.512
336.26	11.465
336.62	11.590
336.97	11.572
337.33	11.464
337.69	11.510
338.05	11.554
338.40	11.661
338.76	11.756
339.12	11.613
339.48	11.559
339.83	11.513
340.19	11.525
340.55	11.316
340.90	11.245
341.26	11.149
341.62	11.015
341.97	10.953
342.33	10.966
342.69	10.919
343.04	10.893
343.40	10.800
343.76	10.800
344.12	10.778
344.47	10.890
344.83	10.837
345.19	10.915
345.54	10.935
345.90	10.976
346.26	10.885
346.61	10.863
346.97	10.829
347.32	10.834
347.68	10.706
348.04	10.551
348.39	10.501
348.75	10.620
349.11	10.571
349.46	10.467
349.82	10.360
350.18	10.297
350.53	10.180
350.89	10.120
351.24	10.075
351.60	9.992
351.96	10.012
352.31	9.955
352.67	9.818
353.02	9.737
353.38	9.687
353.74	9.672
354.09	9.654
354.45	9.752
354.80	9.746
355.16	9.717
355.52	9.754
355.87	9.687
356.23	9.646
356.58	9.675
356.94	9.633
357.29	9.662
357.65	9.561
358.00	9.537
358.36	9.398
358.72	9.371
359.07	9.317
359.43	9.310
359.78	9.285
360.14	9.250
360.49	9.154
360.85	9.159
361.20	9.144
361.56	9.167
361.91	9.117
362.27	9.124
362.62	9.106
362.98	9.058
363.33	8.958
363.69	8.888
364.04	8.858
364.40	8.839
364.75	8.772
365.11	8.741
365.46	8.760
365.82	8.724
366.17	8.684
366.53	8.724
366.88	8.699
367.24	8.739
367.59	8.777
367.95	8.801
368.30	8.789
368.66	8.841
369.01	8.813
369.37	8.753
369.72	8.733
370.08	8.795
370.43	8.697
370.78	8.704
371.14	8.665
371.49	8.642
371.85	8.605
372.20	8.583
372.56	8.527
372.91	8.457
373.26	8.368
373.62	8.347
373.97	8.288
374.33	8.294
374.68	8.226
375.03	8.191
375.39	8.117
375.74	8.076
376.10	8.056
376.45	7.994
376.80	8.011
377.16	8.031
377.51	8.051
377.87	7.971
378.22	7.921
378.57	7.979
378.93	7.933
379.28	7.943
379.63	7.914
379.99	7.903
380.34	7.899
380.70	7.857
381.05	7.865
381.40	7.801
381.76	7.790
382.11	7.742
382.46	7.641
382.82	7.629
383.17	7.587
383.52	7.559
383.88	7.477
384.23	7.451
384.58	7.392
384.94	7.308
385.29	7.247
385.64	7.201
385.99	7.176
386.35	7.213
386.70	7.150
387.05	7.140
387.41	7.108
387.76	7.086
388.11	6.997
388.47	7.012
388.82	6.980
389.17	6.949
389.52	6.923
389.88	6.876
390.23	6.816
390.58	6.820
390.93	6.750
391.29	6.702
391.64	6.674
391.99	6.654
392.34	6.620
392.70	6.569
393.05	6.534
393.40	6.505
393.75	6.498
394.11	6.424
394.46	6.372
394.81	6.300
395.16	6.223
395.52	6.189
395.87	6.138
396.22	6.033
396.57	5.985
396.92	5.923
397.28	5.875
397.63	5.805
397.98	5.789
398.33	5.753
398.68	5.768
399.04	5.738
399.39	5.660
399.74	5.644
400.09	5.608
400.44	5.603
400.80	5.572
401.15	5.536
401.50	5.509
401.85	5.478
402.20	5.419
402.55	5.380
402.90	5.340
403.26	5.346
403.61	5.311
403.96	5.300
404.31	5.248
404.66	5.237
405.01	5.209
405.36	5.208
405.72	5.177
406.07	5.170
406.42	5.144
406.77	5.124
407.12	5.079
407.47	5.058
407.82	5.019
408.17	4.995
408.53	4.949
408.88	4.913
409.23	4.862
409.58	4.828
409.93	4.797
410.28	4.753
410.63	4.744
410.98	4.729
411.33	4.687
411.68	4.656
412.03	4.661
412.38	4.669
412.73	4.669
413.09	4.665
413.44	4.645
413.79	4.644
414.14	4.628
414.49	4.608
414.84	4.575
415.19	4.572
415.54	4.579
415.89	4.545
416.24	4.510
416.59	4.482
416.94	4.464
417.29	4.451
417.64	4.417
417.99	4.413
418.34	4.410
418.69	4.402
419.04	4.382
419.39	4.370
419.74	4.353
420.09	4.345
420.44	4.347
420.79	4.335
421.14	4.304
421.49	4.295
421.84	4.282
422.19	4.265
422.54	4.279
422.89	4.272
423.24	4.251
423.59	4.244
423.94	4.256
424.29	4.245
424.64	4.233
424.99	4.257
425.34	4.238
425.68	4.245
426.03	4.256
426.38	4.220
426.73	4.233
427.08	4.230
427.43	4.235
427.78	4.219
428.13	4.212
428.48	4.206
428.83	4.196
429.18	4.218
429.53	4.231
429.87	4.227
430.22	4.222
430.57	4.207
430.92	4.205
431.27	4.217
431.62	4.225
431.97	4.226
432.32	4.227
432.67	4.232
433.01	4.222
433.36	4.216
433.71	4.206
434.06	4.232
434.41	4.263
434.76	4.296
435.11	4.292
435.45	4.294
435.80	4.297
436.15	4.333
436.50	4.351
436.85	4.368
437.20	4.369
437.54	4.399
437.89	4.391
438.24	4.409
438.59	4.403
438.94	4.427
439.29	4.444
439.63	4.461
439.98	4.471
440.33	4.484
440.68	4.510
441.03	4.529
441.37	4.538
441.72	4.574
442.07	4.581
442.42	4.619
442.76	4.623
443.11	4.641
443.46	4.647
443.81	4.653
444.16	4.658
444.50	4.658
444.85	4.685
445.20	4.686
445.55	4.685
445.89	4.677
446.24	4.660
446.59	4.675
446.94	4.672
447.28	4.693
447.63	4.695
447.98	4.707
448.32	4.732
448.67	4.704
449.02	4.718
449.37	4.727
449.71	4.728
450.06	4.749
450.41	4.741
450.75	4.740
451.10	4.723
451.45	4.735
451.79	4.737
452.14	4.724
452.49	4.734
452.84	4.742
453.18	4.744
453.53	4.787
453.88	4.792
454.22	4.799
454.57	4.810
454.92	4.821
455.26	4.827
455.61	4.829
455.95	4.856
456.30	4.883
456.65	4.883
456.99	4.891
457.34	4.883
457.69	4.909
458.03	4.911
458.38	4.923
458.73	4.943
459.07	4.968
459.42	4.986
459.76	4.985
460.11	4.966
460.46	4.969
460.80	4.986
461.15	4.998
461.49	4.987
461.84	5.013
462.19	5.014
462.53	5.023
462.88	5.005
463.22	5.006
463.57	5.035
463.91	5.083
464.26	5.119
464.61	5.125
464.95	5.140
465.30	5.163
465.64	5.170
465.99	5.195
466.33	5.209
466.68	5.246
467.02	5.265
467.37	5.269
467.71	5.247
468.06	5.255
468.41	5.272
468.75	5.276
469.10	5.259
469.44	5.251
469.79	5.236
470.13	5.241
470.48	5.205
470.82	5.190
471.17	5.191
471.51	5.197
471.86	5.175
472.20	5.148
472.55	5.153
472.89	5.141
473.23	5.146
473.58	5.136
473.92	5.098
474.27	5.075
474.61	5.069
474.96	5.026
475.30	4.992
475.65	4.975
475.99	4.976
476.34	4.956
476.68	4.966
477.02	4.947
477.37	4.933
477.71	4.945
478.06	4.960
478.40	4.990
478.75	5.040
479.09	5.095
479.43	5.154
479.78	5.208
480.12	5.274
480.47	5.358
480.81	5.446
481.15	5.536
481.50	5.625
481.84	5.724
482.19	5.825
482.53	5.905
482.87	5.948
483.22	5.930
483.56	5.873
483.90	5.781
484.25	5.646
484.59	5.539
484.94	5.448
485.28	5.357
485.62	5.248
485.97	5.121
486.31	5.007
486.65	4.943
487.00	4.930
487.34	4.958
487.68	5.006
488.03	5.086
488.37	5.128
488.71	5.146
489.06	5.143
489.40	5.150
489.74	5.149
490.09	5.157
490.43	5.146
490.77	5.131
491.11	5.122
491.46	5.116
491.80	5.106
492.14	5.092
492.49	5.084
492.83	5.091
493.17	5.076
493.51	5.082
493.86	5.079
494.20	5.077
494.54	5.088
494.88	5.091
495.23	5.107
495.57	5.112
495.91	5.145
496.25	5.161
496.60	5.175
496.94	5.201
497.28	5.222
497.62	5.253
497.97	5.285
498.31	5.322
498.65	5.340
498.99	5.361
499.33	5.399
499.68	5.411
500.02	5.436
500.36	5.457
500.70	5.472
501.04	5.497
501.39	5.527
501.73	5.568
502.07	5.579
502.41	5.618
502.75	5.646
503.09	5.674
503.44	5.718
503.78	5.754
504.12	5.799
504.46	5.848
504.80	5.881
505.14	5.894
505.49	5.915
505.83	5.968
506.17	6.019
506.51	6.061
506.85	6.091
507.19	6.133
507.53	6.167
507.87	6.186
508.22	6.219
508.56	6.248
508.90	6.273
509.24	6.312
509.58	6.327
509.92	6.327
510.26	6.337
510.60	6.369
510.94	6.370
511.28	6.392
511.63	6.434
511.97	6.439
512.31	6.449
512.65	6.481
512.99	6.485
513.33	6.524
513.67	6.559
514.01	6.610
514.35	6.639
514.69	6.667
515.03	6.689
515.37	6.686
515.71	6.716
516.05	6.744
516.39	6.770
516.73	6.794
517.07	6.800
517.41	6.804
517.75	6.793
518.09	6.788
518.43	6.787
518.77	6.775
519.11	6.787
519.45	6.782
519.79	6.773
520.13	6.761
520.47	6.747
520.81	6.740
521.15	6.750
521.49	6.759
521.83	6.752
522.17	6.778
522.51	6.801
522.85	6.818
523.19	6.840
523.53	6.885
523.87	6.927
524.21	6.966
524.55	6.997
524.89	7.024
525.23	7.061
525.57	7.105
525.91	7.125
526.25	7.149
526.58	7.161
526.92	7.178
527.26	7.178
527.60	7.173
527.94	7.163
528.28	7.149
528.62	7.127
528.96	7.089
529.30	7.049
529.64	7.014
529.97	6.979
530.31	6.951
530.65	6.898
530.99	6.862
531.33	6.836
531.67	6.819
532.01	6.796
532.35	6.779
532.68	6.763
533.02	6.744
533.36	6.722
533.70	6.684
534.04	6.643
534.38	6.634
534.71	6.609
535.05	6.570
535.39	6.530
535.73	6.516
536.07	6.493
536.41	6.476
536.74	6.486
537.08	6.484
537.42	6.504
537.76	6.509
538.10	6.510
538.43	6.528
538.77	6.543
539.11	6.567
539.45	6.567
539.79	6.570
540.12	6.567
540.46	6.543
540.80	6.524
541.14	6.495
541.47	6.490
541.81	6.465
542.15	6.426
542.49	6.384
542.82	6.331
543.16	6.291
543.50	6.245
543.84	6.214
544.17	6.183
544.51	6.164
544.85	6.149
545.18	6.102
545.52	6.081
545.86	6.054
546.20	6.034
546.53	6.009
546.87	5.977
547.21	5.937
547.54	5.903
547.88	5.872
548.22	5.858
548.55	5.825
548.89	5.828
549.23	5.806
549.56	5.776
549.90	5.773
550.24	5.774
550.57	5.784
550.91	5.798
551.25	5.790
551.58	5.796
551.92	5.776
552.26	5.759
552.59	5.735
552.93	5.729
553.27	5.749
553.60	5.725
553.94	5.727
554.27	5.700
554.61	5.695
554.95	5.706
555.28	5.703
555.62	5.695
555.95	5.720
556.29	5.733
556.63	5.739
556.96	5.737
557.30	5.763
557.63	5.751
557.97	5.750
558.31	5.762
558.64	5.774
558.98	5.776
559.31	5.783
559.65	5.784
559.98	5.777
560.32	5.764
560.65	5.757
560.99	5.750
561.33	5.754
561.66	5.781
562.00	5.786
562.33	5.777
562.67	5.782
563.00	5.808
563.34	5.823
563.67	5.822
564.01	5.844
564.34	5.841
564.68	5.859
565.01	5.865
565.35	5.852
565.68	5.860
566.02	5.888
566.35	5.893
566.69	5.900
567.02	5.900
567.36	5.924
567.69	5.939
568.03	5.979
568.36	5.977
568.69	5.989
569.03	6.018
569.36	6.019
569.70	5.994
570.03	6.004
570.37	5.993
570.70	5.998
571.04	5.991
571.37	5.989
571.70	5.983
572.04	5.989
572.37	5.986
572.71	5.997
573.04	6.001
573.37	6.033
573.71	6.050
574.04	6.062
574.38	6.058
574.71	6.061
575.04	6.059
575.38	6.056
575.71	6.066
576.05	6.072
576.38	6.053
576.71	6.052
577.05	6.032
577.38	6.019
577.71	6.031
578.05	6.024
578.38	6.015
578.71	6.008
579.05	6.000
579.38	5.991
579.71	5.988
580.05	5.994
580.38	5.990
580.71	5.991
581.05	5.980
581.38	5.960
581.71	5.992
582.05	6.018
582.38	6.045
582.71	6.074
583.04	6.056
583.38	6.060
583.71	6.080
584.04	6.106
584.38	6.119
584.71	6.135
585.04	6.152
585.37	6.175
585.71	6.194
586.04	6.195
586.37	6.209
586.70	6.251
587.04	6.265
587.37	6.269
587.70	6.260
588.03	6.270
588.37	6.292
588.70	6.299
589.03	6.286
589.36	6.290
589.69	6.286
590.03	6.245
590.36	6.244
590.69	6.279
591.02	6.300
591.35	6.308
591.69	6.328
592.02	6.324
592.35	6.323
592.68	6.325
593.01	6.330
593.35	6.358
593.68	6.421
594.01	6.413
594.34	6.409
594.67	6.403
595.00	6.410
595.34	6.404
595.67	6.407
596.00	6.425
596.33	6.430
596.66	6.415
596.99	6.402
597.32	6.377
597.65	6.404
597.99	6.398
598.32	6.381
598.65	6.408
598.98	6.391
599.31	6.404
599.64	6.430
599.97	6.457
600.30	6.461
600.63	6.476
600.96	6.485
601.30	6.499
601.63	6.505
601.96	6.532
602.29	6.531
602.62	6.569
602.95	6.583
603.28	6.570
603.61	6.557
603.94	6.572
604.27	6.581
604.60	6.562
604.93	6.538
605.26	6.562
605.59	6.547
605.92	6.543
606.25	6.509
606.58	6.505
606.91	6.511
607.24	6.537
607.57	6.541
607.90	6.535
608.23	6.553
608.56	6.567
608.89	6.547
609.22	6.532
609.55	6.500
609.88	6.505
610.21	6.470
610.54	6.441
610.87	6.396
611.20	6.363
611.53	6.339
611.86	6.330
612.19	6.331
612.52	6.305
612.85	6.286
613.18	6.307
613.51	6.277
613.84	6.274
614.17	6.273
614.49	6.284
614.82	6.292
615.15	6.294
615.48	6.281
615.81	6.261
616.14	6.267
616.47	6.291
616.80	6.277
617.13	6.307
617.46	6.333
617.78	6.323
618.11	6.299
618.44	6.308
618.77	6.298
619.10	6.285
619.43	6.274
619.76	6.244
620.09	6.230
620.41	6.212
620.74	6.205
621.07	6.170
621.40	6.143
621.73	6.163
622.06	6.161
622.38	6.201
622.71	6.209
623.04	6.202
623.37	6.263
623.70	6.271
624.02	6.298
624.35	6.314
624.68	6.327
625.01	6.369
625.34	6.367
625.66	6.375
625.99	6.339
626.32	6.352
626.65	6.360
626.98	6.315
627.30	6.309
627.63	6.308
627.96	6.288
628.29	6.263
628.61	6.256
628.94	6.239
629.27	6.215
629.60	6.243
629.92	6.213
630.25	6.224
630.58	6.191
630.91	6.180
631.23	6.165
631.56	6.154
631.89	6.189
632.21	6.168
632.54	6.125
632.87	6.124
633.19	6.108
633.52	6.075
633.85	6.038
634.18	6.008
634.50	5.997
634.83	5.951
635.16	5.951
635.48	5.925
635.81	5.883
636.14	5.884
636.46	5.836
636.79	5.792
637.11	5.821
637.44	5.814
637.77	5.841
638.09	5.842
638.42	5.838
638.75	5.800
639.07	5.787
639.40	5.773
639.73	5.776
640.05	5.812
640.38	5.806
640.70	5.778
641.03	5.784
641.36	5.767
641.68	5.721
642.01	5.737
642.33	5.775
642.66	5.750
642.98	5.740
643.31	5.753
643.64	5.737
643.96	5.740
644.29	5.783
644.61	5.769
644.94	5.781
645.26	5.820
645.59	5.834
645.91	5.837
646.24	5.832
646.56	5.873
646.89	5.843
647.22	5.852
647.54	5.846
647.87	5.805
648.19	5.779
648.52	5.789
648.84	5.803
649.17	5.796
649.49	5.743
649.82	5.738
650.14	5.756
650.47	5.783
650.79	5.748
651.11	5.724
651.44	5.750
651.76	5.744
652.09	5.697
652.41	5.639
652.74	5.611
653.06	5.633
653.39	5.666
653.71	5.661
654.04	5.636
654.36	5.658
654.68	5.639
655.01	5.641
655.33	5.675
655.66	5.683
655.98	5.699
656.30	5.698
656.63	5.707
656.95	5.707
657.28	5.659
657.60	5.622
657.92	5.561
658.25	5.549
658.57	5.507
658.90	5.481
659.22	5.472
659.54	5.478
659.87	5.432
660.19	5.347
660.51	5.324
660.84	5.305
661.16	5.294
661.48	5.295
661.81	5.278
662.13	5.223
662.45	5.178
662.78	5.139
663.10	5.093
663.42	5.165
663.75	5.173
664.07	5.167
664.39	5.135
664.72	5.109
665.04	5.090
665.36	5.114
665.69	5.103
666.01	5.131
666.33	5.133
666.65	5.085
666.98	5.001
667.30	5.008
667.62	4.912
667.94	4.913
668.27	4.966
668.59	4.943
668.91	4.905
669.23	4.953
669.56	4.885
669.88	4.869
670.20	4.828
670.52	4.803
670.85	4.831
671.17	4.861
671.49	4.861
671.81	4.847
672.13	4.838
672.46	4.820
672.78	4.734
673.10	4.707
673.42	4.715
673.74	4.786
674.07	4.800
674.39	4.715
674.71	4.727
675.03	4.683
675.35	4.641
675.67	4.668
676.00	4.676
676.32	4.749
676.64	4.796
676.96	4.862
677.28	4.848
677.60	4.866
677.92	4.920
678.25	4.930
678.57	4.984
678.89	4.977
679.21	5.003
679.53	5.050
679.85	4.972
680.17	4.984
680.49	4.927
680.81	4.967
681.13	4.971
681.46	4.979
681.78	4.982
682.10	5.011
682.42	5.042
682.74	5.052
683.06	5.027
683.38	5.165
683.70	5.190
684.02	5.184
684.34	5.171
684.66	5.207
684.98	5.197
685.30	5.254
685.62	5.236
685.94	5.245
686.26	5.201
686.58	5.224
686.90	5.182
687.22	5.116
687.54	5.184
687.86	5.112
688.18	5.061
688.50	5.022
688.82	4.888
689.14	4.842
689.46	4.797
689.78	4.790
690.10	4.666
690.42	4.637
690.74	4.624
691.06	4.579
691.38	4.576
691.70	4.507
692.02	4.510
692.34	4.516
692.66	4.435
692.98	4.412
693.30	4.450
693.62	4.494
693.94	4.444
694.26	4.538
694.57	4.576
694.89	4.661
695.21	4.779
695.53	4.825
695.85	4.849
696.17	4.962
696.49	4.978
696.81	4.977
697.13	4.988
697.44	5.081
697.76	5.018
698.08	4.945
698.40	4.928
698.72	4.853
699.04	4.782
699.36	4.732
699.67	4.656
699.99	4.575
700.31	4.519
700.63	4.421
700.95	4.235
701.27	4.153
701.58	4.114
701.90	3.957
702.22	3.863
702.54	3.753
702.86	3.717
703.17	3.621
703.49	3.648
703.81	3.559
704.13	3.631
704.45	3.646
704.76	3.610
705.08	3.575
705.40	3.531
705.72	3.567
706.03	3.573
706.35	3.590
706.67	3.570
706.99	3.570
707.30	3.566
707.62	3.506
707.94	3.457
708.26	3.439
708.57	3.454
708.89	3.556
709.21	3.473
709.53	3.487
709.84	3.479
710.16	3.553
710.48	3.605
710.79	3.637
711.11	3.660
711.43	3.712
711.74	3.776
712.06	3.841
712.38	3.774
712.69	3.850
713.01	3.964
713.33	4.019
713.64	4.042
713.96	4.061
714.28	4.159
714.59	4.236
714.91	4.340
715.23	4.439
715.54	4.398
715.86	4.568
716.17	4.669
716.49	4.661
716.81	4.652
717.12	4.631
717.44	4.648
717.76	4.574
718.07	4.505
718.39	4.315
718.70	4.222
719.02	4.193
719.33	4.081
719.65	4.022
719.97	3.969
720.28	3.918
720.60	3.898
720.91	3.843
721.23	3.812
721.54	3.892
721.86	3.986
722.17	3.946
722.49	3.949
722.81	3.845
723.12	3.772
723.44	3.734
723.75	3.747
724.07	3.785
724.38	3.778
724.70	3.911
725.01	3.921
725.33	3.998
725.64	4.071
725.96	4.105
726.27	4.221
726.59	4.256
726.90	4.287
727.22	4.296
727.53	4.323
727.84	4.308
728.16	4.165
728.47	4.047
728.79	3.997
729.10	3.957
729.42	3.943
729.73	3.922
730.05	3.922
730.36	3.882
730.67	3.851
730.99	3.751
731.30	3.569
731.62	3.421
731.93	3.441
732.24	3.315
732.56	3.284
732.87	3.079
733.19	2.927
733.50	2.810
733.81	2.645
734.13	2.546
734.44	2.493
734.76	2.552
735.07	2.570
735.38	2.483
735.70	2.424
736.01	2.256
736.32	2.298
736.64	2.380
736.95	2.235
737.26	2.216
737.58	2.206
737.89	2.159
738.20	2.025
738.52	1.957
738.83	1.856
739.14	1.867
739.45	1.892
739.77	1.873
740.08	1.796
740.39	1.751
740.71	1.677
741.02	1.736
741.33	1.688
741.64	1.535
741.96	1.353
742.27	1.411
742.58	1.181
742.90	1.150
743.21	1.015
743.52	0.876
743.83	1.012
744.14	1.043
744.46	0.764
744.77	0.694
745.08	1.089
745.39	1.169
745.71	1.019
746.02	1.065
746.33	0.927
746.64	1.018
746.95	1.116
747.27	1.030
747.58	1.113
747.89	1.254
748.20	1.232
748.51	1.055
748.82	1.229
749.14	1.128
749.45	1.186
749.76	1.276
750.07	1.215
750.38	1.149
750.69	1.166
751.01	1.175
751.32	1.147
751.63	1.076
751.94	1.040
752.25	0.955
752.56	1.042
752.87	1.119
753.18	0.979
753.49	1.050
753.81	0.926
754.12	0.984
754.43	1.028
754.74	1.162
755.05	1.341
755.36	1.556
755.67	1.702
755.98	1.984
756.29	2.172
756.60	2.485
756.91	2.836
757.22	3.297
757.53	3.606
757.84	3.912
758.15	4.173
758.46	4.506
758.77	4.692
759.09	5.046
759.40	5.188
759.71	5.371
760.02	5.456
760.33	5.458
760.64	5.451
760.95	5.463
761.26	5.399
761.57	5.409
761.88	5.228
762.18	5.170
762.49	4.989
762.80	4.852
763.11	4.729
763.42	4.704
763.73	4.596
764.04	4.421
764.35	4.176
764.66	3.898
764.97	3.482
765.28	3.341
765.59	3.018
765.90	2.762
766.21	2.729
766.52	2.334
766.83	1.924
767.14	1.701
767.44	1.423
767.75	1.209
768.06	1.034
768.37	0.833
768.68	0.812
768.99	0.730
769.30	0.547
769.61	0.060
769.91	-0.143
770.22	-0.335
770.53	-0.445
770.84	-0.192
771.15	-0.264
771.46	-0.244
771.77	-0.153
772.07	-0.279
772.38	-0.366
772.69	-0.315
773.00	-0.322
773.31	0.069
773.61	0.003
773.92	-0.243
774.23	-0.606
774.54	-0.531
774.85	-0.412
775.15	-0.376
775.46	-0.619
775.77	-0.830
776.08	-0.926
776.39	-0.903
776.69	-1.096
777.00	-0.755
777.31	-0.588
777.62	-0.376
777.92	-0.539
778.23	-0.404
778.54	-0.468
778.85	-0.273
779.15	0.049
779.46	-0.026
779.77	-0.100
780.07	-0.259
780.38	-0.443
780.69	-0.347
781.00	-0.742
781.30	-0.755
781.61	-1.096
781.92	-0.899
782.22	-0.849
782.53	-0.846
782.84	-0.657
783.14	-0.554
783.45	-0.234
783.76	0.047
784.06	-0.181
784.37	0.314
784.68	0.366
784.98	0.724
785.29	0.782
785.60	0.987
785.90	1.008
786.21	1.025
786.51	1.243
786.82	1.071
787.13	1.416
787.43	1.751
787.74	1.532
788.04	1.854
788.35	1.752
788.66	1.700
788.96	1.693
789.27	1.946
789.57	2.034
789.88	2.134
790.19	2.271
790.49	1.835
790.80	2.036
791.10	2.345
791.41	2.111
791.71	1.939
792.02	2.017
792.32	1.739
792.63	1.493
792.93	1.306
793.24	0.695
793.54	0.408
793.85	0.792
794.15	0.506
794.46	0.356
794.76	0.797
795.07	0.881
795.37	0.832
795.68	0.864
795.98	1.051
796.29	1.397
796.59	1.767
796.90	1.894
797.20	1.401
797.51	1.635
797.81	1.469
798.12	1.374
798.42	1.420
798.72	1.496
799.03	1.908
799.33	1.821
799.64	1.607
799.94	1.866
800.25	2.255
800.55	2.603
800.85	2.159
801.16	2.350
801.46	2.246
801.77	2.202
802.07	1.906
802.37	1.542
802.68	1.545
802.98	1.488
803.28	1.358
803.59	0.803
803.89	0.700
804.20	1.048
804.50	1.185
804.80	0.705
805.11	0.876
805.41	1.331
805.71	1.433
806.02	1.370
806.32	1.642
806.62	1.401
806.93	1.707
807.23	1.849
807.53	1.566
807.83	1.372
808.14	1.790
808.44	2.040
808.74	1.953
809.05	2.009
809.35	2.308
809.65	2.160
809.95	2.413
810.26	2.787
810.56	3.039
810.86	3.166
811.16	3.176
811.47	3.103
811.77	2.935
812.07	2.785
812.37	2.190
812.68	1.968
812.98	2.532
813.28	2.711
813.58	2.366
813.88	2.039
814.19	2.260
814.49	2.197
814.79	2.400
815.09	2.583
815.39	2.660
815.70	3.378
816.00	3.396
816.30	2.798
816.60	2.600
816.90	3.349
817.20	3.551
817.50	3.896
817.81	4.307
818.11	4.534
818.41	4.782
818.71	4.899
819.01	5.165
819.31	5.382
819.61	5.665
819.92	5.796
820.22	5.863
820.52	6.037
820.82	6.090
821.12	6.176
821.42	6.264
821.72	6.317
822.02	6.377
822.32	6.347
822.62	6.370
822.92	6.365
823.22	6.445
823.52	6.413
823.83	6.327
824.13	6.246
824.43	6.201
824.73	6.131
825.03	6.111
825.33	6.126
825.63	6.204
825.93	6.102
826.23	6.173
826.53	6.119
826.83	6.148
827.13	6.018
827.43	6.021
827.73	5.983
828.03	5.979
828.33	5.865
828.63	5.878
828.93	5.796
829.23	5.964
829.53	5.543
829.83	5.689
830.13	5.254
830.42	5.560
830.72	5.871
831.02	6.108
831.32	6.073
831.62	6.010
831.92	5.783
832.22	5.563
832.52	5.509
832.82	5.796
833.12	5.538
833.42	5.765
833.72	5.738
834.01	5.408
834.31	5.135
834.61	5.147
834.91	4.999
835.21	5.000
835.51	5.013
835.81	4.948
836.11	4.484
836.40	4.223
836.70	4.264
837.00	3.908
837.30	3.612
837.60	3.784
837.90	3.541
838.19	3.765
838.49	3.356
838.79	3.338
839.09	2.834
839.39	3.162
839.68	2.922
839.98	2.492
840.28	2.023
840.58	2.370
840.88	2.000
841.17	1.181
841.47	0.713
841.77	1.503
842.07	1.503
842.36	1.894
842.66	0.948
842.96	1.545
843.26	-0.320
843.55	-0.465
843.85	-0.559
844.15	-1.862
844.45	-0.917
844.74	-0.298
845.04	-2.460
845.34	-3.009
845.63	-4.891
845.93	-4.612
846.23	-5.159
846.53	-3.224
846.82	-3.634
847.12	-4.154
847.42	-5.309
847.71	-6.503
848.01	-7.393
848.31	-5.093
848.60	-6.366
848.90	-5.880
849.19	-5.127
849.49	-4.919
849.79	-4.880
850.08	-2.335
850.38	-1.278
850.68	0.943
850.97	1.391
851.27	1.215
851.56	-0.327
851.86	0.687
852.16	1.977
852.45	1.461
852.75	0.389
853.04	0.274
853.34	-1.098
853.64	-2.500
853.93	-3.522
854.23	-3.635
854.52	-3.476
854.82	-1.157
855.11	-1.538
855.41	-1.875
855.70	-0.566
856.00	0.127
856.30	0.171
856.59	-1.206
856.89	-1.668
857.18	-0.903
857.48	-1.149
857.77	-1.875
858.07	-2.851
858.36	-2.273
858.66	-2.273
858.95	-2.540
859.25	-2.811
859.54	-4.207
859.84	-2.560
860.13	-1.126
860.42	0.026
860.72	1.992
861.01	2.793
861.31	0.842
861.60	0.575
861.90	-1.516
862.19	-2.708
862.49	-3.469
862.78	-0.129
863.07	-0.869
863.37	-1.754
863.66	-3.958
863.96	-5.188
864.25	-4.261
864.54	-1.246
864.84	-1.940
865.13	-1.225
865.43	-2.386
865.72	10.806
866.01	12.851
866.31	-10.618
866.60	-14.625
866.89	-12.356
>>>>>End Spectral Data<<<<<
