OOIBase32 Version 2.0.0.6 Data File
++++++++++++++++++++++++++++++++++++
Date: 01-20-2012, 23:32:34
User: Valued Ocean Optics Customer
Spectrometer Serial Number: USB2E2917
Spectrometer Channel: Master
Integration Time (msec): 3
Spectra Averaged: 10
Boxcar Smoothing: 5
Correct for Electrical Dark: Enabled
Time Normalized: Disabled
Dual-beam Reference: Disabled
Reference Channel: Master
Temperature: Not acquired
Spectrometer Type: S2000
ADC Type: USB2000
Number of Pixels in File: 2048
Graph Title: 
>>>>>Begin Spectral Data<<<<<
180.30	0.000
180.67	0.000
181.03	-10.208
181.40	56.532
181.77	81.038
182.14	194.389
182.51	275.978
182.88	27.914
183.25	96.546
183.62	-115.942
183.99	123.175
184.36	103.331
184.73	4.487
185.10	120.065
185.46	146.500
185.83	25.694
186.20	-589.470
186.57	-2643.842
186.94	68.186
187.31	-1429.980
187.68	26.766
188.05	136.240
188.42	133.050
188.78	119.749
189.15	120.469
189.52	89.381
189.89	82.709
190.26	89.266
190.63	97.582
191.00	103.790
191.37	100.831
191.73	95.133
192.10	75.522
192.47	69.253
192.84	70.918
193.21	55.147
193.58	48.230
193.94	41.312
194.31	27.494
194.68	17.610
195.05	5.599
195.42	7.969
195.79	23.183
196.15	23.299
196.52	20.937
196.89	10.647
197.26	38.038
197.63	33.940
198.00	64.404
198.36	78.100
198.73	63.945
199.10	73.285
199.47	88.691
199.84	58.941
200.20	36.729
200.57	29.630
200.94	41.856
201.31	37.543
201.68	55.652
202.04	51.642
202.41	53.066
202.78	54.606
203.15	49.492
203.51	40.418
203.88	51.186
204.25	69.997
204.62	102.217
204.98	99.217
205.35	92.118
205.72	100.169
206.09	104.833
206.46	96.463
206.82	97.014
207.19	93.156
207.56	90.877
207.92	86.387
208.29	80.752
208.66	83.684
209.03	80.814
209.39	70.773
209.76	52.925
210.13	47.335
210.50	52.031
210.86	34.276
211.23	50.681
211.60	50.668
211.96	59.711
212.33	50.124
212.70	24.081
213.07	19.125
213.43	30.738
213.80	41.172
214.17	54.531
214.53	53.052
214.90	65.143
215.27	75.092
215.63	79.988
216.00	59.604
216.37	47.166
216.74	35.069
217.10	35.938
217.47	52.742
217.84	63.995
218.20	47.632
218.57	37.446
218.94	36.610
219.30	16.859
219.67	20.858
220.04	40.539
220.40	49.658
220.77	47.046
221.13	45.489
221.50	44.274
221.87	38.719
222.23	35.322
222.60	39.275
222.97	38.633
223.33	35.502
223.70	35.697
224.07	30.569
224.43	25.821
224.80	24.385
225.16	23.439
225.53	20.702
225.90	20.764
226.26	22.324
226.63	18.033
226.99	18.036
227.36	16.711
227.73	13.686
228.09	12.347
228.46	12.715
228.82	11.592
229.19	13.092
229.56	13.163
229.92	14.049
230.29	15.470
230.65	16.810
231.02	13.965
231.38	14.468
231.75	17.480
232.12	17.843
232.48	19.575
232.85	21.411
233.21	22.080
233.58	20.881
233.94	19.376
234.31	19.289
234.68	22.413
235.04	25.975
235.41	25.525
235.77	25.494
236.14	25.476
236.50	21.471
236.87	19.795
237.23	18.149
237.60	16.940
237.96	14.343
238.33	11.872
238.69	11.082
239.06	10.634
239.42	9.694
239.79	9.082
240.15	9.114
240.52	10.198
240.88	10.641
241.25	10.010
241.61	10.375
241.98	10.741
242.34	10.505
242.71	9.890
243.07	9.486
243.44	9.673
243.80	9.288
244.17	8.846
244.53	8.150
244.90	7.626
245.26	7.396
245.63	7.034
245.99	7.401
246.36	8.115
246.72	8.342
247.09	8.529
247.45	8.515
247.81	8.582
248.18	8.882
248.54	9.265
248.91	9.457
249.27	10.304
249.64	10.826
250.00	9.977
250.36	9.168
250.73	8.668
251.09	7.841
251.46	7.498
251.82	7.638
252.19	7.650
252.55	8.132
252.91	9.081
253.28	8.894
253.64	8.604
254.01	9.736
254.37	9.471
254.73	9.143
255.10	9.337
255.46	9.206
255.83	8.541
256.19	7.987
256.55	7.474
256.92	6.936
257.28	7.030
257.65	6.989
258.01	6.934
258.37	7.004
258.74	7.470
259.10	7.267
259.46	7.638
259.83	7.740
260.19	8.250
260.55	8.083
260.92	8.601
261.28	8.472
261.64	8.558
262.01	8.142
262.37	8.653
262.73	8.017
263.10	8.496
263.46	7.942
263.82	7.974
264.19	7.289
264.55	7.406
264.91	6.846
265.28	6.999
265.64	6.853
266.00	7.233
266.37	6.945
266.73	7.185
267.09	6.998
267.46	7.262
267.82	7.697
268.18	7.594
268.54	7.518
268.91	7.785
269.27	7.562
269.63	7.919
270.00	7.685
270.36	7.597
270.72	7.705
271.08	8.046
271.45	8.052
271.81	8.220
272.17	8.413
272.53	9.142
272.90	9.105
273.26	9.318
273.62	9.362
273.98	9.883
274.35	10.076
274.71	10.299
275.07	9.792
275.43	9.960
275.80	9.386
276.16	9.496
276.52	9.128
276.88	9.196
277.25	9.040
277.61	8.762
277.97	8.570
278.33	8.318
278.69	8.172
279.06	8.341
279.42	8.048
279.78	8.056
280.14	7.970
280.50	7.770
280.87	7.290
281.23	7.252
281.59	7.342
281.95	7.407
282.31	7.506
282.68	7.273
283.04	7.191
283.40	7.140
283.76	7.019
284.12	7.160
284.48	7.166
284.85	7.270
285.21	7.365
285.57	7.485
285.93	7.077
286.29	6.770
286.65	6.730
287.02	7.025
287.38	7.135
287.74	7.458
288.10	7.394
288.46	7.304
288.82	7.607
289.18	7.537
289.54	7.326
289.91	7.770
290.27	7.926
290.63	7.943
290.99	7.704
291.35	7.613
291.71	7.399
292.07	7.167
292.43	7.026
292.79	6.846
293.16	6.896
293.52	6.715
293.88	6.526
294.24	6.551
294.60	6.581
294.96	6.402
295.32	6.385
295.68	6.236
296.04	6.148
296.40	6.338
296.76	6.275
297.12	6.405
297.49	6.605
297.85	6.701
298.21	6.914
298.57	6.888
298.93	6.934
299.29	7.051
299.65	6.996
300.01	7.120
300.37	7.050
300.73	6.910
301.09	6.537
301.45	6.359
301.81	6.278
302.17	5.891
302.53	6.057
302.89	6.157
303.25	6.057
303.61	6.241
303.97	6.185
304.33	6.189
304.69	6.509
305.05	6.717
305.41	6.532
305.77	6.646
306.13	6.928
306.49	6.764
306.85	6.686
307.21	6.403
307.57	6.267
307.93	6.221
308.29	6.096
308.65	5.892
309.01	5.752
309.37	6.090
309.73	5.966
310.09	5.952
310.45	5.994
310.81	6.127
311.17	6.372
311.53	6.358
311.89	6.380
312.25	6.362
312.61	6.327
312.96	6.472
313.32	6.287
313.68	6.271
314.04	6.276
314.40	6.120
314.76	5.963
315.12	5.716
315.48	5.734
315.84	5.745
316.20	5.902
316.56	6.046
316.92	5.850
317.27	5.993
317.63	6.017
317.99	5.965
318.35	6.060
318.71	6.167
319.07	6.322
319.43	6.507
319.79	6.584
320.15	6.486
320.50	6.428
320.86	6.540
321.22	6.395
321.58	6.396
321.94	6.519
322.30	6.588
322.66	6.543
323.01	6.588
323.37	6.608
323.73	6.654
324.09	6.891
324.45	6.975
324.81	6.970
325.17	7.162
325.52	7.310
325.88	7.305
326.24	7.346
326.60	7.434
326.96	7.579
327.31	7.627
327.67	7.822
328.03	7.735
328.39	7.716
328.75	7.966
329.11	7.937
329.46	7.875
329.82	7.865
330.18	7.807
330.54	7.937
330.90	8.090
331.25	7.975
331.61	7.908
331.97	7.974
332.33	8.084
332.68	7.895
333.04	7.980
333.40	8.212
333.76	8.252
334.11	8.305
334.47	8.182
334.83	8.161
335.19	8.299
335.54	8.317
335.90	8.302
336.26	8.235
336.62	8.264
336.97	8.147
337.33	8.004
337.69	8.010
338.05	8.164
338.40	8.258
338.76	8.200
339.12	8.078
339.48	8.127
339.83	8.217
340.19	8.293
340.55	8.344
340.90	8.454
341.26	8.484
341.62	8.565
341.97	8.477
342.33	8.501
342.69	8.359
343.04	8.454
343.40	8.464
343.76	8.497
344.12	8.512
344.47	8.509
344.83	8.379
345.19	8.337
345.54	8.296
345.90	8.344
346.26	8.293
346.61	8.394
346.97	8.283
347.32	8.273
347.68	8.173
348.04	8.175
348.39	8.284
348.75	8.372
349.11	8.408
349.46	8.358
349.82	8.280
350.18	8.352
350.53	8.322
350.89	8.363
351.24	8.334
351.60	8.432
351.96	8.433
352.31	8.378
352.67	8.438
353.02	8.494
353.38	8.542
353.74	8.646
354.09	8.629
354.45	8.702
354.80	8.758
355.16	8.742
355.52	8.723
355.87	8.691
356.23	8.725
356.58	8.684
356.94	8.663
357.29	8.751
357.65	8.769
358.00	8.801
358.36	8.745
358.72	8.812
359.07	8.799
359.43	8.834
359.78	8.903
360.14	8.909
360.49	8.951
360.85	9.015
361.20	9.017
361.56	8.986
361.91	8.934
362.27	8.975
362.62	8.985
362.98	9.064
363.33	9.085
363.69	9.084
364.04	9.015
364.40	8.999
364.75	9.005
365.11	8.951
365.46	8.980
365.82	8.963
366.17	8.984
366.53	9.005
366.88	8.978
367.24	8.960
367.59	8.970
367.95	9.048
368.30	9.117
368.66	9.118
369.01	9.091
369.37	9.119
369.72	9.136
370.08	9.135
370.43	9.095
370.78	9.146
371.14	9.117
371.49	9.065
371.85	9.114
372.20	9.065
372.56	9.049
372.91	9.167
373.26	9.174
373.62	9.278
373.97	9.347
374.33	9.397
374.68	9.473
375.03	9.568
375.39	9.692
375.74	9.695
376.10	9.783
376.45	9.893
376.80	9.856
377.16	9.910
377.51	9.925
377.87	9.916
378.22	10.013
378.57	9.976
378.93	9.984
379.28	10.015
379.63	10.071
379.99	10.062
380.34	10.051
380.70	10.089
381.05	10.043
381.40	10.057
381.76	10.034
382.11	10.032
382.46	10.082
382.82	10.139
383.17	10.121
383.52	10.141
383.88	10.191
384.23	10.226
384.58	10.343
384.94	10.445
385.29	10.531
385.64	10.619
385.99	10.655
386.35	10.626
386.70	10.632
387.05	10.680
387.41	10.682
387.76	10.688
388.11	10.676
388.47	10.672
388.82	10.652
389.17	10.649
389.52	10.684
389.88	10.708
390.23	10.779
390.58	10.836
390.93	10.807
391.29	10.853
391.64	10.889
391.99	10.907
392.34	10.885
392.70	10.957
393.05	10.977
393.40	11.020
393.75	10.977
394.11	11.053
394.46	11.043
394.81	11.119
395.16	11.096
395.52	11.145
395.87	11.158
396.22	11.207
396.57	11.232
396.92	11.223
397.28	11.193
397.63	11.260
397.98	11.223
398.33	11.238
398.68	11.243
399.04	11.317
399.39	11.300
399.74	11.373
400.09	11.364
400.44	11.336
400.80	11.374
401.15	11.399
401.50	11.384
401.85	11.403
402.20	11.401
402.55	11.433
402.90	11.457
403.26	11.490
403.61	11.436
403.96	11.488
404.31	11.542
404.66	11.574
405.01	11.612
405.36	11.614
405.72	11.644
406.07	11.671
406.42	11.703
406.77	11.663
407.12	11.649
407.47	11.708
407.82	11.690
408.17	11.695
408.53	11.701
408.88	11.680
409.23	11.762
409.58	11.730
409.93	11.741
410.28	11.743
410.63	11.788
410.98	11.789
411.33	11.794
411.68	11.813
412.03	11.814
412.38	11.820
412.73	11.874
413.09	11.857
413.44	11.872
413.79	11.877
414.14	11.831
414.49	11.817
414.84	11.824
415.19	11.805
415.54	11.744
415.89	11.750
416.24	11.733
416.59	11.724
416.94	11.700
417.29	11.704
417.64	11.681
417.99	11.690
418.34	11.702
418.69	11.709
419.04	11.708
419.39	11.764
419.74	11.743
420.09	11.747
420.44	11.727
420.79	11.762
421.14	11.755
421.49	11.781
421.84	11.798
422.19	11.807
422.54	11.835
422.89	11.856
423.24	11.854
423.59	11.888
423.94	11.904
424.29	11.936
424.64	11.941
424.99	11.978
425.34	12.005
425.68	12.042
426.03	12.022
426.38	12.014
426.73	12.035
427.08	12.030
427.43	12.018
427.78	12.027
428.13	12.025
428.48	11.993
428.83	11.978
429.18	11.994
429.53	11.954
429.87	12.006
430.22	12.012
430.57	12.039
430.92	12.049
431.27	12.049
431.62	12.060
431.97	12.087
432.32	12.115
432.67	12.136
433.01	12.132
433.36	12.196
433.71	12.164
434.06	12.173
434.41	12.126
434.76	12.131
435.11	12.154
435.45	12.132
435.80	12.111
436.15	12.141
436.50	12.144
436.85	12.148
437.20	12.128
437.54	12.142
437.89	12.133
438.24	12.170
438.59	12.201
438.94	12.209
439.29	12.218
439.63	12.233
439.98	12.222
440.33	12.247
440.68	12.248
441.03	12.270
441.37	12.293
441.72	12.345
442.07	12.331
442.42	12.315
442.76	12.315
443.11	12.332
443.46	12.338
443.81	12.340
444.16	12.326
444.50	12.314
444.85	12.304
445.20	12.325
445.55	12.319
445.89	12.332
446.24	12.350
446.59	12.358
446.94	12.364
447.28	12.396
447.63	12.410
447.98	12.442
448.32	12.478
448.67	12.489
449.02	12.482
449.37	12.481
449.71	12.534
450.06	12.539
450.41	12.563
450.75	12.577
451.10	12.530
451.45	12.540
451.79	12.547
452.14	12.575
452.49	12.624
452.84	12.643
453.18	12.662
453.53	12.650
453.88	12.667
454.22	12.681
454.57	12.677
454.92	12.708
455.26	12.711
455.61	12.721
455.95	12.711
456.30	12.709
456.65	12.704
456.99	12.711
457.34	12.717
457.69	12.749
458.03	12.766
458.38	12.791
458.73	12.825
459.07	12.847
459.42	12.881
459.76	12.918
460.11	12.950
460.46	12.995
460.80	13.037
461.15	13.091
461.49	13.122
461.84	13.146
462.19	13.180
462.53	13.198
462.88	13.232
463.22	13.226
463.57	13.246
463.91	13.237
464.26	13.234
464.61	13.271
464.95	13.273
465.30	13.287
465.64	13.313
465.99	13.350
466.33	13.378
466.68	13.372
467.02	13.413
467.37	13.425
467.71	13.438
468.06	13.484
468.41	13.456
468.75	13.489
469.10	13.489
469.44	13.508
469.79	13.531
470.13	13.525
470.48	13.567
470.82	13.568
471.17	13.602
471.51	13.642
471.86	13.622
472.20	13.662
472.55	13.676
472.89	13.722
473.23	13.739
473.58	13.752
473.92	13.790
474.27	13.811
474.61	13.850
474.96	13.860
475.30	13.882
475.65	13.930
475.99	13.963
476.34	13.999
476.68	14.007
477.02	14.009
477.37	14.025
477.71	14.035
478.06	14.060
478.40	14.055
478.75	14.081
479.09	14.110
479.43	14.186
479.78	14.242
480.12	14.272
480.47	14.332
480.81	14.396
481.15	14.444
481.50	14.507
481.84	14.551
482.19	14.615
482.53	14.674
482.87	14.735
483.22	14.761
483.56	14.781
483.90	14.813
484.25	14.826
484.59	14.836
484.94	14.851
485.28	14.843
485.62	14.853
485.97	14.837
486.31	14.835
486.65	14.824
487.00	14.821
487.34	14.835
487.68	14.850
488.03	14.871
488.37	14.892
488.71	14.921
489.06	14.944
489.40	14.962
489.74	14.991
490.09	15.017
490.43	15.049
490.77	15.096
491.11	15.123
491.46	15.157
491.80	15.179
492.14	15.218
492.49	15.243
492.83	15.297
493.17	15.354
493.51	15.418
493.86	15.483
494.20	15.516
494.54	15.514
494.88	15.567
495.23	15.611
495.57	15.652
495.91	15.698
496.25	15.742
496.60	15.800
496.94	15.840
497.28	15.883
497.62	15.920
497.97	15.996
498.31	16.097
498.65	16.159
498.99	16.206
499.33	16.278
499.68	16.306
500.02	16.360
500.36	16.388
500.70	16.466
501.04	16.536
501.39	16.573
501.73	16.606
502.07	16.640
502.41	16.680
502.75	16.747
503.09	16.799
503.44	16.889
503.78	16.973
504.12	17.049
504.46	17.066
504.80	17.109
505.14	17.175
505.49	17.243
505.83	17.293
506.17	17.357
506.51	17.405
506.85	17.463
507.19	17.511
507.53	17.578
507.87	17.640
508.22	17.712
508.56	17.793
508.90	17.832
509.24	17.872
509.58	17.938
509.92	17.994
510.26	18.066
510.60	18.121
510.94	18.175
511.28	18.213
511.63	18.258
511.97	18.324
512.31	18.380
512.65	18.460
512.99	18.510
513.33	18.576
513.67	18.609
514.01	18.626
514.35	18.652
514.69	18.699
515.03	18.732
515.37	18.766
515.71	18.787
516.05	18.822
516.39	18.839
516.73	18.889
517.07	18.928
517.41	18.970
517.75	19.014
518.09	19.071
518.43	19.117
518.77	19.148
519.11	19.201
519.45	19.259
519.79	19.278
520.13	19.337
520.47	19.388
520.81	19.425
521.15	19.481
521.49	19.518
521.83	19.557
522.17	19.578
522.51	19.622
522.85	19.643
523.19	19.665
523.53	19.729
523.87	19.792
524.21	19.865
524.55	19.926
524.89	19.992
525.23	20.068
525.57	20.130
525.91	20.193
526.25	20.252
526.58	20.316
526.92	20.370
527.26	20.417
527.60	20.446
527.94	20.473
528.28	20.496
528.62	20.501
528.96	20.493
529.30	20.487
529.64	20.484
529.97	20.465
530.31	20.443
530.65	20.422
530.99	20.397
531.33	20.387
531.67	20.360
532.01	20.349
532.35	20.351
532.68	20.365
533.02	20.364
533.36	20.351
533.70	20.367
534.04	20.376
534.38	20.393
534.71	20.393
535.05	20.385
535.39	20.398
535.73	20.407
536.07	20.409
536.41	20.420
536.74	20.425
537.08	20.442
537.42	20.425
537.76	20.445
538.10	20.477
538.43	20.515
538.77	20.536
539.11	20.547
539.45	20.553
539.79	20.582
540.12	20.609
540.46	20.637
540.80	20.649
541.14	20.682
541.47	20.688
541.81	20.666
542.15	20.662
542.49	20.676
542.82	20.674
543.16	20.683
543.50	20.682
543.84	20.643
544.17	20.636
544.51	20.637
544.85	20.623
545.18	20.610
545.52	20.635
545.86	20.647
546.20	20.666
546.53	20.686
546.87	20.710
547.21	20.696
547.54	20.725
547.88	20.731
548.22	20.750
548.55	20.763
548.89	20.774
549.23	20.748
549.56	20.710
549.90	20.688
550.24	20.689
550.57	20.666
550.91	20.705
551.25	20.708
551.58	20.707
551.92	20.697
552.26	20.673
552.59	20.699
552.93	20.710
553.27	20.725
553.60	20.722
553.94	20.727
554.27	20.706
554.61	20.649
554.95	20.645
555.28	20.622
555.62	20.594
555.95	20.588
556.29	20.554
556.63	20.540
556.96	20.534
557.30	20.499
557.63	20.493
557.97	20.516
558.31	20.520
558.64	20.489
558.98	20.483
559.31	20.452
559.65	20.448
559.98	20.426
560.32	20.414
560.65	20.377
560.99	20.392
561.33	20.337
561.66	20.303
562.00	20.260
562.33	20.264
562.67	20.251
563.00	20.294
563.34	20.303
563.67	20.272
564.01	20.265
564.34	20.243
564.68	20.219
565.01	20.208
565.35	20.179
565.68	20.212
566.02	20.203
566.35	20.165
566.69	20.107
567.02	20.039
567.36	20.050
567.69	20.007
568.03	20.005
568.36	19.989
568.69	19.949
569.03	19.934
569.36	19.896
569.70	19.847
570.03	19.871
570.37	19.854
570.70	19.874
571.04	19.819
571.37	19.807
571.70	19.797
572.04	19.794
572.37	19.795
572.71	19.787
573.04	19.732
573.37	19.721
573.71	19.649
574.04	19.641
574.38	19.590
574.71	19.575
575.04	19.575
575.38	19.524
575.71	19.494
576.05	19.455
576.38	19.387
576.71	19.382
577.05	19.340
577.38	19.306
577.71	19.286
578.05	19.288
578.38	19.287
578.71	19.241
579.05	19.190
579.38	19.144
579.71	19.097
580.05	19.113
580.38	19.070
580.71	19.021
581.05	19.011
581.38	18.946
581.71	18.856
582.05	18.810
582.38	18.771
582.71	18.762
583.04	18.738
583.38	18.703
583.71	18.662
584.04	18.603
584.38	18.592
584.71	18.540
585.04	18.530
585.37	18.541
585.71	18.500
586.04	18.476
586.37	18.451
586.70	18.393
587.04	18.391
587.37	18.347
587.70	18.351
588.03	18.302
588.37	18.279
588.70	18.224
589.03	18.157
589.36	18.115
589.69	18.064
590.03	18.035
590.36	18.019
590.69	17.996
591.02	17.933
591.35	17.897
591.69	17.857
592.02	17.822
592.35	17.780
592.68	17.768
593.01	17.719
593.35	17.711
593.68	17.668
594.01	17.610
594.34	17.532
594.67	17.533
595.00	17.501
595.34	17.480
595.67	17.438
596.00	17.436
596.33	17.404
596.66	17.376
596.99	17.361
597.32	17.324
597.65	17.297
597.99	17.312
598.32	17.297
598.65	17.284
598.98	17.270
599.31	17.279
599.64	17.202
599.97	17.160
600.30	17.105
600.63	17.004
600.96	16.984
601.30	16.977
601.63	16.943
601.96	16.926
602.29	16.880
602.62	16.855
602.95	16.820
603.28	16.800
603.61	16.791
603.94	16.782
604.27	16.817
604.60	16.823
604.93	16.791
605.26	16.764
605.59	16.714
605.92	16.685
606.25	16.618
606.58	16.565
606.91	16.568
607.24	16.526
607.57	16.479
607.90	16.414
608.23	16.366
608.56	16.365
608.89	16.370
609.22	16.351
609.55	16.314
609.88	16.329
610.21	16.328
610.54	16.282
610.87	16.248
611.20	16.254
611.53	16.195
611.86	16.125
612.19	16.046
612.52	15.968
612.85	15.901
613.18	15.877
613.51	15.836
613.84	15.802
614.17	15.756
614.49	15.724
614.82	15.700
615.15	15.753
615.48	15.756
615.81	15.745
616.14	15.719
616.47	15.714
616.80	15.699
617.13	15.664
617.46	15.619
617.78	15.623
618.11	15.602
618.44	15.559
618.77	15.522
619.10	15.507
619.43	15.469
619.76	15.452
620.09	15.436
620.41	15.406
620.74	15.393
621.07	15.402
621.40	15.364
621.73	15.333
622.06	15.356
622.38	15.321
622.71	15.264
623.04	15.228
623.37	15.204
623.70	15.190
624.02	15.168
624.35	15.141
624.68	15.123
625.01	15.089
625.34	15.110
625.66	15.083
625.99	15.048
626.32	15.047
626.65	15.040
626.98	15.024
627.30	14.991
627.63	15.015
627.96	14.997
628.29	14.967
628.61	14.972
628.94	14.918
629.27	14.886
629.60	14.852
629.92	14.829
630.25	14.859
630.58	14.850
630.91	14.859
631.23	14.760
631.56	14.721
631.89	14.679
632.21	14.680
632.54	14.668
632.87	14.656
633.19	14.673
633.52	14.667
633.85	14.594
634.18	14.556
634.50	14.483
634.83	14.545
635.16	14.502
635.48	14.532
635.81	14.510
636.14	14.480
636.46	14.450
636.79	14.433
637.11	14.395
637.44	14.370
637.77	14.328
638.09	14.398
638.42	14.319
638.75	14.380
639.07	14.334
639.40	14.308
639.73	14.317
640.05	14.311
640.38	14.259
640.70	14.228
641.03	14.161
641.36	14.194
641.68	14.074
642.01	14.053
642.33	13.947
642.66	13.936
642.98	13.890
643.31	13.810
643.64	13.736
643.96	13.759
644.29	13.780
644.61	13.819
644.94	13.782
645.26	13.820
645.59	13.783
645.91	13.777
646.24	13.754
646.56	13.758
646.89	13.767
647.22	13.821
647.54	13.809
647.87	13.760
648.19	13.735
648.52	13.741
648.84	13.735
649.17	13.725
649.49	13.745
649.82	13.744
650.14	13.673
650.47	13.687
650.79	13.625
651.11	13.626
651.44	13.672
651.76	13.666
652.09	13.620
652.41	13.528
652.74	13.571
653.06	13.555
653.39	13.539
653.71	13.564
654.04	13.507
654.36	13.535
654.68	13.494
655.01	13.414
655.33	13.440
655.66	13.454
655.98	13.488
656.30	13.457
656.63	13.457
656.95	13.416
657.28	13.414
657.60	13.403
657.92	13.378
658.25	13.314
658.57	13.260
658.90	13.276
659.22	13.199
659.54	13.182
659.87	13.129
660.19	13.143
660.51	13.154
660.84	13.155
661.16	13.173
661.48	13.203
661.81	13.196
662.13	13.284
662.45	13.180
662.78	13.225
663.10	13.180
663.42	13.182
663.75	13.105
664.07	13.055
664.39	13.034
664.72	13.062
665.04	13.035
665.36	13.098
665.69	13.086
666.01	13.111
666.33	13.071
666.65	13.103
666.98	13.092
667.30	13.135
667.62	13.164
667.94	13.167
668.27	13.080
668.59	13.021
668.91	12.977
669.23	12.955
669.56	12.947
669.88	12.945
670.20	12.880
670.52	12.941
670.85	12.817
671.17	12.806
671.49	12.738
671.81	12.820
672.13	12.843
672.46	12.902
672.78	12.848
673.10	12.805
673.42	12.841
673.74	12.930
674.07	12.897
674.39	12.983
674.71	12.960
675.03	12.970
675.35	12.926
675.67	12.929
676.00	12.838
676.32	12.881
676.64	12.910
676.96	12.882
677.28	12.856
677.60	12.870
677.92	12.895
678.25	12.916
678.57	12.965
678.89	12.945
679.21	12.939
679.53	13.060
679.85	13.104
680.17	13.186
680.49	13.172
680.81	13.166
681.13	13.175
681.46	13.211
681.78	13.200
682.10	13.199
682.42	13.216
682.74	13.175
683.06	13.083
683.38	13.054
683.70	12.982
684.02	13.020
684.34	12.998
684.66	13.004
684.98	13.014
685.30	13.100
685.62	13.111
685.94	13.122
686.26	13.250
686.58	13.353
686.90	13.418
687.22	13.412
687.54	13.459
687.86	13.493
688.18	13.534
688.50	13.434
688.82	13.331
689.14	13.406
689.46	13.379
689.78	13.310
690.10	13.243
690.42	13.166
690.74	13.195
691.06	13.246
691.38	13.328
691.70	13.260
692.02	13.313
692.34	13.301
692.66	13.216
692.98	13.208
693.30	13.260
693.62	13.251
693.94	13.234
694.26	13.311
694.57	13.251
694.89	13.206
695.21	13.231
695.53	13.256
695.85	13.263
696.17	13.277
696.49	13.363
696.81	13.400
697.13	13.423
697.44	13.486
697.76	13.439
698.08	13.417
698.40	13.426
698.72	13.455
699.04	13.447
699.36	13.513
699.67	13.551
699.99	13.615
700.31	13.527
700.63	13.467
700.95	13.425
701.27	13.419
701.58	13.463
701.90	13.485
702.22	13.434
702.54	13.437
702.86	13.474
703.17	13.460
703.49	13.391
703.81	13.379
704.13	13.427
704.45	13.453
704.76	13.457
705.08	13.468
705.40	13.390
705.72	13.382
706.03	13.348
706.35	13.241
706.67	13.143
706.99	13.014
707.30	13.001
707.62	13.064
707.94	13.041
708.26	13.016
708.57	13.000
708.89	13.043
709.21	13.111
709.53	13.105
709.84	13.107
710.16	13.187
710.48	13.312
710.79	13.356
711.11	13.315
711.43	13.321
711.74	13.279
712.06	13.342
712.38	13.418
712.69	13.359
713.01	13.350
713.33	13.469
713.64	13.435
713.96	13.440
714.28	13.402
714.59	13.424
714.91	13.354
715.23	13.417
715.54	13.333
715.86	13.339
716.17	13.476
716.49	13.547
716.81	13.423
717.12	13.553
717.44	13.518
717.76	13.636
718.07	13.599
718.39	13.744
718.70	13.789
719.02	13.913
719.33	13.919
719.65	13.762
719.97	13.788
720.28	14.041
720.60	13.915
720.91	13.964
721.23	13.814
721.54	13.821
721.86	13.693
722.17	13.671
722.49	13.598
722.81	13.580
723.12	13.639
723.44	13.741
723.75	13.526
724.07	13.525
724.38	13.603
724.70	13.567
725.01	13.524
725.33	13.584
725.64	13.476
725.96	13.378
726.27	13.303
726.59	13.290
726.90	13.303
727.22	13.322
727.53	13.301
727.84	13.202
728.16	13.338
728.47	13.400
728.79	13.426
729.10	13.488
729.42	13.510
729.73	13.653
730.05	13.620
730.36	13.477
730.67	13.538
730.99	13.649
731.30	13.624
731.62	13.661
731.93	13.636
732.24	13.767
732.56	13.777
732.87	13.803
733.19	13.719
733.50	13.748
733.81	13.798
734.13	13.796
734.44	13.804
734.76	13.788
735.07	13.623
735.38	13.710
735.70	13.650
736.01	13.774
736.32	13.875
736.64	13.690
736.95	13.740
737.26	13.894
737.58	13.676
737.89	13.626
738.20	13.705
738.52	13.780
738.83	13.624
739.14	13.674
739.45	13.575
739.77	13.648
740.08	13.858
740.39	13.666
740.71	13.583
741.02	13.752
741.33	13.749
741.64	13.678
741.96	13.718
742.27	13.748
742.58	13.520
742.90	13.507
743.21	13.465
743.52	13.394
743.83	13.647
744.14	13.683
744.46	13.793
744.77	13.811
745.08	13.937
745.39	14.034
745.71	13.850
746.02	14.089
746.33	14.174
746.64	13.912
746.95	13.852
747.27	13.720
747.58	13.746
747.89	13.654
748.20	13.749
748.51	13.736
748.82	13.728
749.14	13.854
749.45	13.754
749.76	13.686
750.07	13.811
750.38	13.989
750.69	14.193
751.01	14.046
751.32	13.945
751.63	13.899
751.94	13.654
752.25	13.459
752.56	13.532
752.87	13.416
753.18	13.548
753.49	13.471
753.81	13.078
754.12	12.840
754.43	12.697
754.74	12.805
755.05	12.714
755.36	12.869
755.67	13.044
755.98	13.174
756.29	13.112
756.60	12.896
756.91	12.817
757.22	13.295
757.53	13.477
757.84	13.722
758.15	13.798
758.46	13.889
758.77	13.748
759.09	13.709
759.40	13.545
759.71	13.621
760.02	13.700
760.33	13.738
760.64	13.445
760.95	13.385
761.26	13.403
761.57	13.411
761.88	13.318
762.18	13.502
762.49	13.387
762.80	13.419
763.11	13.423
763.42	13.506
763.73	13.548
764.04	13.691
764.35	13.715
764.66	13.653
764.97	13.660
765.28	13.624
765.59	13.610
765.90	13.760
766.21	13.881
766.52	13.834
766.83	13.649
767.14	13.718
767.44	13.678
767.75	13.497
768.06	13.512
768.37	13.260
768.68	13.371
768.99	13.453
769.30	13.300
769.61	13.271
769.91	13.204
770.22	13.398
770.53	13.439
770.84	13.209
771.15	13.401
771.46	13.247
771.77	13.307
772.07	13.122
772.38	12.812
772.69	12.901
773.00	12.792
773.31	12.993
773.61	13.036
773.92	13.158
774.23	13.309
774.54	13.143
774.85	13.173
775.15	13.403
775.46	13.400
775.77	13.691
776.08	13.832
776.39	13.804
776.69	13.642
777.00	13.592
777.31	13.291
777.62	13.641
777.92	13.610
778.23	13.503
778.54	13.580
778.85	13.759
779.15	13.680
779.46	13.519
779.77	13.459
780.07	13.603
780.38	13.504
780.69	13.876
781.00	13.559
781.30	13.992
781.61	14.352
781.92	14.113
782.22	14.142
782.53	13.982
782.84	13.818
783.14	14.025
783.45	14.061
783.76	14.219
784.06	13.910
784.37	13.728
784.68	13.398
784.98	12.971
785.29	12.891
785.60	12.944
785.90	13.058
786.21	13.431
786.51	13.389
786.82	13.108
787.13	13.112
787.43	13.167
787.74	13.364
788.04	13.812
788.35	14.145
788.66	14.285
788.96	14.412
789.27	14.220
789.57	14.364
789.88	14.647
790.19	15.122
790.49	14.986
790.80	14.888
791.10	15.030
791.41	14.495
791.71	14.580
792.02	14.584
792.32	14.327
792.63	14.391
792.93	14.478
793.24	14.112
793.54	13.872
793.85	13.907
794.15	13.948
794.46	13.970
794.76	13.950
795.07	13.625
795.37	13.712
795.68	13.954
795.98	14.058
796.29	13.732
796.59	13.947
796.90	14.070
797.20	14.235
797.51	14.718
797.81	14.486
798.12	14.355
798.42	14.409
798.72	14.430
799.03	14.280
799.33	14.273
799.64	14.422
799.94	13.927
800.25	13.748
800.55	13.367
800.85	12.737
801.16	12.904
801.46	13.189
801.77	13.726
802.07	14.007
802.37	14.189
802.68	14.569
802.98	14.565
803.28	15.210
803.59	15.185
803.89	15.217
804.20	15.470
804.50	15.540
804.80	15.927
805.11	15.521
805.41	15.701
805.71	15.625
806.02	14.838
806.32	14.559
806.62	14.091
806.93	14.163
807.23	14.187
807.53	14.693
807.83	14.112
808.14	13.962
808.44	13.960
808.74	13.405
809.05	13.081
809.35	13.541
809.65	14.161
809.95	14.109
810.26	14.131
810.56	14.013
810.86	13.139
811.16	13.520
811.47	13.154
811.77	13.394
812.07	12.857
812.37	13.019
812.68	12.915
812.98	12.335
813.28	13.026
813.58	13.274
813.88	13.628
814.19	14.067
814.49	14.234
814.79	14.066
815.09	13.700
815.39	13.920
815.70	14.410
816.00	14.358
816.30	14.466
816.60	14.453
816.90	14.255
817.20	14.155
817.50	13.988
817.81	13.938
818.11	13.883
818.41	13.979
818.71	14.044
819.01	13.673
819.31	13.766
819.61	13.787
819.92	13.782
820.22	13.679
820.52	13.694
820.82	13.626
821.12	13.607
821.42	13.685
821.72	13.683
822.02	13.731
822.32	13.776
822.62	13.802
822.92	13.753
823.22	13.680
823.52	13.763
823.83	13.784
824.13	13.857
824.43	13.938
824.73	13.924
825.03	13.879
825.33	13.747
825.63	13.796
825.93	13.686
826.23	13.864
826.53	13.907
826.83	13.887
827.13	13.740
827.43	13.792
827.73	13.692
828.03	13.823
828.33	14.060
828.63	14.369
828.93	14.170
829.23	14.441
829.53	14.299
829.83	14.587
830.13	14.655
830.42	14.814
830.72	15.011
831.02	15.275
831.32	15.097
831.62	15.121
831.92	14.619
832.22	14.937
832.52	14.719
832.82	14.567
833.12	14.027
833.42	14.262
833.72	14.215
834.01	14.056
834.31	14.013
834.61	13.972
834.91	13.740
835.21	13.993
835.51	13.905
835.81	14.102
836.11	14.157
836.40	14.845
836.70	15.134
837.00	15.673
837.30	15.627
837.60	15.367
837.90	15.082
838.19	15.231
838.49	15.359
838.79	15.671
839.09	15.180
839.39	15.620
839.68	15.268
839.98	14.628
840.28	14.433
840.58	14.304
840.88	13.947
841.17	14.055
841.47	13.991
841.77	13.603
842.07	13.550
842.36	14.034
842.66	13.709
842.96	13.953
843.26	13.689
843.55	12.790
843.85	14.055
844.15	14.905
844.45	15.479
844.74	15.695
845.04	16.039
845.34	15.921
845.63	16.842
845.93	16.235
846.23	16.014
846.53	16.208
846.82	16.735
847.12	14.508
847.42	13.730
847.71	13.867
848.01	12.466
848.31	12.743
848.60	12.711
848.90	12.122
849.19	11.477
849.49	11.685
849.79	11.957
850.08	12.565
850.38	13.949
850.68	15.238
850.97	14.242
851.27	14.548
851.56	14.571
851.86	14.374
852.16	14.740
852.45	16.705
852.75	16.451
853.04	15.534
853.34	14.903
853.64	13.640
853.93	13.658
854.23	13.827
854.52	15.204
854.82	14.892
855.11	15.840
855.41	13.159
855.70	11.329
856.00	11.727
856.30	12.501
856.59	13.951
856.89	15.835
857.18	16.002
857.48	17.142
857.77	16.371
858.07	15.834
858.36	15.268
858.66	17.252
858.95	18.228
859.25	16.058
859.54	15.828
859.84	14.465
860.13	15.089
860.42	14.551
860.72	15.113
861.01	14.716
861.31	13.923
861.60	13.981
861.90	12.981
862.19	12.858
862.49	13.375
862.78	14.028
863.07	14.858
863.37	14.714
863.66	14.084
863.96	14.029
864.25	14.498
864.54	16.855
864.84	17.051
865.13	17.663
865.43	17.826
865.72	16.439
866.01	25.171
866.31	20.176
866.60	14.193
866.89	12.985
>>>>>End Spectral Data<<<<<
