OOIBase32 Version 2.0.0.6 Data File
++++++++++++++++++++++++++++++++++++
Date: 01-20-2012, 23:32:28
User: Valued Ocean Optics Customer
Spectrometer Serial Number: USB2E2917
Spectrometer Channel: Master
Integration Time (msec): 3
Spectra Averaged: 10
Boxcar Smoothing: 5
Correct for Electrical Dark: Enabled
Time Normalized: Disabled
Dual-beam Reference: Disabled
Reference Channel: Master
Temperature: Not acquired
Spectrometer Type: S2000
ADC Type: USB2000
Number of Pixels in File: 2048
Graph Title: 
>>>>>Begin Spectral Data<<<<<
180.30	0.000
180.67	0.000
181.03	41.519
181.40	83.423
181.77	13.939
182.14	94.074
182.51	107.486
182.88	145.253
183.25	351.456
183.62	-153.059
183.99	135.369
184.36	218.738
184.73	47.392
185.10	-6.394
185.46	227.275
185.83	224.635
186.20	-1182.974
186.57	-3591.774
186.94	25.874
187.31	-348.930
187.68	95.303
188.05	13.461
188.42	34.834
188.78	37.663
189.15	31.568
189.52	25.411
189.89	6.049
190.26	42.019
190.63	41.632
191.00	11.581
191.37	20.768
191.73	31.642
192.10	25.545
192.47	44.025
192.84	21.973
193.21	15.778
193.58	11.548
193.94	17.159
194.31	-2.172
194.68	-11.501
195.05	6.822
195.42	20.908
195.79	32.756
196.15	33.314
196.52	11.303
196.89	15.551
197.26	49.749
197.63	72.099
198.00	73.944
198.36	76.040
198.73	71.954
199.10	63.715
199.47	27.836
199.84	-2.070
200.20	4.554
200.57	27.179
200.94	26.312
201.31	4.108
201.68	11.826
202.04	-2.705
202.41	9.130
202.78	17.042
203.15	19.208
203.51	19.631
203.88	23.232
204.25	17.917
204.62	19.452
204.98	15.107
205.35	9.676
205.72	-14.971
206.09	6.824
206.46	-2.974
206.82	-4.324
207.19	-8.188
207.56	9.204
207.92	10.170
208.29	21.614
208.66	27.841
209.03	35.789
209.39	37.630
209.76	35.619
210.13	21.416
210.50	8.929
210.86	8.636
211.23	20.605
211.60	11.308
211.96	-3.815
212.33	-47.174
212.70	-27.913
213.07	-31.968
213.43	0.337
213.80	18.339
214.17	29.324
214.53	54.423
214.90	70.578
215.27	60.432
215.63	58.918
216.00	47.836
216.37	48.849
216.74	36.971
217.10	35.468
217.47	21.095
217.84	-3.864
218.20	2.096
218.57	-2.283
218.94	-11.205
219.30	-22.755
219.67	-19.201
220.04	11.787
220.40	12.294
220.77	13.605
221.13	23.653
221.50	29.949
221.87	31.981
222.23	32.176
222.60	30.990
222.97	29.563
223.33	32.114
223.70	27.812
224.07	21.398
224.43	20.867
224.80	25.660
225.16	22.049
225.53	25.410
225.90	26.662
226.26	25.770
226.63	22.219
226.99	21.554
227.36	19.659
227.73	19.029
228.09	19.442
228.46	20.134
228.82	17.265
229.19	17.628
229.56	13.917
229.92	12.881
230.29	10.663
230.65	11.386
231.02	11.682
231.38	14.562
231.75	15.507
232.12	13.398
232.48	13.372
232.85	13.266
233.21	14.291
233.58	13.104
233.94	14.376
234.31	17.946
234.68	20.404
235.04	19.093
235.41	16.686
235.77	19.317
236.14	21.557
236.50	18.200
236.87	17.875
237.23	15.914
237.60	15.512
237.96	13.997
238.33	11.762
238.69	10.451
239.06	11.455
239.42	10.862
239.79	10.271
240.15	9.837
240.52	10.221
240.88	9.766
241.25	9.297
241.61	9.865
241.98	9.903
242.34	9.717
242.71	9.143
243.07	8.760
243.44	8.907
243.80	8.601
244.17	7.644
244.53	7.770
244.90	7.846
245.26	8.246
245.63	7.898
245.99	7.663
246.36	8.063
246.72	8.272
247.09	8.581
247.45	8.180
247.81	7.964
248.18	8.475
248.54	8.468
248.91	8.200
249.27	8.185
249.64	8.215
250.00	7.965
250.36	7.654
250.73	7.227
251.09	6.332
251.46	7.040
251.82	7.308
252.19	7.309
252.55	7.338
252.91	7.503
253.28	7.564
253.64	7.645
254.01	8.072
254.37	8.557
254.73	7.884
255.10	7.571
255.46	7.185
255.83	6.661
256.19	6.878
256.55	6.644
256.92	6.848
257.28	6.637
257.65	6.661
258.01	6.815
258.37	6.498
258.74	6.863
259.10	6.855
259.46	7.103
259.83	7.240
260.19	7.279
260.55	7.214
260.92	7.182
261.28	7.093
261.64	6.809
262.01	6.526
262.37	6.755
262.73	6.404
263.10	6.754
263.46	5.884
263.82	6.029
264.19	5.525
264.55	5.985
264.91	5.692
265.28	5.890
265.64	6.275
266.00	6.289
266.37	6.349
266.73	6.684
267.09	6.109
267.46	6.762
267.82	6.987
268.18	7.326
268.54	7.238
268.91	7.737
269.27	7.780
269.63	7.670
270.00	7.423
270.36	7.211
270.72	7.061
271.08	7.547
271.45	7.295
271.81	7.567
272.17	7.452
272.53	7.874
272.90	7.642
273.26	7.590
273.62	7.749
273.98	8.263
274.35	8.359
274.71	8.504
275.07	8.219
275.43	8.112
275.80	7.895
276.16	7.779
276.52	7.534
276.88	7.490
277.25	7.677
277.61	7.429
277.97	7.238
278.33	7.284
278.69	7.226
279.06	7.433
279.42	7.459
279.78	7.098
280.14	6.800
280.50	6.302
280.87	6.069
281.23	6.208
281.59	6.457
281.95	6.413
282.31	6.287
282.68	6.336
283.04	6.118
283.40	6.247
283.76	6.403
284.12	6.842
284.48	7.050
284.85	7.093
285.21	7.055
285.57	6.967
285.93	6.694
286.29	6.630
286.65	6.516
287.02	6.748
287.38	6.626
287.74	6.572
288.10	6.525
288.46	6.452
288.82	6.624
289.18	6.282
289.54	6.291
289.91	6.422
290.27	6.514
290.63	6.623
290.99	6.320
291.35	6.588
291.71	6.676
292.07	6.677
292.43	6.610
292.79	6.672
293.16	6.828
293.52	6.757
293.88	7.048
294.24	7.111
294.60	7.179
294.96	7.225
295.32	6.949
295.68	6.916
296.04	6.690
296.40	6.744
296.76	6.593
297.12	6.596
297.49	6.472
297.85	6.305
298.21	6.282
298.57	6.125
298.93	6.172
299.29	6.256
299.65	6.098
300.01	6.334
300.37	6.246
300.73	6.290
301.09	6.080
301.45	6.247
301.81	6.284
302.17	5.969
302.53	6.188
302.89	6.090
303.25	6.002
303.61	5.983
303.97	5.890
304.33	6.035
304.69	6.100
305.05	6.342
305.41	6.200
305.77	6.269
306.13	6.653
306.49	6.613
306.85	6.629
307.21	6.580
307.57	6.491
307.93	6.444
308.29	6.392
308.65	6.318
309.01	6.245
309.37	6.468
309.73	6.527
310.09	6.320
310.45	6.297
310.81	6.438
311.17	6.535
311.53	6.637
311.89	6.546
312.25	6.486
312.61	6.445
312.96	6.483
313.32	6.269
313.68	6.227
314.04	6.474
314.40	6.343
314.76	6.373
315.12	6.241
315.48	6.129
315.84	6.211
316.20	6.269
316.56	6.306
316.92	6.260
317.27	6.417
317.63	6.510
317.99	6.455
318.35	6.757
318.71	6.689
319.07	6.733
319.43	6.883
319.79	6.905
320.15	6.909
320.50	7.012
320.86	6.947
321.22	6.820
321.58	6.651
321.94	6.834
322.30	6.738
322.66	6.747
323.01	6.938
323.37	7.042
323.73	7.103
324.09	7.251
324.45	7.286
324.81	7.332
325.17	7.534
325.52	7.617
325.88	7.528
326.24	7.499
326.60	7.670
326.96	7.706
327.31	7.689
327.67	7.852
328.03	7.901
328.39	7.967
328.75	8.261
329.11	8.181
329.46	8.325
329.82	8.469
330.18	8.580
330.54	8.610
330.90	8.766
331.25	8.922
331.61	8.883
331.97	8.938
332.33	9.002
332.68	8.895
333.04	9.016
333.40	9.103
333.76	9.064
334.11	8.970
334.47	8.860
334.83	8.782
335.19	8.807
335.54	8.846
335.90	8.707
336.26	8.741
336.62	8.740
336.97	8.750
337.33	8.675
337.69	8.534
338.05	8.724
338.40	8.827
338.76	8.879
339.12	8.815
339.48	8.824
339.83	8.946
340.19	8.882
340.55	8.914
340.90	9.008
341.26	9.038
341.62	9.206
341.97	9.103
342.33	9.170
342.69	9.054
343.04	9.121
343.40	9.172
343.76	9.228
344.12	9.284
344.47	9.246
344.83	9.082
345.19	9.004
345.54	9.022
345.90	9.078
346.26	8.954
346.61	8.996
346.97	8.865
347.32	8.820
347.68	8.769
348.04	8.833
348.39	8.925
348.75	9.019
349.11	9.090
349.46	9.042
349.82	9.010
350.18	9.107
350.53	9.084
350.89	9.128
351.24	9.176
351.60	9.190
351.96	9.143
352.31	9.227
352.67	9.197
353.02	9.199
353.38	9.168
353.74	9.223
354.09	9.258
354.45	9.394
354.80	9.377
355.16	9.314
355.52	9.213
355.87	9.190
356.23	9.167
356.58	9.185
356.94	9.217
357.29	9.289
357.65	9.298
358.00	9.328
358.36	9.324
358.72	9.472
359.07	9.445
359.43	9.509
359.78	9.544
360.14	9.568
360.49	9.555
360.85	9.566
361.20	9.488
361.56	9.438
361.91	9.450
362.27	9.390
362.62	9.336
362.98	9.424
363.33	9.514
363.69	9.546
364.04	9.474
364.40	9.549
364.75	9.557
365.11	9.592
365.46	9.612
365.82	9.519
366.17	9.638
366.53	9.561
366.88	9.529
367.24	9.494
367.59	9.446
367.95	9.459
368.30	9.486
368.66	9.478
369.01	9.490
369.37	9.515
369.72	9.524
370.08	9.436
370.43	9.484
370.78	9.530
371.14	9.519
371.49	9.551
371.85	9.546
372.20	9.427
372.56	9.354
372.91	9.357
373.26	9.369
373.62	9.416
373.97	9.437
374.33	9.412
374.68	9.390
375.03	9.356
375.39	9.339
375.74	9.346
376.10	9.435
376.45	9.458
376.80	9.466
377.16	9.459
377.51	9.397
377.87	9.433
378.22	9.459
378.57	9.433
378.93	9.437
379.28	9.453
379.63	9.453
379.99	9.417
380.34	9.479
380.70	9.485
381.05	9.470
381.40	9.512
381.76	9.459
382.11	9.429
382.46	9.466
382.82	9.502
383.17	9.479
383.52	9.536
383.88	9.558
384.23	9.558
384.58	9.622
384.94	9.644
385.29	9.682
385.64	9.759
385.99	9.790
386.35	9.795
386.70	9.814
387.05	9.822
387.41	9.789
387.76	9.782
388.11	9.762
388.47	9.742
388.82	9.751
389.17	9.687
389.52	9.599
389.88	9.618
390.23	9.594
390.58	9.534
390.93	9.509
391.29	9.451
391.64	9.418
391.99	9.399
392.34	9.321
392.70	9.281
393.05	9.304
393.40	9.285
393.75	9.252
394.11	9.206
394.46	9.182
394.81	9.209
395.16	9.192
395.52	9.162
395.87	9.138
396.22	9.190
396.57	9.184
396.92	9.189
397.28	9.182
397.63	9.173
397.98	9.238
398.33	9.231
398.68	9.176
399.04	9.206
399.39	9.219
399.74	9.192
400.09	9.133
400.44	9.094
400.80	9.068
401.15	9.070
401.50	9.040
401.85	8.978
402.20	8.964
402.55	8.952
402.90	8.945
403.26	8.936
403.61	8.929
403.96	8.922
404.31	8.954
404.66	8.929
405.01	8.921
405.36	8.889
405.72	8.905
406.07	8.924
406.42	8.933
406.77	8.877
407.12	8.852
407.47	8.844
407.82	8.844
408.17	8.832
408.53	8.821
408.88	8.785
409.23	8.835
409.58	8.776
409.93	8.769
410.28	8.754
410.63	8.743
410.98	8.691
411.33	8.691
411.68	8.644
412.03	8.562
412.38	8.543
412.73	8.524
413.09	8.454
413.44	8.422
413.79	8.362
414.14	8.330
414.49	8.312
414.84	8.309
415.19	8.273
415.54	8.227
415.89	8.209
416.24	8.174
416.59	8.162
416.94	8.132
417.29	8.127
417.64	8.103
417.99	8.067
418.34	8.029
418.69	7.995
419.04	7.970
419.39	7.963
419.74	7.925
420.09	7.893
420.44	7.847
420.79	7.821
421.14	7.784
421.49	7.771
421.84	7.743
422.19	7.727
422.54	7.710
422.89	7.693
423.24	7.681
423.59	7.677
423.94	7.664
424.29	7.660
424.64	7.657
424.99	7.627
425.34	7.588
425.68	7.581
426.03	7.554
426.38	7.537
426.73	7.514
427.08	7.491
427.43	7.481
427.78	7.502
428.13	7.482
428.48	7.469
428.83	7.472
429.18	7.491
429.53	7.493
429.87	7.518
430.22	7.543
430.57	7.565
430.92	7.551
431.27	7.537
431.62	7.540
431.97	7.563
432.32	7.572
432.67	7.592
433.01	7.615
433.36	7.624
433.71	7.611
434.06	7.613
434.41	7.583
434.76	7.608
435.11	7.625
435.45	7.599
435.80	7.595
436.15	7.600
436.50	7.611
436.85	7.573
437.20	7.561
437.54	7.561
437.89	7.555
438.24	7.550
438.59	7.531
438.94	7.520
439.29	7.516
439.63	7.498
439.98	7.486
440.33	7.472
440.68	7.488
441.03	7.485
441.37	7.459
441.72	7.444
442.07	7.422
442.42	7.399
442.76	7.394
443.11	7.361
443.46	7.331
443.81	7.313
444.16	7.292
444.50	7.259
444.85	7.244
445.20	7.259
445.55	7.239
445.89	7.244
446.24	7.237
446.59	7.224
446.94	7.220
447.28	7.242
447.63	7.222
447.98	7.210
448.32	7.210
448.67	7.188
449.02	7.156
449.37	7.129
449.71	7.101
450.06	7.103
450.41	7.080
450.75	7.074
451.10	7.048
451.45	7.051
451.79	7.046
452.14	7.036
452.49	7.038
452.84	7.037
453.18	7.055
453.53	7.085
453.88	7.092
454.22	7.122
454.57	7.107
454.92	7.121
455.26	7.115
455.61	7.145
455.95	7.181
456.30	7.198
456.65	7.221
456.99	7.230
457.34	7.230
457.69	7.251
458.03	7.262
458.38	7.289
458.73	7.313
459.07	7.339
459.42	7.359
459.76	7.363
460.11	7.387
460.46	7.403
460.80	7.435
461.15	7.490
461.49	7.538
461.84	7.584
462.19	7.635
462.53	7.685
462.88	7.746
463.22	7.760
463.57	7.807
463.91	7.831
464.26	7.881
464.61	7.913
464.95	7.897
465.30	7.905
465.64	7.913
465.99	7.930
466.33	7.934
466.68	7.944
467.02	7.987
467.37	8.000
467.71	8.016
468.06	8.046
468.41	8.045
468.75	8.087
469.10	8.104
469.44	8.122
469.79	8.162
470.13	8.182
470.48	8.197
470.82	8.188
471.17	8.194
471.51	8.203
471.86	8.176
472.20	8.205
472.55	8.217
472.89	8.196
473.23	8.190
473.58	8.176
473.92	8.181
474.27	8.177
474.61	8.180
474.96	8.181
475.30	8.182
475.65	8.193
475.99	8.169
476.34	8.171
476.68	8.174
477.02	8.164
477.37	8.143
477.71	8.138
478.06	8.123
478.40	8.127
478.75	8.105
479.09	8.120
479.43	8.130
479.78	8.151
480.12	8.157
480.47	8.187
480.81	8.219
481.15	8.241
481.50	8.261
481.84	8.290
482.19	8.313
482.53	8.339
482.87	8.351
483.22	8.366
483.56	8.374
483.90	8.385
484.25	8.390
484.59	8.384
484.94	8.388
485.28	8.390
485.62	8.394
485.97	8.403
486.31	8.428
486.65	8.455
487.00	8.474
487.34	8.508
487.68	8.539
488.03	8.585
488.37	8.632
488.71	8.683
489.06	8.722
489.40	8.765
489.74	8.816
490.09	8.867
490.43	8.903
490.77	8.965
491.11	9.027
491.46	9.090
491.80	9.148
492.14	9.232
492.49	9.315
492.83	9.421
493.17	9.525
493.51	9.624
493.86	9.746
494.20	9.884
494.54	10.000
494.88	10.129
495.23	10.260
495.57	10.364
495.91	10.493
496.25	10.620
496.60	10.771
496.94	10.917
497.28	11.062
497.62	11.221
497.97	11.403
498.31	11.608
498.65	11.778
498.99	11.982
499.33	12.234
499.68	12.454
500.02	12.688
500.36	12.909
500.70	13.182
501.04	13.424
501.39	13.677
501.73	13.945
502.07	14.195
502.41	14.509
502.75	14.805
503.09	15.130
503.44	15.449
503.78	15.804
504.12	16.157
504.46	16.473
504.80	16.844
505.14	17.200
505.49	17.581
505.83	17.937
506.17	18.304
506.51	18.666
506.85	19.020
507.19	19.403
507.53	19.781
507.87	20.149
508.22	20.536
508.56	20.927
508.90	21.353
509.24	21.747
509.58	22.187
509.92	22.596
510.26	23.052
510.60	23.475
510.94	23.883
511.28	24.323
511.63	24.796
511.97	25.270
512.31	25.757
512.65	26.223
512.99	26.697
513.33	27.201
513.67	27.712
514.01	28.199
514.35	28.704
514.69	29.216
515.03	29.675
515.37	30.105
515.71	30.485
516.05	30.875
516.39	31.233
516.73	31.650
517.07	32.015
517.41	32.381
517.75	32.766
518.09	33.119
518.43	33.456
518.77	33.822
519.11	34.200
519.45	34.651
519.79	35.066
520.13	35.530
520.47	35.939
520.81	36.384
521.15	36.811
521.49	37.194
521.83	37.596
522.17	37.997
522.51	38.381
522.85	38.746
523.19	39.130
523.53	39.599
523.87	40.054
524.21	40.495
524.55	40.908
524.89	41.316
525.23	41.675
525.57	42.024
525.91	42.346
526.25	42.616
526.58	42.894
526.92	43.119
527.26	43.310
527.60	43.468
527.94	43.628
528.28	43.791
528.62	43.918
528.96	44.078
529.30	44.202
529.64	44.322
529.97	44.477
530.31	44.591
530.65	44.764
530.99	44.920
531.33	45.092
531.67	45.242
532.01	45.373
532.35	45.542
532.68	45.655
533.02	45.755
533.36	45.858
533.70	45.959
534.04	46.081
534.38	46.176
534.71	46.285
535.05	46.441
535.39	46.541
535.73	46.674
536.07	46.760
536.41	46.924
536.74	47.145
537.08	47.313
537.42	47.467
537.76	47.629
538.10	47.796
538.43	47.979
538.77	48.081
539.11	48.227
539.45	48.311
539.79	48.400
540.12	48.479
540.46	48.497
540.80	48.546
541.14	48.597
541.47	48.618
541.81	48.611
542.15	48.612
542.49	48.621
542.82	48.629
543.16	48.669
543.50	48.719
543.84	48.707
544.17	48.743
544.51	48.770
544.85	48.782
545.18	48.812
545.52	48.874
545.86	48.874
546.20	48.905
546.53	48.916
546.87	48.933
547.21	48.920
547.54	48.931
547.88	48.975
548.22	49.019
548.55	49.068
548.89	49.112
549.23	49.109
549.56	49.130
549.90	49.152
550.24	49.204
550.57	49.209
550.91	49.246
551.25	49.254
551.58	49.207
551.92	49.222
552.26	49.189
552.59	49.168
552.93	49.148
553.27	49.157
553.60	49.125
553.94	49.071
554.27	49.061
554.61	49.019
554.95	49.020
555.28	49.026
555.62	48.945
555.95	48.897
556.29	48.927
556.63	48.916
556.96	48.874
557.30	48.830
557.63	48.817
557.97	48.743
558.31	48.711
558.64	48.643
558.98	48.615
559.31	48.552
559.65	48.533
559.98	48.382
560.32	48.309
560.65	48.246
560.99	48.233
561.33	48.158
561.66	48.142
562.00	48.065
562.33	48.010
562.67	47.920
563.00	47.902
563.34	47.836
563.67	47.780
564.01	47.790
564.34	47.728
564.68	47.680
565.01	47.596
565.35	47.524
565.68	47.472
566.02	47.445
566.35	47.418
566.69	47.342
567.02	47.301
567.36	47.316
567.69	47.216
568.03	47.172
568.36	47.092
568.69	47.043
569.03	47.008
569.36	46.883
569.70	46.809
570.03	46.732
570.37	46.708
570.70	46.631
571.04	46.555
571.37	46.481
571.70	46.406
572.04	46.348
572.37	46.304
572.71	46.230
573.04	46.193
573.37	46.150
573.71	46.095
574.04	45.995
574.38	45.947
574.71	45.851
575.04	45.786
575.38	45.725
575.71	45.678
576.05	45.623
576.38	45.533
576.71	45.538
577.05	45.431
577.38	45.353
577.71	45.316
578.05	45.279
578.38	45.196
578.71	45.142
579.05	45.076
579.38	44.965
579.71	44.815
580.05	44.708
580.38	44.635
580.71	44.544
581.05	44.522
581.38	44.432
581.71	44.303
582.05	44.265
582.38	44.210
582.71	44.169
583.04	44.075
583.38	44.096
583.71	44.092
584.04	43.979
584.38	43.952
584.71	43.828
585.04	43.739
585.37	43.674
585.71	43.645
586.04	43.548
586.37	43.466
586.70	43.445
587.04	43.387
587.37	43.291
587.70	43.272
588.03	43.200
588.37	43.171
588.70	43.101
589.03	43.047
589.36	42.947
589.69	42.901
590.03	42.853
590.36	42.759
590.69	42.632
591.02	42.558
591.35	42.426
591.69	42.374
592.02	42.245
592.35	42.167
592.68	42.032
593.01	41.916
593.35	41.830
593.68	41.698
594.01	41.635
594.34	41.580
594.67	41.509
595.00	41.500
595.34	41.374
595.67	41.352
596.00	41.338
596.33	41.391
596.66	41.338
596.99	41.333
597.32	41.316
597.65	41.264
597.99	41.199
598.32	41.164
598.65	41.099
598.98	41.035
599.31	40.930
599.64	40.764
599.97	40.535
600.30	40.433
600.63	40.259
600.96	40.159
601.30	40.092
601.63	40.046
601.96	39.978
602.29	39.900
602.62	39.844
602.95	39.790
603.28	39.767
603.61	39.780
603.94	39.779
604.27	39.762
604.60	39.758
604.93	39.714
605.26	39.645
605.59	39.560
605.92	39.499
606.25	39.434
606.58	39.346
606.91	39.264
607.24	39.211
607.57	39.153
607.90	39.118
608.23	39.026
608.56	38.989
608.89	38.923
609.22	38.912
609.55	38.835
609.88	38.825
610.21	38.786
610.54	38.766
610.87	38.683
611.20	38.592
611.53	38.519
611.86	38.454
612.19	38.395
612.52	38.357
612.85	38.186
613.18	38.155
613.51	38.128
613.84	38.069
614.17	38.032
614.49	37.973
614.82	37.896
615.15	37.831
615.48	37.802
615.81	37.670
616.14	37.593
616.47	37.656
616.80	37.604
617.13	37.495
617.46	37.449
617.78	37.403
618.11	37.352
618.44	37.325
618.77	37.254
619.10	37.167
619.43	37.102
619.76	37.045
620.09	36.931
620.41	36.870
620.74	36.790
621.07	36.752
621.40	36.613
621.73	36.606
622.06	36.587
622.38	36.565
622.71	36.502
623.04	36.494
623.37	36.441
623.70	36.397
624.02	36.311
624.35	36.271
624.68	36.237
625.01	36.179
625.34	36.103
625.66	36.049
625.99	35.959
626.32	35.914
626.65	35.841
626.98	35.755
627.30	35.685
627.63	35.622
627.96	35.570
628.29	35.489
628.61	35.428
628.94	35.345
629.27	35.212
629.60	35.176
629.92	35.108
630.25	35.095
630.58	35.088
630.91	35.057
631.23	34.998
631.56	34.882
631.89	34.803
632.21	34.833
632.54	34.776
632.87	34.806
633.19	34.824
633.52	34.784
633.85	34.673
634.18	34.625
634.50	34.546
634.83	34.528
635.16	34.512
635.48	34.523
635.81	34.397
636.14	34.347
636.46	34.341
636.79	34.155
637.11	34.129
637.44	34.098
637.77	34.029
638.09	34.010
638.42	33.940
638.75	33.926
639.07	33.833
639.40	33.837
639.73	33.843
640.05	33.772
640.38	33.765
640.70	33.682
641.03	33.607
641.36	33.577
641.68	33.500
642.01	33.500
642.33	33.487
642.66	33.414
642.98	33.339
643.31	33.234
643.64	33.126
643.96	33.123
644.29	33.136
644.61	33.071
644.94	32.966
645.26	32.955
645.59	32.855
645.91	32.722
646.24	32.699
646.56	32.667
646.89	32.686
647.22	32.635
647.54	32.582
647.87	32.484
648.19	32.510
648.52	32.523
648.84	32.493
649.17	32.463
649.49	32.442
649.82	32.348
650.14	32.273
650.47	32.180
650.79	32.135
651.11	32.083
651.44	32.086
651.76	32.053
652.09	31.954
652.41	31.884
652.74	31.810
653.06	31.773
653.39	31.806
653.71	31.823
654.04	31.773
654.36	31.775
654.68	31.683
655.01	31.525
655.33	31.461
655.66	31.485
655.98	31.393
656.30	31.297
656.63	31.241
656.95	31.167
657.28	31.073
657.60	31.052
657.92	30.949
658.25	30.952
658.57	30.948
658.90	30.890
659.22	30.844
659.54	30.835
659.87	30.870
660.19	30.879
660.51	30.864
660.84	30.910
661.16	30.826
661.48	30.870
661.81	30.797
662.13	30.815
662.45	30.774
662.78	30.731
663.10	30.674
663.42	30.584
663.75	30.539
664.07	30.541
664.39	30.423
664.72	30.428
665.04	30.294
665.36	30.365
665.69	30.280
666.01	30.256
666.33	30.231
666.65	30.258
666.98	30.309
667.30	30.334
667.62	30.249
667.94	30.227
668.27	30.220
668.59	30.278
668.91	30.186
669.23	30.249
669.56	30.213
669.88	30.148
670.20	30.028
670.52	29.948
670.85	29.795
671.17	29.792
671.49	29.662
671.81	29.620
672.13	29.559
672.46	29.567
672.78	29.453
673.10	29.447
673.42	29.420
673.74	29.474
674.07	29.474
674.39	29.500
674.71	29.393
675.03	29.409
675.35	29.339
675.67	29.292
676.00	29.176
676.32	29.126
676.64	29.101
676.96	29.028
677.28	28.921
677.60	28.889
677.92	28.798
678.25	28.756
678.57	28.713
678.89	28.700
679.21	28.659
679.53	28.676
679.85	28.640
680.17	28.519
680.49	28.501
680.81	28.523
681.13	28.435
681.46	28.457
681.78	28.454
682.10	28.554
682.42	28.488
682.74	28.499
683.06	28.456
683.38	28.439
683.70	28.459
684.02	28.448
684.34	28.365
684.66	28.451
684.98	28.401
685.30	28.418
685.62	28.297
685.94	28.341
686.26	28.269
686.58	28.252
686.90	28.272
687.22	28.324
687.54	28.286
687.86	28.341
688.18	28.195
688.50	28.140
688.82	28.185
689.14	28.230
689.46	28.170
689.78	28.156
690.10	28.075
690.42	28.020
690.74	27.914
691.06	27.923
691.38	27.881
691.70	27.974
692.02	28.009
692.34	27.779
692.66	27.611
692.98	27.551
693.30	27.510
693.62	27.541
693.94	27.435
694.26	27.379
694.57	27.387
694.89	27.333
695.21	27.262
695.53	27.222
695.85	27.288
696.17	27.318
696.49	27.368
696.81	27.357
697.13	27.328
697.44	27.250
697.76	27.291
698.08	27.244
698.40	27.178
698.72	27.128
699.04	27.078
699.36	27.082
699.67	27.022
699.99	26.996
700.31	26.981
700.63	26.881
700.95	26.987
701.27	26.929
701.58	26.938
701.90	26.982
702.22	26.952
702.54	26.940
702.86	26.795
703.17	26.899
703.49	26.757
703.81	26.640
704.13	26.733
704.45	26.712
704.76	26.577
705.08	26.404
705.40	26.412
705.72	26.431
706.03	26.494
706.35	26.498
706.67	26.419
706.99	26.367
707.30	26.481
707.62	26.363
707.94	26.402
708.26	26.471
708.57	26.553
708.89	26.503
709.21	26.484
709.53	26.396
709.84	26.467
710.16	26.364
710.48	26.422
710.79	26.314
711.11	26.291
711.43	26.246
711.74	26.149
712.06	26.152
712.38	26.143
712.69	26.096
713.01	26.070
713.33	25.999
713.64	26.063
713.96	26.109
714.28	26.190
714.59	26.198
714.91	26.086
715.23	26.112
715.54	26.054
715.86	26.022
716.17	26.088
716.49	26.113
716.81	26.063
717.12	26.032
717.44	25.977
717.76	25.884
718.07	25.932
718.39	25.992
718.70	26.031
719.02	26.005
719.33	25.984
719.65	25.977
719.97	25.991
720.28	26.008
720.60	26.013
720.91	25.983
721.23	25.879
721.54	25.774
721.86	25.787
722.17	25.846
722.49	25.896
722.81	25.947
723.12	25.774
723.44	25.776
723.75	25.782
724.07	25.775
724.38	25.617
724.70	25.594
725.01	25.466
725.33	25.500
725.64	25.271
725.96	25.132
726.27	24.999
726.59	25.065
726.90	25.035
727.22	24.821
727.53	24.811
727.84	24.856
728.16	24.856
728.47	24.866
728.79	24.829
729.10	24.812
729.42	24.843
729.73	24.924
730.05	24.766
730.36	24.614
730.67	24.714
730.99	24.729
731.30	24.472
731.62	24.593
731.93	24.660
732.24	24.641
732.56	24.718
732.87	24.716
733.19	24.646
733.50	24.795
733.81	24.924
734.13	24.906
734.44	24.880
734.76	25.092
735.07	24.889
735.38	24.793
735.70	24.686
736.01	24.786
736.32	24.784
736.64	24.837
736.95	24.600
737.26	24.517
737.58	24.505
737.89	24.337
738.20	24.313
738.52	24.229
738.83	24.241
739.14	24.367
739.45	24.247
739.77	24.334
740.08	24.299
740.39	24.475
740.71	24.508
741.02	24.568
741.33	24.591
741.64	24.683
741.96	24.858
742.27	24.882
742.58	24.708
742.90	24.778
743.21	24.647
743.52	24.625
743.83	24.608
744.14	24.581
744.46	24.605
744.77	24.700
745.08	24.581
745.39	24.563
745.71	24.340
746.02	24.522
746.33	24.296
746.64	24.221
746.95	24.258
747.27	24.400
747.58	24.329
747.89	24.136
748.20	24.035
748.51	24.168
748.82	24.148
749.14	24.461
749.45	24.248
749.76	24.616
750.07	24.639
750.38	24.455
750.69	24.431
751.01	24.730
751.32	24.609
751.63	24.761
751.94	24.764
752.25	24.723
752.56	24.622
752.87	24.612
753.18	24.248
753.49	24.171
753.81	24.057
754.12	23.751
754.43	23.465
754.74	23.703
755.05	23.442
755.36	23.255
755.67	23.317
755.98	23.339
756.29	23.246
756.60	23.198
756.91	23.320
757.22	23.557
757.53	23.788
757.84	23.912
758.15	23.919
758.46	24.092
758.77	24.044
759.09	24.101
759.40	23.984
759.71	24.068
760.02	24.204
760.33	24.059
760.64	23.906
760.95	23.872
761.26	23.770
761.57	23.702
761.88	23.665
762.18	23.746
762.49	23.610
762.80	23.682
763.11	23.644
763.42	23.631
763.73	23.572
764.04	23.770
764.35	23.627
764.66	23.613
764.97	23.681
765.28	23.523
765.59	23.434
765.90	23.542
766.21	23.360
766.52	23.431
766.83	23.119
767.14	23.296
767.44	22.898
767.75	22.894
768.06	22.833
768.37	22.870
768.68	23.055
768.99	23.286
769.30	23.059
769.61	23.377
769.91	23.293
770.22	23.521
770.53	23.457
770.84	23.631
771.15	23.867
771.46	23.735
771.77	23.437
772.07	23.495
772.38	23.111
772.69	23.251
773.00	22.830
773.31	22.690
773.61	22.934
773.92	23.162
774.23	23.029
774.54	22.848
774.85	23.050
775.15	23.112
775.46	22.984
775.77	23.260
776.08	23.152
776.39	23.518
776.69	23.382
777.00	23.159
777.31	22.927
777.62	23.191
777.92	23.237
778.23	22.993
778.54	22.938
778.85	22.941
779.15	22.874
779.46	23.019
779.77	22.741
780.07	23.001
780.38	23.139
780.69	23.213
781.00	23.009
781.30	23.289
781.61	23.621
781.92	23.802
782.22	23.691
782.53	23.470
782.84	23.309
783.14	23.436
783.45	23.378
783.76	23.322
784.06	23.142
784.37	23.210
784.68	22.680
784.98	22.512
785.29	22.513
785.60	22.662
785.90	22.758
786.21	22.864
786.51	22.846
786.82	22.544
787.13	22.642
787.43	22.417
787.74	22.315
788.04	22.705
788.35	22.897
788.66	22.845
788.96	22.894
789.27	22.715
789.57	22.823
789.88	22.944
790.19	23.211
790.49	22.922
790.80	23.108
791.10	23.012
791.41	22.750
791.71	22.640
792.02	22.632
792.32	22.428
792.63	22.442
792.93	22.457
793.24	21.909
793.54	21.602
793.85	21.668
794.15	21.686
794.46	22.047
794.76	22.051
795.07	22.021
795.37	22.253
795.68	22.697
795.98	22.937
796.29	22.413
796.59	22.751
796.90	23.104
797.20	23.129
797.51	23.158
797.81	22.860
798.12	22.518
798.42	22.454
798.72	22.435
799.03	22.179
799.33	22.089
799.64	22.220
799.94	22.374
800.25	22.139
800.55	22.332
800.85	22.319
801.16	22.477
801.46	22.618
801.77	22.814
802.07	22.778
802.37	22.767
802.68	22.932
802.98	22.978
803.28	23.033
803.59	22.950
803.89	22.627
804.20	22.644
804.50	22.618
804.80	22.857
805.11	22.794
805.41	22.793
805.71	22.961
806.02	22.280
806.32	22.544
806.62	22.398
806.93	22.931
807.23	23.483
807.53	23.768
807.83	23.882
808.14	23.725
808.44	23.543
808.74	23.089
809.05	22.844
809.35	23.328
809.65	23.256
809.95	23.304
810.26	23.354
810.56	22.721
810.86	22.170
811.16	21.827
811.47	22.116
811.77	22.517
812.07	22.454
812.37	22.333
812.68	22.279
812.98	22.120
813.28	22.330
813.58	22.129
813.88	22.517
814.19	23.122
814.49	23.401
814.79	22.932
815.09	22.603
815.39	22.392
815.70	22.664
816.00	23.029
816.30	22.954
816.60	22.359
816.90	22.494
817.20	22.161
817.50	21.682
817.81	21.308
818.11	21.598
818.41	21.696
818.71	21.796
819.01	21.613
819.31	21.447
819.61	21.533
819.92	21.665
820.22	21.603
820.52	21.722
820.82	21.771
821.12	21.789
821.42	21.800
821.72	21.779
822.02	21.883
822.32	21.949
822.62	22.072
822.92	22.119
823.22	22.054
823.52	22.034
823.83	22.017
824.13	22.096
824.43	22.208
824.73	22.341
825.03	22.416
825.33	22.239
825.63	22.238
825.93	22.134
826.23	22.254
826.53	22.428
826.83	22.462
827.13	22.269
827.43	22.203
827.73	22.267
828.03	22.179
828.33	22.149
828.63	22.372
828.93	22.137
829.23	22.244
829.53	21.802
829.83	21.782
830.13	22.006
830.42	22.511
830.72	22.572
831.02	22.393
831.32	22.085
831.62	22.310
831.92	22.048
832.22	22.305
832.52	22.099
832.82	22.113
833.12	21.967
833.42	21.651
833.72	21.451
834.01	21.350
834.31	21.468
834.61	21.799
834.91	21.766
835.21	21.943
835.51	21.555
835.81	21.822
836.11	21.836
836.40	22.290
836.70	22.886
837.00	23.020
837.30	22.670
837.60	22.539
837.90	21.664
838.19	21.275
838.49	21.073
838.79	21.289
839.09	20.865
839.39	21.072
839.68	20.261
839.98	20.095
840.28	20.478
840.58	21.170
840.88	20.873
841.17	20.906
841.47	21.761
841.77	21.788
842.07	21.015
842.36	21.163
842.66	21.730
842.96	22.413
843.26	22.915
843.55	23.220
843.85	23.776
844.15	24.739
844.45	25.129
844.74	24.130
845.04	25.512
845.34	27.870
845.63	29.415
845.93	28.734
846.23	28.348
846.53	28.104
846.82	27.753
847.12	26.947
847.42	25.795
847.71	26.531
848.01	24.974
848.31	25.251
848.60	26.519
848.90	24.933
849.19	23.657
849.49	22.590
849.79	22.098
850.08	20.571
850.38	20.538
850.68	21.408
850.97	20.941
851.27	22.390
851.56	20.910
851.86	19.421
852.16	19.622
852.45	20.197
852.75	20.170
853.04	20.250
853.34	21.681
853.64	21.254
853.93	21.444
854.23	20.252
854.52	20.063
854.82	21.089
855.11	22.331
855.41	20.757
855.70	19.580
856.00	21.271
856.30	21.228
856.59	20.731
856.89	20.469
857.18	20.839
857.48	21.984
857.77	21.953
858.07	21.216
858.36	21.289
858.66	23.386
858.95	24.629
859.25	24.262
859.54	24.251
859.84	24.076
860.13	25.780
860.42	25.131
860.72	25.741
861.01	25.129
861.31	23.647
861.60	22.126
861.90	21.452
862.19	22.453
862.49	22.836
862.78	22.974
863.07	22.406
863.37	22.347
863.66	22.023
863.96	22.620
864.25	24.053
864.54	24.690
864.84	25.224
865.13	25.906
865.43	25.225
865.72	36.656
866.01	13.336
866.31	27.075
866.60	25.760
866.89	19.636
>>>>>End Spectral Data<<<<<
