OOIBase32 Version 2.0.0.6 Data File
++++++++++++++++++++++++++++++++++++
Date: 01-20-2012, 23:26:43
User: Valued Ocean Optics Customer
Spectrometer Serial Number: USB2E2917
Spectrometer Channel: Master
Integration Time (msec): 3
Spectra Averaged: 10
Boxcar Smoothing: 5
Correct for Electrical Dark: Enabled
Time Normalized: Disabled
Dual-beam Reference: Disabled
Reference Channel: Master
Temperature: Not acquired
Spectrometer Type: S2000
ADC Type: USB2000
Number of Pixels in File: 2048
Graph Title: 
>>>>>Begin Spectral Data<<<<<
180.30	0.000
180.67	0.000
181.03	436.041
181.40	83.205
181.77	-375.460
182.14	116.950
182.51	92.465
182.88	316.195
183.25	392.158
183.62	0.847
183.99	-13.923
184.36	100.045
184.73	160.969
185.10	-38.710
185.46	269.734
185.83	14.942
186.20	177.815
186.57	-73.841
186.94	-132.635
187.31	74.239
187.68	333.557
188.05	63.787
188.42	42.964
188.78	41.194
189.15	45.771
189.52	46.517
189.89	56.968
190.26	59.470
190.63	61.070
191.00	71.400
191.37	71.708
191.73	78.435
192.10	71.845
192.47	78.162
192.84	66.015
193.21	49.907
193.58	38.096
193.94	29.090
194.31	16.308
194.68	0.486
195.05	-5.676
195.42	-12.553
195.79	-11.057
196.15	-11.924
196.52	-8.869
196.89	-2.878
197.26	27.403
197.63	23.333
198.00	41.085
198.36	52.123
198.73	58.823
199.10	41.090
199.47	42.275
199.84	33.433
200.20	28.658
200.57	25.337
200.94	26.917
201.31	28.709
201.68	37.415
202.04	35.744
202.41	26.229
202.78	24.409
203.15	47.016
203.51	38.715
203.88	48.637
204.25	53.057
204.62	60.322
204.98	61.059
205.35	65.958
205.72	60.431
206.09	50.983
206.46	53.825
206.82	39.587
207.19	41.293
207.56	49.233
207.92	42.402
208.29	58.756
208.66	61.144
209.03	85.659
209.39	37.171
209.76	34.071
210.13	35.074
210.50	12.647
210.86	47.145
211.23	70.485
211.60	71.130
211.96	73.277
212.33	24.519
212.70	-4.903
213.07	-3.426
213.43	7.846
213.80	-1.181
214.17	22.379
214.53	33.512
214.90	19.224
215.27	-9.237
215.63	-11.871
216.00	-14.601
216.37	-0.939
216.74	20.709
217.10	19.310
217.47	10.120
217.84	15.985
218.20	13.886
218.57	14.290
218.94	23.032
219.30	32.144
219.67	33.389
220.04	35.377
220.40	33.497
220.77	33.570
221.13	37.578
221.50	42.156
221.87	40.922
222.23	34.637
222.60	36.134
222.97	34.203
223.33	26.151
223.70	24.785
224.07	20.740
224.43	17.378
224.80	16.910
225.16	18.927
225.53	16.493
225.90	16.075
226.26	13.270
226.63	13.038
226.99	11.512
227.36	12.665
227.73	12.654
228.09	14.202
228.46	12.857
228.82	10.610
229.19	8.248
229.56	7.429
229.92	5.975
230.29	6.120
230.65	6.415
231.02	6.554
231.38	4.877
231.75	4.900
232.12	3.360
232.48	5.028
232.85	6.250
233.21	6.392
233.58	8.268
233.94	11.608
234.31	12.875
234.68	11.911
235.04	12.795
235.41	12.689
235.77	11.037
236.14	10.793
236.50	9.822
236.87	10.430
237.23	11.610
237.60	11.562
237.96	10.144
238.33	9.453
238.69	9.956
239.06	8.818
239.42	9.411
239.79	8.875
240.15	8.180
240.52	7.730
240.88	7.282
241.25	7.117
241.61	7.128
241.98	6.634
242.34	6.103
242.71	5.883
243.07	5.912
243.44	5.736
243.80	5.749
244.17	5.915
244.53	5.966
244.90	5.915
245.26	5.518
245.63	5.260
245.99	5.182
246.36	5.435
246.72	5.598
247.09	5.549
247.45	5.147
247.81	5.271
248.18	5.134
248.54	5.178
248.91	4.944
249.27	5.673
249.64	5.755
250.00	5.880
250.36	5.742
250.73	5.403
251.09	5.891
251.46	7.090
251.82	7.047
252.19	7.211
252.55	7.405
252.91	7.940
253.28	6.775
253.64	7.240
254.01	6.781
254.37	6.472
254.73	6.092
255.10	5.350
255.46	4.543
255.83	4.618
256.19	4.817
256.55	4.881
256.92	4.855
257.28	4.835
257.65	4.501
258.01	4.685
258.37	4.724
258.74	4.603
259.10	4.505
259.46	4.458
259.83	4.690
260.19	4.749
260.55	4.763
260.92	4.752
261.28	5.091
261.64	5.143
262.01	5.255
262.37	5.563
262.73	6.006
263.10	6.508
263.46	6.496
263.82	6.353
264.19	5.911
264.55	5.771
264.91	5.714
265.28	5.441
265.64	5.423
266.00	5.749
266.37	5.457
266.73	5.331
267.09	5.152
267.46	4.978
267.82	4.771
268.18	5.152
268.54	4.785
268.91	4.734
269.27	4.692
269.63	4.589
270.00	4.311
270.36	4.492
270.72	4.605
271.08	4.777
271.45	4.974
271.81	5.103
272.17	5.224
272.53	5.451
272.90	5.302
273.26	5.684
273.62	5.746
273.98	5.493
274.35	5.309
274.71	5.119
275.07	5.151
275.43	5.010
275.80	4.809
276.16	4.327
276.52	4.221
276.88	4.445
277.25	4.138
277.61	4.024
277.97	4.018
278.33	4.012
278.69	3.935
279.06	3.634
279.42	3.646
279.78	3.593
280.14	3.629
280.50	3.597
280.87	3.296
281.23	3.193
281.59	3.354
281.95	3.667
282.31	3.564
282.68	3.524
283.04	3.700
283.40	3.760
283.76	3.722
284.12	3.870
284.48	4.088
284.85	4.161
285.21	4.267
285.57	4.150
285.93	4.011
286.29	4.243
286.65	4.226
287.02	3.949
287.38	3.821
287.74	3.795
288.10	3.665
288.46	3.484
288.82	3.522
289.18	3.582
289.54	3.598
289.91	3.749
290.27	3.641
290.63	3.654
290.99	4.060
291.35	4.222
291.71	4.537
292.07	4.655
292.43	4.756
292.79	4.989
293.16	4.856
293.52	4.786
293.88	4.414
294.24	4.456
294.60	4.586
294.96	4.330
295.32	4.194
295.68	4.091
296.04	4.026
296.40	4.010
296.76	3.914
297.12	3.930
297.49	3.997
297.85	4.247
298.21	4.247
298.57	4.192
298.93	4.331
299.29	4.538
299.65	4.502
300.01	4.479
300.37	4.643
300.73	4.543
301.09	4.507
301.45	4.502
301.81	4.457
302.17	4.583
302.53	4.686
302.89	4.560
303.25	4.476
303.61	4.366
303.97	4.469
304.33	4.320
304.69	4.371
305.05	4.250
305.41	4.288
305.77	4.272
306.13	4.042
306.49	3.956
306.85	4.037
307.21	3.946
307.57	4.056
307.93	3.945
308.29	3.991
308.65	4.042
309.01	4.211
309.37	4.244
309.73	4.205
310.09	4.202
310.45	4.348
310.81	4.382
311.17	4.469
311.53	4.424
311.89	4.439
312.25	4.494
312.61	4.436
312.96	4.365
313.32	4.252
313.68	4.302
314.04	4.331
314.40	4.192
314.76	4.158
315.12	4.051
315.48	4.098
315.84	4.183
316.20	4.096
316.56	4.138
316.92	4.057
317.27	4.217
317.63	4.261
317.99	4.402
318.35	4.434
318.71	4.379
319.07	4.456
319.43	4.505
319.79	4.571
320.15	4.478
320.50	4.405
320.86	4.504
321.22	4.533
321.58	4.492
321.94	4.354
322.30	4.375
322.66	4.484
323.01	4.535
323.37	4.435
323.73	4.370
324.09	4.401
324.45	4.518
324.81	4.489
325.17	4.390
325.52	4.448
325.88	4.516
326.24	4.463
326.60	4.437
326.96	4.402
327.31	4.380
327.67	4.397
328.03	4.414
328.39	4.370
328.75	4.435
329.11	4.467
329.46	4.447
329.82	4.373
330.18	4.347
330.54	4.317
330.90	4.402
331.25	4.425
331.61	4.317
331.97	4.460
332.33	4.535
332.68	4.573
333.04	4.576
333.40	4.456
333.76	4.541
334.11	4.642
334.47	4.680
334.83	4.567
335.19	4.574
335.54	4.641
335.90	4.513
336.26	4.471
336.62	4.407
336.97	4.487
337.33	4.495
337.69	4.550
338.05	4.479
338.40	4.474
338.76	4.557
339.12	4.505
339.48	4.458
339.83	4.441
340.19	4.318
340.55	4.272
340.90	4.243
341.26	4.346
341.62	4.231
341.97	4.249
342.33	4.187
342.69	4.110
343.04	4.242
343.40	4.253
343.76	4.281
344.12	4.214
344.47	4.263
344.83	4.218
345.19	4.132
345.54	4.174
345.90	4.150
346.26	4.167
346.61	4.261
346.97	4.195
347.32	4.290
347.68	4.304
348.04	4.483
348.39	4.487
348.75	4.575
349.11	4.652
349.46	4.683
349.82	4.618
350.18	4.573
350.53	4.464
350.89	4.423
351.24	4.336
351.60	4.254
351.96	4.165
352.31	4.145
352.67	4.074
353.02	4.027
353.38	3.987
353.74	4.002
354.09	4.021
354.45	4.063
354.80	4.087
355.16	4.111
355.52	4.183
355.87	4.209
356.23	4.179
356.58	4.176
356.94	4.161
357.29	4.159
357.65	4.270
358.00	4.249
358.36	4.275
358.72	4.256
359.07	4.190
359.43	4.117
359.78	4.067
360.14	4.069
360.49	4.037
360.85	4.058
361.20	4.033
361.56	4.031
361.91	4.052
362.27	4.028
362.62	4.067
362.98	4.113
363.33	4.196
363.69	4.241
364.04	4.274
364.40	4.283
364.75	4.225
365.11	4.234
365.46	4.196
365.82	4.243
366.17	4.280
366.53	4.232
366.88	4.197
367.24	4.131
367.59	4.090
367.95	4.076
368.30	4.089
368.66	4.138
369.01	4.166
369.37	4.158
369.72	4.141
370.08	4.112
370.43	4.114
370.78	4.132
371.14	4.137
371.49	4.154
371.85	4.139
372.20	4.113
372.56	4.112
372.91	4.118
373.26	4.118
373.62	4.139
373.97	4.150
374.33	4.178
374.68	4.218
375.03	4.210
375.39	4.195
375.74	4.243
376.10	4.319
376.45	4.331
376.80	4.263
377.16	4.231
377.51	4.241
377.87	4.269
378.22	4.253
378.57	4.200
378.93	4.252
379.28	4.292
379.63	4.260
379.99	4.225
380.34	4.205
380.70	4.251
381.05	4.279
381.40	4.238
381.76	4.257
382.11	4.289
382.46	4.362
382.82	4.374
383.17	4.322
383.52	4.343
383.88	4.360
384.23	4.411
384.58	4.459
384.94	4.482
385.29	4.521
385.64	4.513
385.99	4.483
386.35	4.449
386.70	4.466
387.05	4.531
387.41	4.558
387.76	4.580
388.11	4.588
388.47	4.563
388.82	4.572
389.17	4.598
389.52	4.623
389.88	4.677
390.23	4.710
390.58	4.703
390.93	4.702
391.29	4.691
391.64	4.692
391.99	4.672
392.34	4.692
392.70	4.728
393.05	4.722
393.40	4.699
393.75	4.722
394.11	4.730
394.46	4.758
394.81	4.819
395.16	4.854
395.52	4.835
395.87	4.858
396.22	4.875
396.57	4.830
396.92	4.836
397.28	4.863
397.63	4.845
397.98	4.869
398.33	4.897
398.68	4.906
399.04	4.905
399.39	4.950
399.74	4.973
400.09	5.027
400.44	5.103
400.80	5.117
401.15	5.138
401.50	5.163
401.85	5.186
402.20	5.187
402.55	5.201
402.90	5.209
403.26	5.224
403.61	5.221
403.96	5.215
404.31	5.179
404.66	5.213
405.01	5.251
405.36	5.297
405.72	5.300
406.07	5.338
406.42	5.364
406.77	5.428
407.12	5.428
407.47	5.470
407.82	5.466
408.17	5.519
408.53	5.528
408.88	5.549
409.23	5.561
409.58	5.618
409.93	5.606
410.28	5.641
410.63	5.616
410.98	5.677
411.33	5.755
411.68	5.805
412.03	5.858
412.38	5.939
412.73	5.996
413.09	5.992
413.44	6.012
413.79	6.077
414.14	6.107
414.49	6.170
414.84	6.218
415.19	6.230
415.54	6.257
415.89	6.294
416.24	6.285
416.59	6.268
416.94	6.312
417.29	6.329
417.64	6.362
417.99	6.377
418.34	6.401
418.69	6.416
419.04	6.438
419.39	6.481
419.74	6.502
420.09	6.555
420.44	6.593
420.79	6.638
421.14	6.670
421.49	6.701
421.84	6.746
422.19	6.784
422.54	6.822
422.89	6.880
423.24	6.914
423.59	6.949
423.94	6.974
424.29	7.035
424.64	7.086
424.99	7.144
425.34	7.172
425.68	7.197
426.03	7.242
426.38	7.274
426.73	7.288
427.08	7.326
427.43	7.391
427.78	7.450
428.13	7.484
428.48	7.527
428.83	7.563
429.18	7.617
429.53	7.666
429.87	7.695
430.22	7.751
430.57	7.796
430.92	7.843
431.27	7.867
431.62	7.903
431.97	7.938
432.32	7.989
432.67	8.029
433.01	8.087
433.36	8.132
433.71	8.210
434.06	8.248
434.41	8.297
434.76	8.329
435.11	8.388
435.45	8.433
435.80	8.494
436.15	8.529
436.50	8.592
436.85	8.617
437.20	8.675
437.54	8.703
437.89	8.765
438.24	8.822
438.59	8.870
438.94	8.897
439.29	8.927
439.63	8.964
439.98	8.998
440.33	9.032
440.68	9.086
441.03	9.136
441.37	9.158
441.72	9.192
442.07	9.202
442.42	9.235
442.76	9.292
443.11	9.324
443.46	9.343
443.81	9.380
444.16	9.419
444.50	9.440
444.85	9.461
445.20	9.523
445.55	9.560
445.89	9.619
446.24	9.643
446.59	9.659
446.94	9.696
447.28	9.743
447.63	9.769
447.98	9.789
448.32	9.822
448.67	9.848
449.02	9.853
449.37	9.885
449.71	9.894
450.06	9.959
450.41	9.969
450.75	9.972
451.10	10.000
451.45	10.023
451.79	10.070
452.14	10.108
452.49	10.147
452.84	10.180
453.18	10.195
453.53	10.253
453.88	10.272
454.22	10.336
454.57	10.406
454.92	10.419
455.26	10.429
455.61	10.442
455.95	10.454
456.30	10.495
456.65	10.555
456.99	10.601
457.34	10.616
457.69	10.654
458.03	10.678
458.38	10.701
458.73	10.746
459.07	10.791
459.42	10.842
459.76	10.900
460.11	10.904
460.46	10.935
460.80	10.967
461.15	10.999
461.49	11.041
461.84	11.086
462.19	11.148
462.53	11.184
462.88	11.247
463.22	11.267
463.57	11.257
463.91	11.307
464.26	11.324
464.61	11.334
464.95	11.365
465.30	11.363
465.64	11.384
465.99	11.421
466.33	11.448
466.68	11.487
467.02	11.522
467.37	11.574
467.71	11.631
468.06	11.658
468.41	11.709
468.75	11.768
469.10	11.823
469.44	11.868
469.79	11.878
470.13	11.928
470.48	11.937
470.82	11.968
471.17	11.980
471.51	11.950
471.86	11.966
472.20	11.985
472.55	11.969
472.89	12.002
473.23	12.021
473.58	12.049
473.92	12.036
474.27	12.052
474.61	12.081
474.96	12.112
475.30	12.132
475.65	12.149
475.99	12.149
476.34	12.187
476.68	12.200
477.02	12.188
477.37	12.216
477.71	12.256
478.06	12.279
478.40	12.308
478.75	12.392
479.09	12.486
479.43	12.590
479.78	12.697
480.12	12.773
480.47	12.845
480.81	12.937
481.15	12.996
481.50	13.064
481.84	13.136
482.19	13.203
482.53	13.262
482.87	13.306
483.22	13.328
483.56	13.336
483.90	13.345
484.25	13.355
484.59	13.348
484.94	13.355
485.28	13.335
485.62	13.312
485.97	13.280
486.31	13.258
486.65	13.250
487.00	13.252
487.34	13.265
487.68	13.273
488.03	13.285
488.37	13.296
488.71	13.314
489.06	13.329
489.40	13.355
489.74	13.398
490.09	13.413
490.43	13.434
490.77	13.445
491.11	13.462
491.46	13.489
491.80	13.512
492.14	13.545
492.49	13.558
492.83	13.606
493.17	13.641
493.51	13.671
493.86	13.725
494.20	13.767
494.54	13.820
494.88	13.861
495.23	13.920
495.57	13.950
495.91	14.014
496.25	14.054
496.60	14.091
496.94	14.151
497.28	14.197
497.62	14.230
497.97	14.285
498.31	14.344
498.65	14.380
498.99	14.435
499.33	14.511
499.68	14.558
500.02	14.617
500.36	14.669
500.70	14.690
501.04	14.744
501.39	14.790
501.73	14.819
502.07	14.860
502.41	14.922
502.75	14.955
503.09	14.979
503.44	15.018
503.78	15.084
504.12	15.159
504.46	15.249
504.80	15.297
505.14	15.383
505.49	15.457
505.83	15.522
506.17	15.597
506.51	15.665
506.85	15.728
507.19	15.788
507.53	15.809
507.87	15.844
508.22	15.875
508.56	15.929
508.90	15.961
509.24	16.004
509.58	16.047
509.92	16.059
510.26	16.096
510.60	16.142
510.94	16.194
511.28	16.281
511.63	16.326
511.97	16.372
512.31	16.418
512.65	16.469
512.99	16.522
513.33	16.580
513.67	16.653
514.01	16.699
514.35	16.758
514.69	16.784
515.03	16.802
515.37	16.855
515.71	16.924
516.05	16.960
516.39	16.980
516.73	17.014
517.07	17.044
517.41	17.084
517.75	17.117
518.09	17.141
518.43	17.184
518.77	17.226
519.11	17.265
519.45	17.285
519.79	17.329
520.13	17.365
520.47	17.399
520.81	17.440
521.15	17.455
521.49	17.488
521.83	17.538
522.17	17.582
522.51	17.622
522.85	17.668
523.19	17.744
523.53	17.817
523.87	17.930
524.21	18.045
524.55	18.136
524.89	18.249
525.23	18.361
525.57	18.425
525.91	18.503
526.25	18.567
526.58	18.616
526.92	18.663
527.26	18.708
527.60	18.735
527.94	18.743
528.28	18.747
528.62	18.754
528.96	18.738
529.30	18.744
529.64	18.728
529.97	18.719
530.31	18.720
530.65	18.708
530.99	18.688
531.33	18.689
531.67	18.702
532.01	18.709
532.35	18.703
532.68	18.702
533.02	18.704
533.36	18.728
533.70	18.745
534.04	18.741
534.38	18.750
534.71	18.785
535.05	18.787
535.39	18.796
535.73	18.823
536.07	18.833
536.41	18.882
536.74	18.921
537.08	18.951
537.42	18.972
537.76	19.028
538.10	19.067
538.43	19.096
538.77	19.147
539.11	19.191
539.45	19.227
539.79	19.275
540.12	19.278
540.46	19.302
540.80	19.299
541.14	19.304
541.47	19.331
541.81	19.326
542.15	19.329
542.49	19.336
542.82	19.302
543.16	19.289
543.50	19.268
543.84	19.303
544.17	19.314
544.51	19.348
544.85	19.377
545.18	19.351
545.52	19.385
545.86	19.391
546.20	19.414
546.53	19.445
546.87	19.461
547.21	19.488
547.54	19.478
547.88	19.476
548.22	19.484
548.55	19.526
548.89	19.541
549.23	19.535
549.56	19.535
549.90	19.515
550.24	19.550
550.57	19.587
550.91	19.592
551.25	19.584
551.58	19.583
551.92	19.576
552.26	19.557
552.59	19.571
552.93	19.587
553.27	19.634
553.60	19.656
553.94	19.661
554.27	19.658
554.61	19.688
554.95	19.728
555.28	19.752
555.62	19.792
555.95	19.845
556.29	19.897
556.63	19.909
556.96	19.902
557.30	19.909
557.63	19.937
557.97	19.961
558.31	19.950
558.64	19.964
558.98	19.965
559.31	19.939
559.65	19.920
559.98	19.903
560.32	19.902
560.65	19.938
560.99	19.954
561.33	19.945
561.66	19.922
562.00	19.941
562.33	19.932
562.67	19.970
563.00	20.003
563.34	20.010
563.67	20.001
564.01	20.023
564.34	20.016
564.68	19.993
565.01	19.984
565.35	20.002
565.68	20.025
566.02	20.038
566.35	20.028
566.69	20.038
567.02	20.050
567.36	20.086
567.69	20.103
568.03	20.092
568.36	20.116
568.69	20.153
569.03	20.160
569.36	20.142
569.70	20.137
570.03	20.147
570.37	20.138
570.70	20.131
571.04	20.104
571.37	20.100
571.70	20.130
572.04	20.127
572.37	20.118
572.71	20.094
573.04	20.105
573.37	20.087
573.71	20.098
574.04	20.100
574.38	20.092
574.71	20.087
575.04	20.094
575.38	20.096
575.71	20.097
576.05	20.094
576.38	20.104
576.71	20.095
577.05	20.153
577.38	20.119
577.71	20.106
578.05	20.099
578.38	20.092
578.71	20.041
579.05	19.986
579.38	20.006
579.71	19.960
580.05	19.984
580.38	19.973
580.71	19.920
581.05	19.914
581.38	19.934
581.71	19.944
582.05	19.992
582.38	19.984
582.71	20.021
583.04	20.010
583.38	20.047
583.71	20.029
584.04	20.013
584.38	20.010
584.71	20.004
585.04	19.986
585.37	19.975
585.71	19.965
586.04	19.987
586.37	19.964
586.70	19.944
587.04	19.920
587.37	19.931
587.70	19.929
588.03	19.950
588.37	19.964
588.70	19.950
589.03	19.960
589.36	19.928
589.69	19.944
590.03	19.931
590.36	19.946
590.69	19.963
591.02	19.965
591.35	19.967
591.69	19.958
592.02	19.921
592.35	19.921
592.68	19.947
593.01	19.965
593.35	19.936
593.68	19.908
594.01	19.894
594.34	19.859
594.67	19.823
595.00	19.811
595.34	19.798
595.67	19.815
596.00	19.818
596.33	19.765
596.66	19.719
596.99	19.749
597.32	19.794
597.65	19.766
597.99	19.770
598.32	19.795
598.65	19.784
598.98	19.750
599.31	19.728
599.64	19.738
599.97	19.748
600.30	19.767
600.63	19.752
600.96	19.757
601.30	19.771
601.63	19.775
601.96	19.744
602.29	19.744
602.62	19.769
602.95	19.807
603.28	19.797
603.61	19.777
603.94	19.787
604.27	19.790
604.60	19.777
604.93	19.739
605.26	19.722
605.59	19.722
605.92	19.772
606.25	19.763
606.58	19.727
606.91	19.694
607.24	19.715
607.57	19.709
607.90	19.682
608.23	19.612
608.56	19.607
608.89	19.601
609.22	19.640
609.55	19.573
609.88	19.542
610.21	19.544
610.54	19.565
610.87	19.511
611.20	19.526
611.53	19.493
611.86	19.530
612.19	19.528
612.52	19.537
612.85	19.515
613.18	19.530
613.51	19.518
613.84	19.521
614.17	19.484
614.49	19.509
614.82	19.448
615.15	19.438
615.48	19.410
615.81	19.413
616.14	19.433
616.47	19.387
616.80	19.391
617.13	19.369
617.46	19.327
617.78	19.317
618.11	19.359
618.44	19.341
618.77	19.331
619.10	19.340
619.43	19.307
619.76	19.221
620.09	19.167
620.41	19.116
620.74	19.134
621.07	19.129
621.40	19.124
621.73	19.068
622.06	19.065
622.38	19.084
622.71	19.091
623.04	19.123
623.37	19.138
623.70	19.134
624.02	19.132
624.35	19.117
624.68	19.130
625.01	19.104
625.34	19.120
625.66	19.125
625.99	19.117
626.32	19.095
626.65	19.084
626.98	19.105
627.30	19.126
627.63	19.105
627.96	19.126
628.29	19.079
628.61	19.096
628.94	19.032
629.27	19.008
629.60	19.009
629.92	19.010
630.25	18.992
630.58	18.965
630.91	18.985
631.23	18.975
631.56	18.968
631.89	18.974
632.21	18.955
632.54	18.981
632.87	18.989
633.19	18.936
633.52	18.906
633.85	18.863
634.18	18.850
634.50	18.812
634.83	18.867
635.16	18.817
635.48	18.796
635.81	18.794
636.14	18.805
636.46	18.736
636.79	18.750
637.11	18.744
637.44	18.777
637.77	18.750
638.09	18.747
638.42	18.697
638.75	18.719
639.07	18.705
639.40	18.658
639.73	18.636
640.05	18.683
640.38	18.691
640.70	18.651
641.03	18.582
641.36	18.583
641.68	18.555
642.01	18.525
642.33	18.451
642.66	18.473
642.98	18.533
643.31	18.482
643.64	18.459
643.96	18.430
644.29	18.492
644.61	18.518
644.94	18.532
645.26	18.547
645.59	18.560
645.91	18.603
646.24	18.527
646.56	18.445
646.89	18.440
647.22	18.419
647.54	18.366
647.87	18.326
648.19	18.321
648.52	18.327
648.84	18.326
649.17	18.337
649.49	18.310
649.82	18.344
650.14	18.372
650.47	18.357
650.79	18.350
651.11	18.364
651.44	18.329
651.76	18.290
652.09	18.211
652.41	18.204
652.74	18.157
653.06	18.200
653.39	18.206
653.71	18.176
654.04	18.177
654.36	18.174
654.68	18.167
655.01	18.178
655.33	18.174
655.66	18.172
655.98	18.092
656.30	18.057
656.63	18.003
656.95	17.981
657.28	18.004
657.60	18.012
657.92	18.010
658.25	18.026
658.57	18.011
658.90	18.022
659.22	17.994
659.54	17.964
659.87	17.927
660.19	17.850
660.51	17.858
660.84	17.837
661.16	17.804
661.48	17.736
661.81	17.667
662.13	17.741
662.45	17.697
662.78	17.728
663.10	17.778
663.42	17.869
663.75	17.936
664.07	17.917
664.39	17.877
664.72	17.891
665.04	17.877
665.36	17.898
665.69	17.794
666.01	17.814
666.33	17.796
666.65	17.766
666.98	17.754
667.30	17.755
667.62	17.709
667.94	17.711
668.27	17.693
668.59	17.743
668.91	17.708
669.23	17.701
669.56	17.668
669.88	17.659
670.20	17.695
670.52	17.622
670.85	17.644
671.17	17.670
671.49	17.642
671.81	17.571
672.13	17.523
672.46	17.520
672.78	17.501
673.10	17.474
673.42	17.433
673.74	17.407
674.07	17.402
674.39	17.310
674.71	17.322
675.03	17.296
675.35	17.292
675.67	17.376
676.00	17.452
676.32	17.465
676.64	17.500
676.96	17.529
677.28	17.544
677.60	17.470
677.92	17.445
678.25	17.398
678.57	17.400
678.89	17.400
679.21	17.341
679.53	17.261
679.85	17.226
680.17	17.185
680.49	17.132
680.81	17.091
681.13	17.170
681.46	17.189
681.78	17.224
682.10	17.231
682.42	17.257
682.74	17.267
683.06	17.283
683.38	17.321
683.70	17.410
684.02	17.454
684.34	17.478
684.66	17.476
684.98	17.554
685.30	17.497
685.62	17.479
685.94	17.476
686.26	17.421
686.58	17.437
686.90	17.387
687.22	17.337
687.54	17.323
687.86	17.343
688.18	17.304
688.50	17.270
688.82	17.359
689.14	17.369
689.46	17.404
689.78	17.506
690.10	17.522
690.42	17.559
690.74	17.573
691.06	17.559
691.38	17.451
691.70	17.425
692.02	17.401
692.34	17.299
692.66	17.360
692.98	17.331
693.30	17.342
693.62	17.357
693.94	17.408
694.26	17.365
694.57	17.412
694.89	17.518
695.21	17.553
695.53	17.576
695.85	17.618
696.17	17.574
696.49	17.536
696.81	17.445
697.13	17.395
697.44	17.336
697.76	17.304
698.08	17.329
698.40	17.316
698.72	17.330
699.04	17.293
699.36	17.224
699.67	17.226
699.99	17.250
700.31	17.344
700.63	17.410
700.95	17.339
701.27	17.408
701.58	17.352
701.90	17.300
702.22	17.266
702.54	17.200
702.86	17.225
703.17	17.203
703.49	17.191
703.81	17.127
704.13	17.081
704.45	17.225
704.76	17.217
705.08	17.224
705.40	17.249
705.72	17.195
706.03	17.263
706.35	17.336
706.67	17.361
706.99	17.372
707.30	17.384
707.62	17.401
707.94	17.397
708.26	17.408
708.57	17.374
708.89	17.303
709.21	17.402
709.53	17.449
709.84	17.380
710.16	17.361
710.48	17.275
710.79	17.209
711.11	17.115
711.43	17.099
711.74	17.089
712.06	17.161
712.38	17.166
712.69	17.151
713.01	17.031
713.33	16.992
713.64	16.952
713.96	17.092
714.28	17.111
714.59	17.192
714.91	17.161
715.23	17.075
715.54	17.018
715.86	17.090
716.17	16.982
716.49	17.078
716.81	17.096
717.12	17.100
717.44	17.061
717.76	17.079
718.07	17.017
718.39	17.076
718.70	17.071
719.02	17.155
719.33	17.088
719.65	17.234
719.97	17.099
720.28	17.130
720.60	17.207
720.91	17.113
721.23	17.165
721.54	17.110
721.86	16.976
722.17	17.095
722.49	16.892
722.81	16.874
723.12	16.657
723.44	16.747
723.75	16.688
724.07	16.636
724.38	16.683
724.70	16.603
725.01	16.677
725.33	16.764
725.64	16.713
725.96	16.768
726.27	16.734
726.59	16.908
726.90	16.906
727.22	16.964
727.53	16.955
727.84	17.106
728.16	17.127
728.47	17.169
728.79	17.226
729.10	17.235
729.42	17.253
729.73	17.242
730.05	17.237
730.36	17.279
730.67	17.229
730.99	17.246
731.30	17.000
731.62	17.087
731.93	17.063
732.24	16.970
732.56	16.994
732.87	16.882
733.19	16.857
733.50	16.799
733.81	16.759
734.13	16.740
734.44	16.631
734.76	16.708
735.07	16.513
735.38	16.365
735.70	16.470
736.01	16.559
736.32	16.727
736.64	16.792
736.95	16.710
737.26	16.778
737.58	16.796
737.89	16.870
738.20	16.864
738.52	17.026
738.83	17.096
739.14	16.965
739.45	16.897
739.77	16.714
740.08	16.696
740.39	16.797
740.71	16.520
741.02	16.672
741.33	16.765
741.64	16.804
741.96	16.651
742.27	16.721
742.58	16.724
742.90	16.630
743.21	16.793
743.52	16.948
743.83	17.023
744.14	17.278
744.46	17.182
744.77	17.088
745.08	16.909
745.39	16.922
745.71	17.042
746.02	17.118
746.33	17.114
746.64	17.067
746.95	17.036
747.27	17.067
747.58	16.865
747.89	16.819
748.20	16.738
748.51	17.013
748.82	17.174
749.14	16.902
749.45	16.770
749.76	16.828
750.07	16.774
750.38	16.666
750.69	16.672
751.01	16.754
751.32	16.752
751.63	16.800
751.94	16.518
752.25	16.507
752.56	16.692
752.87	16.682
753.18	16.640
753.49	16.764
753.81	16.781
754.12	16.715
754.43	16.568
754.74	16.509
755.05	16.462
755.36	16.431
755.67	16.443
755.98	16.318
756.29	16.332
756.60	16.124
756.91	16.039
757.22	16.115
757.53	16.067
757.84	16.296
758.15	16.292
758.46	16.253
758.77	16.567
759.09	16.438
759.40	16.472
759.71	16.493
760.02	16.676
760.33	16.828
760.64	16.637
760.95	16.679
761.26	16.649
761.57	16.784
761.88	16.954
762.18	16.879
762.49	16.873
762.80	16.865
763.11	16.966
763.42	16.967
763.73	16.848
764.04	16.925
764.35	17.012
764.66	17.176
764.97	17.133
765.28	17.040
765.59	16.943
765.90	17.020
766.21	17.030
766.52	16.856
766.83	16.746
767.14	16.716
767.44	16.829
767.75	16.663
768.06	16.567
768.37	16.620
768.68	16.491
768.99	16.521
769.30	16.386
769.61	16.507
769.91	16.791
770.22	16.796
770.53	16.817
770.84	16.693
771.15	16.659
771.46	16.510
771.77	16.309
772.07	16.528
772.38	16.610
772.69	16.759
773.00	16.507
773.31	16.274
773.61	16.443
773.92	16.730
774.23	16.842
774.54	16.933
774.85	16.862
775.15	16.755
775.46	16.235
775.77	15.976
776.08	15.753
776.39	16.130
776.69	16.150
777.00	16.327
777.31	15.973
777.62	15.728
777.92	15.639
778.23	15.631
778.54	15.728
778.85	16.141
779.15	16.545
779.46	16.835
779.77	16.806
780.07	16.820
780.38	16.573
780.69	16.748
781.00	17.042
781.30	16.766
781.61	16.871
781.92	17.036
782.22	17.037
782.53	16.705
782.84	16.499
783.14	16.111
783.45	16.315
783.76	16.649
784.06	16.857
784.37	16.804
784.68	17.080
784.98	17.078
785.29	16.977
785.60	17.099
785.90	17.008
786.21	17.086
786.51	17.241
786.82	17.132
787.13	16.653
787.43	16.372
787.74	16.484
788.04	16.576
788.35	16.376
788.66	16.549
788.96	16.182
789.27	16.233
789.57	16.291
789.88	16.380
790.19	16.475
790.49	16.185
790.80	16.008
791.10	15.839
791.41	15.847
791.71	15.982
792.02	15.700
792.32	16.198
792.63	16.494
792.93	16.184
793.24	15.869
793.54	15.854
793.85	16.215
794.15	16.536
794.46	16.654
794.76	16.437
795.07	16.556
795.37	16.648
795.68	16.535
795.98	16.327
796.29	16.369
796.59	16.631
796.90	16.502
797.20	16.810
797.51	16.597
797.81	16.405
798.12	16.318
798.42	16.214
798.72	16.195
799.03	16.037
799.33	16.265
799.64	16.269
799.94	15.953
800.25	16.033
800.55	15.733
800.85	15.775
801.16	15.699
801.46	15.818
801.77	15.766
802.07	15.715
802.37	15.686
802.68	15.962
802.98	16.214
803.28	16.624
803.59	16.457
803.89	16.677
804.20	16.850
804.50	17.010
804.80	16.737
805.11	16.746
805.41	17.013
805.71	16.885
806.02	16.215
806.32	16.113
806.62	16.086
806.93	15.866
807.23	15.854
807.53	15.860
807.83	16.262
808.14	16.775
808.44	17.124
808.74	16.746
809.05	16.871
809.35	17.193
809.65	17.126
809.95	16.797
810.26	16.778
810.56	16.957
810.86	16.576
811.16	16.253
811.47	15.944
811.77	16.127
812.07	16.259
812.37	16.558
812.68	16.610
812.98	16.627
813.28	17.079
813.58	17.832
813.88	17.707
814.19	18.014
814.49	18.114
814.79	18.029
815.09	17.565
815.39	17.053
815.70	16.731
816.00	16.638
816.30	16.724
816.60	16.658
816.90	15.769
817.20	15.545
817.50	15.502
817.81	15.566
818.11	15.525
818.41	15.679
818.71	15.936
819.01	16.043
819.31	15.975
819.61	15.999
819.92	16.020
820.22	16.148
820.52	16.166
820.82	16.207
821.12	16.072
821.42	16.157
821.72	16.112
822.02	16.199
822.32	16.259
822.62	16.326
822.92	16.307
823.22	16.396
823.52	16.352
823.83	16.404
824.13	16.443
824.43	16.644
824.73	16.590
825.03	16.619
825.33	16.570
825.63	16.395
825.93	16.375
826.23	16.384
826.53	16.167
826.83	16.272
827.13	16.112
827.43	16.071
827.73	16.009
828.03	16.175
828.33	16.241
828.63	16.100
828.93	16.283
829.23	16.288
829.53	16.338
829.83	16.505
830.13	16.722
830.42	16.889
830.72	16.626
831.02	16.293
831.32	16.268
831.62	16.449
831.92	16.453
832.22	16.137
832.52	16.127
832.82	16.131
833.12	16.021
833.42	15.834
833.72	15.964
834.01	15.977
834.31	16.448
834.61	16.425
834.91	16.108
835.21	16.363
835.51	16.691
835.81	16.749
836.11	16.596
836.40	16.150
836.70	16.250
837.00	15.893
837.30	16.428
837.60	16.064
837.90	16.426
838.19	17.422
838.49	17.339
838.79	17.768
839.09	18.053
839.39	18.505
839.68	19.477
839.98	19.838
840.28	20.495
840.58	20.257
840.88	20.446
841.17	20.107
841.47	19.546
841.77	19.060
842.07	18.204
842.36	17.260
842.66	17.615
842.96	18.155
843.26	17.358
843.55	16.931
843.85	17.410
844.15	16.703
844.45	16.517
844.74	14.872
845.04	15.071
845.34	15.595
845.63	16.594
845.93	15.415
846.23	13.127
846.53	13.371
846.82	14.676
847.12	13.991
847.42	13.858
847.71	13.621
848.01	15.065
848.31	15.548
848.60	16.450
848.90	16.911
849.19	18.728
849.49	19.789
849.79	19.449
850.08	18.068
850.38	17.174
850.68	18.089
850.97	16.915
851.27	16.762
851.56	17.804
851.86	15.334
852.16	13.723
852.45	12.218
852.75	11.980
853.04	12.904
853.34	12.917
853.64	14.476
853.93	14.332
854.23	15.940
854.52	16.569
854.82	15.714
855.11	17.310
855.41	17.624
855.70	17.955
856.00	17.930
856.30	17.849
856.59	18.149
856.89	18.133
857.18	17.691
857.48	16.976
857.77	16.425
858.07	15.425
858.36	14.481
858.66	15.532
858.95	16.326
859.25	15.752
859.54	14.550
859.84	14.744
860.13	14.297
860.42	14.952
860.72	16.495
861.01	17.152
861.31	16.833
861.60	17.165
861.90	17.549
862.19	15.918
862.49	17.562
862.78	17.413
863.07	17.046
863.37	17.552
863.66	17.933
863.96	17.631
864.25	16.956
864.54	18.250
864.84	21.465
865.13	22.317
865.43	21.954
865.72	12.924
866.01	21.735
866.31	43.382
866.60	34.122
866.89	8.256
>>>>>End Spectral Data<<<<<
