OOIBase32 Version 2.0.0.6 Data File
++++++++++++++++++++++++++++++++++++
Date: 01-20-2012, 23:26:25
User: Valued Ocean Optics Customer
Spectrometer Serial Number: USB2E2917
Spectrometer Channel: Master
Integration Time (msec): 3
Spectra Averaged: 10
Boxcar Smoothing: 5
Correct for Electrical Dark: Enabled
Time Normalized: Disabled
Dual-beam Reference: Disabled
Reference Channel: Master
Temperature: Not acquired
Spectrometer Type: S2000
ADC Type: USB2000
Number of Pixels in File: 2048
Graph Title: 
>>>>>Begin Spectral Data<<<<<
180.30	0.000
180.67	0.000
181.03	336.403
181.40	116.855
181.77	85.667
182.14	83.114
182.51	61.168
182.88	99.901
183.25	-14.692
183.62	174.332
183.99	168.637
184.36	69.770
184.73	93.389
185.10	-51.394
185.46	90.230
185.83	69.049
186.20	105.720
186.57	26.778
186.94	35.866
187.31	64.602
187.68	50.791
188.05	72.770
188.42	65.218
188.78	67.782
189.15	67.901
189.52	67.377
189.89	72.074
190.26	72.381
190.63	64.656
191.00	60.616
191.37	55.323
191.73	53.338
192.10	42.320
192.47	39.697
192.84	28.449
193.21	12.826
193.58	24.139
193.94	22.403
194.31	9.478
194.68	-3.756
195.05	-19.433
195.42	-19.898
195.79	-11.533
196.15	-17.229
196.52	-10.928
196.89	-11.102
197.26	9.039
197.63	-25.196
198.00	-7.339
198.36	0.278
198.73	5.661
199.10	4.937
199.47	5.299
199.84	0.842
200.20	2.421
200.57	-0.985
200.94	4.483
201.31	2.478
201.68	7.467
202.04	4.272
202.41	-4.201
202.78	7.968
203.15	36.300
203.51	37.166
203.88	53.627
204.25	67.240
204.62	73.939
204.98	67.645
205.35	61.095
205.72	67.719
206.09	61.861
206.46	66.370
206.82	49.455
207.19	37.103
207.56	27.286
207.92	8.942
208.29	2.404
208.66	-7.055
209.03	-42.876
209.39	-18.079
209.76	-1.697
210.13	2.889
210.50	20.446
210.86	53.582
211.23	54.987
211.60	56.897
211.96	36.230
212.33	24.142
212.70	25.408
213.07	30.778
213.43	50.882
213.80	42.136
214.17	42.545
214.53	30.948
214.90	22.218
215.27	26.708
215.63	20.517
216.00	22.910
216.37	23.782
216.74	31.234
217.10	26.003
217.47	19.273
217.84	28.858
218.20	25.617
218.57	23.904
218.94	23.990
219.30	17.431
219.67	22.110
220.04	27.062
220.40	26.796
220.77	22.478
221.13	20.588
221.50	17.400
221.87	13.692
222.23	12.320
222.60	14.336
222.97	19.747
223.33	25.390
223.70	24.891
224.07	20.406
224.43	15.918
224.80	16.272
225.16	16.095
225.53	15.018
225.90	16.866
226.26	16.025
226.63	15.086
226.99	13.958
227.36	12.342
227.73	11.312
228.09	11.779
228.46	12.493
228.82	10.980
229.19	11.971
229.56	12.661
229.92	10.511
230.29	9.880
230.65	11.592
231.02	11.665
231.38	13.374
231.75	15.774
232.12	14.484
232.48	15.274
232.85	16.178
233.21	13.853
233.58	14.751
233.94	14.818
234.31	15.344
234.68	12.927
235.04	12.957
235.41	11.101
235.77	8.191
236.14	9.919
236.50	9.966
236.87	9.557
237.23	10.383
237.60	9.092
237.96	8.780
238.33	9.187
238.69	9.990
239.06	9.313
239.42	9.308
239.79	9.014
240.15	8.128
240.52	7.708
240.88	8.169
241.25	8.062
241.61	8.136
241.98	7.738
242.34	7.413
242.71	6.862
243.07	6.406
243.44	6.169
243.80	6.071
244.17	5.821
244.53	5.076
244.90	4.676
245.26	4.554
245.63	4.348
245.99	4.344
246.36	4.208
246.72	4.355
247.09	4.399
247.45	4.302
247.81	4.566
248.18	4.402
248.54	5.014
248.91	5.158
249.27	5.468
249.64	5.792
250.00	6.030
250.36	6.003
250.73	5.769
251.09	5.830
251.46	5.887
251.82	5.491
252.19	5.972
252.55	6.150
252.91	6.204
253.28	5.420
253.64	5.484
254.01	5.155
254.37	5.082
254.73	5.168
255.10	4.506
255.46	4.346
255.83	4.136
256.19	4.373
256.55	4.167
256.92	4.244
257.28	4.331
257.65	4.221
258.01	4.259
258.37	4.321
258.74	4.060
259.10	4.060
259.46	4.188
259.83	4.419
260.19	4.390
260.55	4.402
260.92	4.134
261.28	4.309
261.64	4.165
262.01	4.477
262.37	4.645
262.73	4.985
263.10	5.552
263.46	6.010
263.82	6.495
264.19	6.361
264.55	6.336
264.91	6.866
265.28	6.605
265.64	6.878
266.00	6.623
266.37	6.384
266.73	6.447
267.09	6.444
267.46	5.977
267.82	5.370
268.18	5.017
268.54	4.733
268.91	4.312
269.27	4.267
269.63	3.814
270.00	3.917
270.36	4.171
270.72	4.278
271.08	4.231
271.45	4.119
271.81	4.046
272.17	4.321
272.53	4.472
272.90	4.109
273.26	4.162
273.62	4.468
273.98	4.124
274.35	4.154
274.71	4.176
275.07	4.136
275.43	4.167
275.80	4.276
276.16	4.099
276.52	4.137
276.88	4.684
277.25	4.687
277.61	4.471
277.97	4.701
278.33	4.545
278.69	4.162
279.06	4.025
279.42	4.312
279.78	4.378
280.14	4.303
280.50	4.109
280.87	4.063
281.23	4.067
281.59	3.895
281.95	3.797
282.31	3.504
282.68	3.539
283.04	3.580
283.40	3.568
283.76	3.568
284.12	3.736
284.48	4.036
284.85	4.010
285.21	3.984
285.57	4.153
285.93	4.153
286.29	4.295
286.65	4.378
287.02	4.402
287.38	4.299
287.74	4.205
288.10	4.283
288.46	4.185
288.82	4.201
289.18	4.326
289.54	4.238
289.91	4.245
290.27	4.264
290.63	4.046
290.99	4.143
291.35	4.248
291.71	4.468
292.07	4.433
292.43	4.370
292.79	4.399
293.16	4.385
293.52	4.454
293.88	4.219
294.24	4.181
294.60	4.331
294.96	4.107
295.32	4.022
295.68	3.788
296.04	3.624
296.40	3.698
296.76	3.614
297.12	3.456
297.49	3.430
297.85	3.620
298.21	3.783
298.57	3.906
298.93	4.130
299.29	4.227
299.65	4.420
300.01	4.545
300.37	4.559
300.73	4.484
301.09	4.531
301.45	4.594
301.81	4.567
302.17	4.456
302.53	4.356
302.89	4.263
303.25	4.208
303.61	4.104
303.97	4.244
304.33	4.264
304.69	4.401
305.05	4.344
305.41	4.285
305.77	4.431
306.13	4.441
306.49	4.377
306.85	4.478
307.21	4.297
307.57	4.354
307.93	4.211
308.29	4.204
308.65	4.346
309.01	4.567
309.37	4.610
309.73	4.604
310.09	4.616
310.45	4.743
310.81	4.747
311.17	4.852
311.53	4.879
311.89	4.987
312.25	4.989
312.61	4.856
312.96	4.617
313.32	4.544
313.68	4.429
314.04	4.364
314.40	4.349
314.76	4.234
315.12	4.132
315.48	4.081
315.84	3.960
316.20	4.030
316.56	3.972
316.92	4.040
317.27	4.185
317.63	4.294
317.99	4.266
318.35	4.128
318.71	4.087
319.07	4.311
319.43	4.292
319.79	4.341
320.15	4.201
320.50	4.205
320.86	4.221
321.22	4.121
321.58	4.045
321.94	4.072
322.30	4.230
322.66	4.415
323.01	4.321
323.37	4.344
323.73	4.389
324.09	4.440
324.45	4.526
324.81	4.550
325.17	4.501
325.52	4.525
325.88	4.592
326.24	4.421
326.60	4.296
326.96	4.435
327.31	4.509
327.67	4.390
328.03	4.445
328.39	4.396
328.75	4.350
329.11	4.390
329.46	4.398
329.82	4.371
330.18	4.440
330.54	4.467
330.90	4.371
331.25	4.083
331.61	4.048
331.97	4.089
332.33	4.112
332.68	4.167
333.04	4.317
333.40	4.285
333.76	4.297
334.11	4.323
334.47	4.228
334.83	4.104
335.19	4.290
335.54	4.478
335.90	4.338
336.26	4.399
336.62	4.374
336.97	4.460
337.33	4.433
337.69	4.410
338.05	4.372
338.40	4.448
338.76	4.545
339.12	4.581
339.48	4.446
339.83	4.463
340.19	4.414
340.55	4.434
340.90	4.388
341.26	4.505
341.62	4.459
341.97	4.509
342.33	4.559
342.69	4.567
343.04	4.575
343.40	4.621
343.76	4.619
344.12	4.539
344.47	4.577
344.83	4.498
345.19	4.392
345.54	4.477
345.90	4.430
346.26	4.384
346.61	4.405
346.97	4.377
347.32	4.395
347.68	4.461
348.04	4.576
348.39	4.593
348.75	4.614
349.11	4.646
349.46	4.574
349.82	4.616
350.18	4.615
350.53	4.467
350.89	4.420
351.24	4.427
351.60	4.359
351.96	4.239
352.31	4.091
352.67	4.018
353.02	4.067
353.38	4.162
353.74	4.091
354.09	4.083
354.45	4.182
354.80	4.265
355.16	4.294
355.52	4.368
355.87	4.475
356.23	4.579
356.58	4.552
356.94	4.492
357.29	4.434
357.65	4.535
358.00	4.486
358.36	4.494
358.72	4.454
359.07	4.402
359.43	4.328
359.78	4.251
360.14	4.239
360.49	4.265
360.85	4.294
361.20	4.304
361.56	4.314
361.91	4.384
362.27	4.380
362.62	4.383
362.98	4.433
363.33	4.493
363.69	4.524
364.04	4.526
364.40	4.492
364.75	4.459
365.11	4.420
365.46	4.397
365.82	4.367
366.17	4.419
366.53	4.400
366.88	4.379
367.24	4.304
367.59	4.315
367.95	4.325
368.30	4.416
368.66	4.425
369.01	4.416
369.37	4.398
369.72	4.406
370.08	4.388
370.43	4.376
370.78	4.372
371.14	4.448
371.49	4.442
371.85	4.448
372.20	4.425
372.56	4.457
372.91	4.503
373.26	4.485
373.62	4.528
373.97	4.546
374.33	4.605
374.68	4.607
375.03	4.595
375.39	4.609
375.74	4.664
376.10	4.701
376.45	4.731
376.80	4.797
377.16	4.824
377.51	4.867
377.87	4.857
378.22	4.830
378.57	4.854
378.93	4.830
379.28	4.836
379.63	4.746
379.99	4.718
380.34	4.627
380.70	4.608
381.05	4.617
381.40	4.573
381.76	4.598
382.11	4.653
382.46	4.702
382.82	4.753
383.17	4.751
383.52	4.842
383.88	4.859
384.23	4.952
384.58	4.952
384.94	4.996
385.29	5.011
385.64	5.064
385.99	5.073
386.35	5.037
386.70	5.068
387.05	5.139
387.41	5.133
387.76	5.170
388.11	5.184
388.47	5.206
388.82	5.194
389.17	5.205
389.52	5.170
389.88	5.189
390.23	5.189
390.58	5.169
390.93	5.124
391.29	5.117
391.64	5.127
391.99	5.062
392.34	5.056
392.70	5.091
393.05	5.087
393.40	5.084
393.75	5.102
394.11	5.110
394.46	5.134
394.81	5.177
395.16	5.172
395.52	5.152
395.87	5.237
396.22	5.238
396.57	5.162
396.92	5.154
397.28	5.147
397.63	5.111
397.98	5.162
398.33	5.129
398.68	5.154
399.04	5.177
399.39	5.197
399.74	5.185
400.09	5.219
400.44	5.258
400.80	5.278
401.15	5.277
401.50	5.283
401.85	5.253
402.20	5.293
402.55	5.280
402.90	5.288
403.26	5.283
403.61	5.292
403.96	5.296
404.31	5.301
404.66	5.301
405.01	5.351
405.36	5.373
405.72	5.362
406.07	5.365
406.42	5.390
406.77	5.363
407.12	5.359
407.47	5.352
407.82	5.311
408.17	5.317
408.53	5.341
408.88	5.316
409.23	5.311
409.58	5.325
409.93	5.314
410.28	5.294
410.63	5.347
410.98	5.332
411.33	5.363
411.68	5.386
412.03	5.407
412.38	5.414
412.73	5.433
413.09	5.411
413.44	5.432
413.79	5.413
414.14	5.402
414.49	5.380
414.84	5.394
415.19	5.381
415.54	5.366
415.89	5.342
416.24	5.327
416.59	5.304
416.94	5.314
417.29	5.298
417.64	5.326
417.99	5.316
418.34	5.314
418.69	5.317
419.04	5.308
419.39	5.321
419.74	5.316
420.09	5.321
420.44	5.324
420.79	5.317
421.14	5.318
421.49	5.306
421.84	5.294
422.19	5.282
422.54	5.274
422.89	5.279
423.24	5.272
423.59	5.280
423.94	5.280
424.29	5.305
424.64	5.308
424.99	5.320
425.34	5.303
425.68	5.317
426.03	5.346
426.38	5.350
426.73	5.337
427.08	5.318
427.43	5.324
427.78	5.332
428.13	5.326
428.48	5.338
428.83	5.321
429.18	5.327
429.53	5.350
429.87	5.340
430.22	5.343
430.57	5.365
430.92	5.388
431.27	5.384
431.62	5.389
431.97	5.366
432.32	5.366
432.67	5.374
433.01	5.398
433.36	5.389
433.71	5.395
434.06	5.403
434.41	5.408
434.76	5.418
435.11	5.436
435.45	5.441
435.80	5.454
436.15	5.466
436.50	5.486
436.85	5.482
437.20	5.498
437.54	5.480
437.89	5.478
438.24	5.481
438.59	5.484
438.94	5.469
439.29	5.469
439.63	5.473
439.98	5.477
440.33	5.465
440.68	5.460
441.03	5.463
441.37	5.461
441.72	5.459
442.07	5.443
442.42	5.435
442.76	5.442
443.11	5.416
443.46	5.402
443.81	5.390
444.16	5.402
444.50	5.403
444.85	5.394
445.20	5.400
445.55	5.410
445.89	5.423
446.24	5.400
446.59	5.397
446.94	5.398
447.28	5.400
447.63	5.388
447.98	5.366
448.32	5.368
448.67	5.362
449.02	5.371
449.37	5.353
449.71	5.342
450.06	5.368
450.41	5.348
450.75	5.340
451.10	5.337
451.45	5.343
451.79	5.347
452.14	5.331
452.49	5.332
452.84	5.328
453.18	5.333
453.53	5.335
453.88	5.342
454.22	5.363
454.57	5.369
454.92	5.366
455.26	5.375
455.61	5.376
455.95	5.403
456.30	5.406
456.65	5.414
456.99	5.424
457.34	5.427
457.69	5.438
458.03	5.447
458.38	5.470
458.73	5.480
459.07	5.487
459.42	5.483
459.76	5.490
460.11	5.502
460.46	5.510
460.80	5.540
461.15	5.534
461.49	5.554
461.84	5.569
462.19	5.595
462.53	5.621
462.88	5.658
463.22	5.668
463.57	5.665
463.91	5.666
464.26	5.685
464.61	5.660
464.95	5.680
465.30	5.659
465.64	5.688
465.99	5.686
466.33	5.690
466.68	5.687
467.02	5.695
467.37	5.698
467.71	5.731
468.06	5.746
468.41	5.782
468.75	5.817
469.10	5.829
469.44	5.808
469.79	5.814
470.13	5.847
470.48	5.879
470.82	5.916
471.17	5.941
471.51	5.925
471.86	5.932
472.20	5.916
472.55	5.912
472.89	5.937
473.23	5.952
473.58	5.960
473.92	5.937
474.27	5.906
474.61	5.907
474.96	5.906
475.30	5.916
475.65	5.911
475.99	5.913
476.34	5.892
476.68	5.876
477.02	5.849
477.37	5.827
477.71	5.813
478.06	5.816
478.40	5.804
478.75	5.818
479.09	5.831
479.43	5.873
479.78	5.897
480.12	5.931
480.47	5.954
480.81	5.993
481.15	6.025
481.50	6.044
481.84	6.076
482.19	6.106
482.53	6.124
482.87	6.143
483.22	6.141
483.56	6.152
483.90	6.154
484.25	6.154
484.59	6.150
484.94	6.147
485.28	6.143
485.62	6.118
485.97	6.105
486.31	6.105
486.65	6.100
487.00	6.097
487.34	6.095
487.68	6.106
488.03	6.114
488.37	6.121
488.71	6.133
489.06	6.163
489.40	6.202
489.74	6.219
490.09	6.234
490.43	6.258
490.77	6.283
491.11	6.314
491.46	6.332
491.80	6.372
492.14	6.407
492.49	6.433
492.83	6.466
493.17	6.504
493.51	6.552
493.86	6.597
494.20	6.650
494.54	6.702
494.88	6.749
495.23	6.811
495.57	6.850
495.91	6.898
496.25	6.962
496.60	7.012
496.94	7.072
497.28	7.124
497.62	7.188
497.97	7.252
498.31	7.329
498.65	7.415
498.99	7.490
499.33	7.582
499.68	7.687
500.02	7.786
500.36	7.884
500.70	7.998
501.04	8.111
501.39	8.219
501.73	8.325
502.07	8.448
502.41	8.540
502.75	8.675
503.09	8.811
503.44	8.942
503.78	9.071
504.12	9.235
504.46	9.351
504.80	9.512
505.14	9.659
505.49	9.810
505.83	9.953
506.17	10.129
506.51	10.259
506.85	10.412
507.19	10.561
507.53	10.729
507.87	10.869
508.22	11.017
508.56	11.178
508.90	11.358
509.24	11.539
509.58	11.709
509.92	11.869
510.26	12.072
510.60	12.242
510.94	12.429
511.28	12.600
511.63	12.800
511.97	13.012
512.31	13.195
512.65	13.384
512.99	13.578
513.33	13.794
513.67	14.019
514.01	14.233
514.35	14.457
514.69	14.656
515.03	14.846
515.37	15.033
515.71	15.231
516.05	15.409
516.39	15.556
516.73	15.696
517.07	15.853
517.41	16.003
517.75	16.153
518.09	16.305
518.43	16.468
518.77	16.630
519.11	16.802
519.45	16.957
519.79	17.144
520.13	17.315
520.47	17.497
520.81	17.683
521.15	17.849
521.49	18.061
521.83	18.231
522.17	18.396
522.51	18.559
522.85	18.730
523.19	18.928
523.53	19.127
523.87	19.385
524.21	19.638
524.55	19.842
524.89	20.064
525.23	20.234
525.57	20.379
525.91	20.514
526.25	20.642
526.58	20.746
526.92	20.853
527.26	20.954
527.60	21.013
527.94	21.069
528.28	21.137
528.62	21.171
528.96	21.203
529.30	21.267
529.64	21.320
529.97	21.376
530.31	21.454
530.65	21.517
530.99	21.565
531.33	21.630
531.67	21.687
532.01	21.749
532.35	21.816
532.68	21.884
533.02	21.938
533.36	21.998
533.70	22.067
534.04	22.106
534.38	22.169
534.71	22.242
535.05	22.307
535.39	22.389
535.73	22.447
536.07	22.519
536.41	22.615
536.74	22.725
537.08	22.825
537.42	22.911
537.76	22.972
538.10	23.044
538.43	23.131
538.77	23.216
539.11	23.301
539.45	23.372
539.79	23.446
540.12	23.484
540.46	23.496
540.80	23.525
541.14	23.534
541.47	23.586
541.81	23.607
542.15	23.624
542.49	23.656
542.82	23.640
543.16	23.655
543.50	23.673
543.84	23.697
544.17	23.738
544.51	23.785
544.85	23.870
545.18	23.904
545.52	23.952
545.86	23.992
546.20	24.021
546.53	24.096
546.87	24.148
547.21	24.158
547.54	24.214
547.88	24.273
548.22	24.290
548.55	24.306
548.89	24.352
549.23	24.364
549.56	24.413
549.90	24.452
550.24	24.457
550.57	24.464
550.91	24.513
551.25	24.531
551.58	24.563
551.92	24.592
552.26	24.627
552.59	24.655
552.93	24.705
553.27	24.723
553.60	24.755
553.94	24.771
554.27	24.794
554.61	24.824
554.95	24.887
555.28	24.928
555.62	24.948
555.95	24.960
556.29	24.997
556.63	25.015
556.96	25.011
557.30	25.005
557.63	25.081
557.97	25.132
558.31	25.182
558.64	25.199
558.98	25.193
559.31	25.211
559.65	25.269
559.98	25.297
560.32	25.322
560.65	25.366
560.99	25.406
561.33	25.421
561.66	25.436
562.00	25.449
562.33	25.436
562.67	25.474
563.00	25.499
563.34	25.497
563.67	25.486
564.01	25.503
564.34	25.500
564.68	25.496
565.01	25.476
565.35	25.471
565.68	25.487
566.02	25.524
566.35	25.533
566.69	25.564
567.02	25.569
567.36	25.608
567.69	25.631
568.03	25.660
568.36	25.689
568.69	25.720
569.03	25.736
569.36	25.738
569.70	25.720
570.03	25.713
570.37	25.730
570.70	25.743
571.04	25.739
571.37	25.722
571.70	25.754
572.04	25.754
572.37	25.793
572.71	25.807
573.04	25.825
573.37	25.827
573.71	25.863
574.04	25.832
574.38	25.825
574.71	25.823
575.04	25.832
575.38	25.808
575.71	25.809
576.05	25.750
576.38	25.766
576.71	25.744
577.05	25.777
577.38	25.781
577.71	25.815
578.05	25.831
578.38	25.840
578.71	25.847
579.05	25.856
579.38	25.890
579.71	25.926
580.05	25.906
580.38	25.880
580.71	25.854
581.05	25.852
581.38	25.836
581.71	25.861
582.05	25.865
582.38	25.859
582.71	25.867
583.04	25.860
583.38	25.869
583.71	25.909
584.04	25.945
584.38	25.978
584.71	25.948
585.04	25.979
585.37	25.951
585.71	25.953
586.04	25.959
586.37	25.970
586.70	25.996
587.04	25.986
587.37	25.942
587.70	25.932
588.03	25.901
588.37	25.919
588.70	25.900
589.03	25.914
589.36	25.930
589.69	25.943
590.03	25.920
590.36	25.904
590.69	25.900
591.02	25.937
591.35	25.948
591.69	25.975
592.02	25.991
592.35	25.982
592.68	25.972
593.01	25.965
593.35	25.955
593.68	25.927
594.01	25.914
594.34	25.926
594.67	25.876
595.00	25.900
595.34	25.866
595.67	25.840
596.00	25.857
596.33	25.840
596.66	25.795
596.99	25.764
597.32	25.748
597.65	25.738
597.99	25.707
598.32	25.703
598.65	25.634
598.98	25.618
599.31	25.595
599.64	25.569
599.97	25.559
600.30	25.588
600.63	25.605
600.96	25.621
601.30	25.582
601.63	25.572
601.96	25.597
602.29	25.588
602.62	25.620
602.95	25.611
603.28	25.609
603.61	25.612
603.94	25.596
604.27	25.590
604.60	25.579
604.93	25.614
605.26	25.573
605.59	25.577
605.92	25.591
606.25	25.553
606.58	25.513
606.91	25.505
607.24	25.542
607.57	25.531
607.90	25.499
608.23	25.466
608.56	25.441
608.89	25.459
609.22	25.391
609.55	25.357
609.88	25.324
610.21	25.346
610.54	25.317
610.87	25.258
611.20	25.249
611.53	25.219
611.86	25.207
612.19	25.190
612.52	25.210
612.85	25.220
613.18	25.207
613.51	25.164
613.84	25.185
614.17	25.138
614.49	25.098
614.82	25.019
615.15	25.005
615.48	24.991
615.81	24.935
616.14	24.895
616.47	24.886
616.80	24.880
617.13	24.890
617.46	24.856
617.78	24.856
618.11	24.848
618.44	24.910
618.77	24.901
619.10	24.885
619.43	24.918
619.76	24.929
620.09	24.893
620.41	24.896
620.74	24.884
621.07	24.822
621.40	24.851
621.73	24.890
622.06	24.857
622.38	24.880
622.71	24.887
623.04	24.872
623.37	24.835
623.70	24.825
624.02	24.800
624.35	24.761
624.68	24.819
625.01	24.786
625.34	24.753
625.66	24.772
625.99	24.768
626.32	24.783
626.65	24.778
626.98	24.761
627.30	24.764
627.63	24.725
627.96	24.793
628.29	24.733
628.61	24.714
628.94	24.703
629.27	24.644
629.60	24.638
629.92	24.577
630.25	24.558
630.58	24.547
630.91	24.528
631.23	24.560
631.56	24.512
631.89	24.465
632.21	24.397
632.54	24.345
632.87	24.338
633.19	24.290
633.52	24.295
633.85	24.258
634.18	24.272
634.50	24.335
634.83	24.300
635.16	24.299
635.48	24.284
635.81	24.368
636.14	24.373
636.46	24.358
636.79	24.354
637.11	24.329
637.44	24.309
637.77	24.242
638.09	24.155
638.42	24.101
638.75	24.092
639.07	24.130
639.40	24.076
639.73	24.082
640.05	24.074
640.38	24.030
640.70	24.041
641.03	24.027
641.36	24.037
641.68	24.011
642.01	24.070
642.33	24.001
642.66	23.996
642.98	23.987
643.31	23.954
643.64	23.953
643.96	23.930
644.29	23.969
644.61	23.977
644.94	23.994
645.26	23.992
645.59	23.962
645.91	23.977
646.24	23.940
646.56	23.932
646.89	23.846
647.22	23.803
647.54	23.852
647.87	23.781
648.19	23.767
648.52	23.708
648.84	23.660
649.17	23.587
649.49	23.603
649.82	23.599
650.14	23.563
650.47	23.583
650.79	23.566
651.11	23.484
651.44	23.539
651.76	23.497
652.09	23.515
652.41	23.535
652.74	23.546
653.06	23.547
653.39	23.490
653.71	23.480
654.04	23.438
654.36	23.416
654.68	23.388
655.01	23.255
655.33	23.232
655.66	23.203
655.98	23.176
656.30	23.125
656.63	23.090
656.95	23.112
657.28	23.110
657.60	23.114
657.92	23.135
658.25	23.143
658.57	23.178
658.90	23.193
659.22	23.202
659.54	23.140
659.87	23.157
660.19	23.076
660.51	23.019
660.84	22.973
661.16	23.008
661.48	22.960
661.81	22.938
662.13	22.936
662.45	22.881
662.78	22.813
663.10	22.899
663.42	22.946
663.75	22.931
664.07	22.961
664.39	22.978
664.72	22.982
665.04	22.925
665.36	22.973
665.69	22.881
666.01	22.889
666.33	22.847
666.65	22.762
666.98	22.662
667.30	22.709
667.62	22.694
667.94	22.634
668.27	22.554
668.59	22.585
668.91	22.508
669.23	22.502
669.56	22.496
669.88	22.464
670.20	22.457
670.52	22.498
670.85	22.463
671.17	22.410
671.49	22.411
671.81	22.446
672.13	22.403
672.46	22.382
672.78	22.336
673.10	22.315
673.42	22.343
673.74	22.324
674.07	22.305
674.39	22.308
674.71	22.328
675.03	22.320
675.35	22.272
675.67	22.338
676.00	22.406
676.32	22.419
676.64	22.419
676.96	22.390
677.28	22.411
677.60	22.401
677.92	22.352
678.25	22.333
678.57	22.330
678.89	22.374
679.21	22.333
679.53	22.328
679.85	22.368
680.17	22.317
680.49	22.343
680.81	22.316
681.13	22.298
681.46	22.325
681.78	22.348
682.10	22.353
682.42	22.282
682.74	22.231
683.06	22.231
683.38	22.255
683.70	22.355
684.02	22.318
684.34	22.424
684.66	22.443
684.98	22.455
685.30	22.382
685.62	22.346
685.94	22.330
686.26	22.265
686.58	22.133
686.90	22.050
687.22	21.977
687.54	21.990
687.86	21.887
688.18	21.877
688.50	21.871
688.82	21.932
689.14	21.910
689.46	21.916
689.78	21.954
690.10	21.985
690.42	21.984
690.74	21.985
691.06	21.967
691.38	21.915
691.70	21.889
692.02	21.790
692.34	21.679
692.66	21.713
692.98	21.719
693.30	21.887
693.62	21.824
693.94	21.911
694.26	21.859
694.57	21.825
694.89	21.858
695.21	21.918
695.53	21.889
695.85	21.946
696.17	21.916
696.49	21.912
696.81	21.837
697.13	21.908
697.44	21.811
697.76	21.886
698.08	21.900
698.40	21.883
698.72	21.810
699.04	21.840
699.36	21.765
699.67	21.749
699.99	21.741
700.31	21.730
700.63	21.674
700.95	21.701
701.27	21.608
701.58	21.660
701.90	21.655
702.22	21.656
702.54	21.621
702.86	21.712
703.17	21.638
703.49	21.657
703.81	21.648
704.13	21.804
704.45	21.797
704.76	21.836
705.08	21.745
705.40	21.745
705.72	21.646
706.03	21.706
706.35	21.692
706.67	21.782
706.99	21.729
707.30	21.655
707.62	21.577
707.94	21.618
708.26	21.522
708.57	21.550
708.89	21.438
709.21	21.522
709.53	21.397
709.84	21.413
710.16	21.347
710.48	21.283
710.79	21.318
711.11	21.191
711.43	21.058
711.74	21.099
712.06	21.092
712.38	21.271
712.69	21.236
713.01	21.246
713.33	21.131
713.64	21.149
713.96	21.280
714.28	21.240
714.59	21.317
714.91	21.364
715.23	21.317
715.54	21.256
715.86	21.187
716.17	21.179
716.49	21.315
716.81	21.386
717.12	21.347
717.44	21.260
717.76	21.236
718.07	21.139
718.39	21.233
718.70	21.205
719.02	21.297
719.33	21.154
719.65	21.235
719.97	21.117
720.28	20.977
720.60	20.955
720.91	20.828
721.23	20.861
721.54	20.970
721.86	20.935
722.17	20.952
722.49	20.840
722.81	20.881
723.12	20.787
723.44	20.945
723.75	21.106
724.07	21.163
724.38	21.303
724.70	21.326
725.01	21.275
725.33	21.247
725.64	21.262
725.96	21.259
726.27	21.223
726.59	21.175
726.90	20.959
727.22	20.892
727.53	20.917
727.84	20.898
728.16	20.796
728.47	20.868
728.79	20.926
729.10	20.951
729.42	21.049
729.73	21.163
730.05	21.171
730.36	21.254
730.67	21.315
730.99	21.260
731.30	21.214
731.62	21.248
731.93	21.064
732.24	20.956
732.56	20.983
732.87	20.920
733.19	20.854
733.50	20.800
733.81	20.795
734.13	20.774
734.44	20.720
734.76	20.716
735.07	20.712
735.38	20.728
735.70	20.792
736.01	20.766
736.32	20.780
736.64	20.670
736.95	20.757
737.26	20.666
737.58	20.512
737.89	20.592
738.20	20.548
738.52	20.455
738.83	20.650
739.14	20.555
739.45	20.487
739.77	20.314
740.08	20.453
740.39	20.426
740.71	20.333
741.02	20.616
741.33	20.639
741.64	20.724
741.96	20.592
742.27	20.365
742.58	20.358
742.90	20.307
743.21	20.521
743.52	20.466
743.83	20.533
744.14	20.805
744.46	20.589
744.77	20.411
745.08	20.209
745.39	20.479
745.71	20.580
746.02	20.740
746.33	20.731
746.64	20.644
746.95	20.665
747.27	20.549
747.58	20.433
747.89	20.432
748.20	20.427
748.51	20.644
748.82	20.523
749.14	20.393
749.45	20.092
749.76	20.140
750.07	19.905
750.38	19.850
750.69	19.897
751.01	19.859
751.32	19.814
751.63	19.927
751.94	19.848
752.25	19.953
752.56	20.074
752.87	20.304
753.18	20.338
753.49	20.526
753.81	20.622
754.12	20.660
754.43	20.621
754.74	20.650
755.05	20.739
755.36	20.638
755.67	20.574
755.98	20.441
756.29	20.295
756.60	20.181
756.91	20.190
757.22	20.168
757.53	20.299
757.84	20.256
758.15	20.307
758.46	20.175
758.77	20.235
759.09	20.264
759.40	20.310
759.71	20.346
760.02	20.387
760.33	20.443
760.64	20.488
760.95	20.340
761.26	20.455
761.57	20.376
761.88	20.380
762.18	20.402
762.49	20.335
762.80	20.340
763.11	20.408
763.42	20.326
763.73	20.289
764.04	20.139
764.35	20.090
764.66	20.185
764.97	20.232
765.28	20.259
765.59	20.262
765.90	20.272
766.21	20.174
766.52	20.019
766.83	19.928
767.14	19.836
767.44	20.063
767.75	20.019
768.06	19.902
768.37	19.926
768.68	19.877
768.99	19.726
769.30	19.811
769.61	20.160
769.91	20.114
770.22	20.416
770.53	20.489
770.84	20.185
771.15	20.302
771.46	20.239
771.77	20.048
772.07	20.159
772.38	20.322
772.69	20.298
773.00	20.031
773.31	19.999
773.61	19.928
773.92	19.796
774.23	19.692
774.54	19.641
774.85	19.487
775.15	19.496
775.46	19.224
775.77	19.103
776.08	18.976
776.39	18.987
776.69	18.992
777.00	19.298
777.31	19.427
777.62	19.666
777.92	19.747
778.23	19.666
778.54	19.934
778.85	19.971
779.15	20.083
779.46	20.317
779.77	20.334
780.07	20.269
780.38	19.979
780.69	19.958
781.00	19.876
781.30	19.625
781.61	19.625
781.92	19.626
782.22	19.973
782.53	19.788
782.84	20.071
783.14	19.953
783.45	20.436
783.76	20.072
784.06	20.101
784.37	20.102
784.68	20.072
784.98	20.138
785.29	20.030
785.60	20.028
785.90	19.865
786.21	19.486
786.51	19.615
786.82	19.428
787.13	19.738
787.43	19.754
787.74	19.924
788.04	19.900
788.35	19.929
788.66	20.030
788.96	19.606
789.27	19.882
789.57	20.111
789.88	20.180
790.19	20.001
790.49	19.863
790.80	20.078
791.10	19.999
791.41	20.207
791.71	20.367
792.02	20.141
792.32	20.351
792.63	20.233
792.93	19.688
793.24	19.540
793.54	19.578
793.85	19.584
794.15	19.294
794.46	19.230
794.76	19.016
795.07	18.666
795.37	18.799
795.68	18.861
795.98	18.770
796.29	19.170
796.59	19.187
796.90	19.302
797.20	19.372
797.51	19.336
797.81	19.426
798.12	19.401
798.42	19.397
798.72	19.464
799.03	19.166
799.33	19.303
799.64	19.233
799.94	19.050
800.25	18.623
800.55	18.710
800.85	18.680
801.16	18.379
801.46	18.485
801.77	18.615
802.07	18.500
802.37	18.681
802.68	18.368
802.98	17.880
803.28	18.166
803.59	18.850
803.89	18.846
804.20	18.966
804.50	18.840
804.80	18.669
805.11	18.614
805.41	18.511
805.71	18.454
806.02	18.558
806.32	18.974
806.62	18.717
806.93	18.357
807.23	18.546
807.53	18.469
807.83	18.874
808.14	19.506
808.44	19.786
808.74	19.929
809.05	20.128
809.35	20.497
809.65	20.737
809.95	20.896
810.26	20.835
810.56	20.302
810.86	20.325
811.16	20.605
811.47	20.089
811.77	20.290
812.07	20.422
812.37	20.718
812.68	20.628
812.98	20.421
813.28	20.573
813.58	20.784
813.88	21.228
814.19	21.447
814.49	21.359
814.79	21.606
815.09	21.737
815.39	21.200
815.70	20.939
816.00	20.681
816.30	20.724
816.60	20.381
816.90	20.182
817.20	19.621
817.50	19.359
817.81	19.172
818.11	19.111
818.41	18.932
818.71	19.103
819.01	19.124
819.31	19.107
819.61	18.961
819.92	18.994
820.22	18.969
820.52	19.034
820.82	18.977
821.12	18.889
821.42	18.816
821.72	18.834
822.02	18.785
822.32	18.687
822.62	18.687
822.92	18.670
823.22	18.732
823.52	18.706
823.83	18.654
824.13	18.670
824.43	18.805
824.73	18.918
825.03	18.867
825.33	18.792
825.63	18.790
825.93	18.850
826.23	18.926
826.53	18.624
826.83	18.683
827.13	18.575
827.43	18.492
827.73	18.356
828.03	18.446
828.33	18.529
828.63	18.517
828.93	18.683
829.23	18.556
829.53	18.435
829.83	18.771
830.13	18.673
830.42	19.054
830.72	19.198
831.02	19.164
831.32	19.014
831.62	18.956
831.92	19.004
832.22	18.712
832.52	18.691
832.82	18.844
833.12	18.705
833.42	18.579
833.72	18.638
834.01	18.607
834.31	18.797
834.61	18.602
834.91	18.667
835.21	19.220
835.51	19.373
835.81	19.393
836.11	19.517
836.40	19.475
836.70	19.760
837.00	20.135
837.30	20.645
837.60	20.412
837.90	20.730
838.19	20.429
838.49	19.538
838.79	19.997
839.09	20.332
839.39	19.792
839.68	20.675
839.98	21.017
840.28	20.863
840.58	20.359
840.88	20.528
841.17	20.344
841.47	20.769
841.77	21.053
842.07	20.436
842.36	19.752
842.66	20.532
842.96	20.548
843.26	20.342
843.55	20.642
843.85	21.051
844.15	20.499
844.45	20.904
844.74	20.394
845.04	20.639
845.34	21.550
845.63	21.557
845.93	20.950
846.23	18.676
846.53	19.114
846.82	18.456
847.12	18.083
847.42	18.654
847.71	18.368
848.01	17.120
848.31	15.439
848.60	15.754
848.90	17.199
849.19	18.443
849.49	20.717
849.79	19.622
850.08	19.347
850.38	18.750
850.68	18.251
850.97	16.960
851.27	18.158
851.56	19.271
851.86	18.265
852.16	17.169
852.45	16.300
852.75	16.783
853.04	16.921
853.34	16.883
853.64	19.213
853.93	20.280
854.23	21.791
854.52	21.394
854.82	22.616
855.11	22.623
855.41	22.602
855.70	23.350
856.00	21.768
856.30	22.571
856.59	22.577
856.89	22.846
857.18	22.542
857.48	22.447
857.77	22.795
858.07	21.637
858.36	22.365
858.66	23.586
858.95	22.495
859.25	20.880
859.54	21.787
859.84	20.624
860.13	19.099
860.42	19.790
860.72	18.862
861.01	19.009
861.31	17.761
861.60	18.608
861.90	17.651
862.19	17.679
862.49	20.154
862.78	17.678
863.07	17.510
863.37	18.665
863.66	18.609
863.96	20.118
864.25	19.551
864.54	21.282
864.84	21.350
865.13	22.990
865.43	22.796
865.72	13.685
866.01	23.433
866.31	30.106
866.60	31.580
866.89	16.464
>>>>>End Spectral Data<<<<<
