OOIBase32 Version 2.0.0.6 Data File
++++++++++++++++++++++++++++++++++++
Date: 01-19-2012, 17:42:33
User: Valued Ocean Optics Customer
Spectrometer Serial Number: USB2E2917
Spectrometer Channel: Master
Integration Time (msec): 6
Spectra Averaged: 10
Boxcar Smoothing: 5
Correct for Electrical Dark: Enabled
Time Normalized: Disabled
Dual-beam Reference: Disabled
Reference Channel: Master
Temperature: Not acquired
Spectrometer Type: S2000
ADC Type: USB2000
Number of Pixels in File: 2048
Graph Title: 
>>>>>Begin Spectral Data<<<<<
180.30	0.000
180.67	0.000
181.03	12.215
181.40	76.637
181.77	68.233
182.14	152.920
182.51	111.245
182.88	312.836
183.25	-169.871
183.62	103.549
183.99	386.431
184.36	-69.688
184.73	-239.905
185.10	180.052
185.46	66.960
185.83	53.744
186.20	-92.182
186.57	-22.991
186.94	123.114
187.31	292.221
187.68	53.399
188.05	78.361
188.42	66.921
188.78	66.528
189.15	67.227
189.52	48.484
189.89	30.633
190.26	26.539
190.63	37.784
191.00	33.719
191.37	28.531
191.73	25.838
192.10	18.133
192.47	15.970
192.84	12.043
193.21	0.863
193.58	-23.189
193.94	-6.426
194.31	-8.220
194.68	-16.038
195.05	-22.804
195.42	-23.132
195.79	-23.684
196.15	-0.417
196.52	1.037
196.89	6.950
197.26	20.840
197.63	23.647
198.00	20.725
198.36	26.082
198.73	6.946
199.10	3.372
199.47	-13.703
199.84	-16.811
200.20	-12.437
200.57	-33.564
200.94	-17.223
201.31	-16.312
201.68	-8.530
202.04	-4.954
202.41	-13.941
202.78	-8.509
203.15	5.812
203.51	18.778
203.88	20.889
204.25	16.621
204.62	24.384
204.98	2.319
205.35	-1.072
205.72	-9.079
206.09	-27.755
206.46	0.413
206.82	8.812
207.19	-4.141
207.56	-19.273
207.92	-14.031
208.29	-44.521
208.66	-51.161
209.03	-31.109
209.39	-18.647
209.76	-9.019
210.13	2.574
210.50	6.011
210.86	9.644
211.23	18.010
211.60	28.288
211.96	22.760
212.33	27.189
212.70	26.863
213.07	32.721
213.43	23.981
213.80	21.219
214.17	15.875
214.53	1.385
214.90	6.677
215.27	6.984
215.63	1.148
216.00	-2.915
216.37	-6.304
216.74	-4.434
217.10	-15.990
217.47	-18.432
217.84	-15.307
218.20	-7.597
218.57	-1.526
218.94	-4.518
219.30	-8.238
219.67	-3.635
220.04	-3.712
220.40	-6.146
220.77	-8.102
221.13	-4.093
221.50	-9.037
221.87	-9.896
222.23	-15.710
222.60	-13.989
222.97	-13.137
223.33	-8.769
223.70	-6.330
224.07	-6.192
224.43	-2.291
224.80	-1.242
225.16	-0.477
225.53	3.425
225.90	3.445
226.26	3.786
226.63	3.803
226.99	3.727
227.36	3.727
227.73	3.067
228.09	3.160
228.46	3.281
228.82	3.444
229.19	2.872
229.56	0.917
229.92	0.146
230.29	-0.764
230.65	-1.975
231.02	-3.089
231.38	-4.147
231.75	-5.702
232.12	-4.347
232.48	-3.368
232.85	-2.264
233.21	-0.614
233.58	0.109
233.94	1.523
234.31	3.182
234.68	3.324
235.04	4.952
235.41	5.499
235.77	5.584
236.14	4.511
236.50	3.848
236.87	3.019
237.23	2.328
237.60	2.668
237.96	1.833
238.33	2.320
238.69	2.784
239.06	2.189
239.42	2.093
239.79	2.452
240.15	2.920
240.52	2.868
240.88	3.083
241.25	3.432
241.61	3.692
241.98	3.978
242.34	3.412
242.71	3.390
243.07	3.009
243.44	2.725
243.80	2.613
244.17	2.663
244.53	2.798
244.90	2.476
245.26	2.219
245.63	2.262
245.99	2.253
246.36	2.468
246.72	2.418
247.09	2.679
247.45	2.833
247.81	2.953
248.18	2.644
248.54	2.443
248.91	2.515
249.27	2.419
249.64	2.044
250.00	2.124
250.36	1.665
250.73	1.609
251.09	1.461
251.46	1.494
251.82	1.358
252.19	1.563
252.55	1.540
252.91	1.719
253.28	2.356
253.64	2.731
254.01	3.301
254.37	3.791
254.73	3.614
255.10	3.190
255.46	3.185
255.83	2.905
256.19	2.775
256.55	2.718
256.92	2.690
257.28	2.266
257.65	2.196
258.01	2.025
258.37	1.918
258.74	1.974
259.10	2.030
259.46	1.879
259.83	2.144
260.19	2.184
260.55	2.063
260.92	2.041
261.28	2.141
261.64	1.977
262.01	1.856
262.37	1.810
262.73	1.752
263.10	1.820
263.46	1.812
263.82	1.442
264.19	1.291
264.55	1.408
264.91	1.406
265.28	1.550
265.64	1.594
266.00	1.633
266.37	1.772
266.73	1.745
267.09	1.886
267.46	1.831
267.82	1.821
268.18	1.779
268.54	1.717
268.91	1.825
269.27	1.645
269.63	1.458
270.00	1.412
270.36	1.303
270.72	1.310
271.08	1.314
271.45	1.450
271.81	1.587
272.17	1.947
272.53	2.243
272.90	2.127
273.26	2.255
273.62	2.471
273.98	2.469
274.35	2.605
274.71	2.917
275.07	2.854
275.43	2.897
275.80	2.727
276.16	2.560
276.52	2.429
276.88	2.493
277.25	2.401
277.61	2.564
277.97	2.496
278.33	2.431
278.69	2.231
279.06	2.244
279.42	2.186
279.78	2.088
280.14	1.926
280.50	1.815
280.87	1.915
281.23	1.849
281.59	1.719
281.95	1.831
282.31	1.930
282.68	1.739
283.04	1.642
283.40	1.635
283.76	1.774
284.12	1.919
284.48	1.829
284.85	1.549
285.21	1.519
285.57	1.474
285.93	1.328
286.29	1.296
286.65	1.592
287.02	1.683
287.38	1.807
287.74	1.850
288.10	1.738
288.46	1.834
288.82	2.210
289.18	2.377
289.54	2.317
289.91	2.525
290.27	2.450
290.63	2.264
290.99	2.195
291.35	2.002
291.71	1.840
292.07	1.810
292.43	1.708
292.79	1.563
293.16	1.624
293.52	1.718
293.88	1.626
294.24	1.732
294.60	1.768
294.96	1.842
295.32	1.913
295.68	2.024
296.04	2.139
296.40	2.193
296.76	2.138
297.12	2.095
297.49	2.170
297.85	2.258
298.21	2.176
298.57	2.186
298.93	2.159
299.29	2.200
299.65	2.171
300.01	2.143
300.37	2.279
300.73	2.403
301.09	2.384
301.45	2.212
301.81	2.027
302.17	2.121
302.53	1.984
302.89	2.050
303.25	2.114
303.61	1.988
303.97	1.975
304.33	1.940
304.69	1.737
305.05	1.833
305.41	1.925
305.77	2.043
306.13	2.013
306.49	2.131
306.85	1.938
307.21	1.858
307.57	2.023
307.93	1.977
308.29	1.931
308.65	2.022
309.01	2.065
309.37	2.095
309.73	2.012
310.09	1.913
310.45	1.852
310.81	2.007
311.17	2.013
311.53	2.021
311.89	2.056
312.25	2.179
312.61	2.262
312.96	2.135
313.32	2.334
313.68	2.382
314.04	2.354
314.40	2.401
314.76	2.321
315.12	2.282
315.48	2.259
315.84	2.248
316.20	2.106
316.56	1.930
316.92	2.129
317.27	1.816
317.63	1.912
317.99	2.229
318.35	2.320
318.71	2.334
319.07	2.283
319.43	2.367
319.79	2.402
320.15	2.592
320.50	2.770
320.86	2.636
321.22	2.857
321.58	2.745
321.94	2.528
322.30	2.484
322.66	2.543
323.01	2.655
323.37	2.589
323.73	2.599
324.09	2.507
324.45	2.374
324.81	2.301
325.17	2.191
325.52	2.169
325.88	2.202
326.24	2.259
326.60	2.223
326.96	2.169
327.31	2.112
327.67	2.088
328.03	2.011
328.39	2.054
328.75	2.055
329.11	1.956
329.46	2.084
329.82	2.066
330.18	2.087
330.54	2.113
330.90	2.099
331.25	2.148
331.61	2.212
331.97	2.292
332.33	2.324
332.68	2.302
333.04	2.395
333.40	2.402
333.76	2.495
334.11	2.419
334.47	2.386
334.83	2.456
335.19	2.437
335.54	2.404
335.90	2.344
336.26	2.244
336.62	2.264
336.97	2.255
337.33	2.165
337.69	2.051
338.05	2.052
338.40	2.065
338.76	1.997
339.12	1.986
339.48	1.977
339.83	2.095
340.19	2.191
340.55	2.244
340.90	2.311
341.26	2.391
341.62	2.438
341.97	2.406
342.33	2.352
342.69	2.358
343.04	2.381
343.40	2.400
343.76	2.307
344.12	2.243
344.47	2.142
344.83	2.214
345.19	2.166
345.54	2.275
345.90	2.293
346.26	2.337
346.61	2.390
346.97	2.370
347.32	2.335
347.68	2.401
348.04	2.508
348.39	2.629
348.75	2.548
349.11	2.592
349.46	2.468
349.82	2.462
350.18	2.458
350.53	2.445
350.89	2.463
351.24	2.499
351.60	2.454
351.96	2.326
352.31	2.301
352.67	2.346
353.02	2.332
353.38	2.371
353.74	2.411
354.09	2.461
354.45	2.449
354.80	2.439
355.16	2.458
355.52	2.538
355.87	2.571
356.23	2.561
356.58	2.505
356.94	2.549
357.29	2.525
357.65	2.546
358.00	2.558
358.36	2.599
358.72	2.634
359.07	2.564
359.43	2.452
359.78	2.482
360.14	2.476
360.49	2.541
360.85	2.497
361.20	2.567
361.56	2.523
361.91	2.510
362.27	2.450
362.62	2.470
362.98	2.529
363.33	2.613
363.69	2.625
364.04	2.618
364.40	2.588
364.75	2.584
365.11	2.550
365.46	2.585
365.82	2.593
366.17	2.626
366.53	2.582
366.88	2.559
367.24	2.524
367.59	2.481
367.95	2.540
368.30	2.541
368.66	2.554
369.01	2.540
369.37	2.564
369.72	2.565
370.08	2.546
370.43	2.561
370.78	2.557
371.14	2.623
371.49	2.662
371.85	2.640
372.20	2.584
372.56	2.605
372.91	2.576
373.26	2.570
373.62	2.566
373.97	2.580
374.33	2.605
374.68	2.620
375.03	2.552
375.39	2.558
375.74	2.560
376.10	2.608
376.45	2.565
376.80	2.569
377.16	2.565
377.51	2.548
377.87	2.558
378.22	2.547
378.57	2.540
378.93	2.529
379.28	2.544
379.63	2.532
379.99	2.523
380.34	2.564
380.70	2.590
381.05	2.595
381.40	2.635
381.76	2.652
382.11	2.614
382.46	2.646
382.82	2.677
383.17	2.653
383.52	2.664
383.88	2.673
384.23	2.657
384.58	2.685
384.94	2.700
385.29	2.676
385.64	2.657
385.99	2.723
386.35	2.700
386.70	2.699
387.05	2.727
387.41	2.706
387.76	2.712
388.11	2.715
388.47	2.682
388.82	2.632
389.17	2.636
389.52	2.632
389.88	2.618
390.23	2.630
390.58	2.620
390.93	2.618
391.29	2.632
391.64	2.599
391.99	2.581
392.34	2.590
392.70	2.603
393.05	2.604
393.40	2.633
393.75	2.640
394.11	2.609
394.46	2.606
394.81	2.571
395.16	2.577
395.52	2.602
395.87	2.616
396.22	2.656
396.57	2.715
396.92	2.756
397.28	2.765
397.63	2.766
397.98	2.795
398.33	2.800
398.68	2.824
399.04	2.841
399.39	2.875
399.74	2.860
400.09	2.809
400.44	2.788
400.80	2.757
401.15	2.752
401.50	2.749
401.85	2.780
402.20	2.775
402.55	2.783
402.90	2.771
403.26	2.732
403.61	2.758
403.96	2.789
404.31	2.803
404.66	2.809
405.01	2.818
405.36	2.832
405.72	2.813
406.07	2.831
406.42	2.848
406.77	2.882
407.12	2.908
407.47	2.947
407.82	2.962
408.17	2.968
408.53	2.978
408.88	2.968
409.23	2.959
409.58	2.947
409.93	2.954
410.28	2.958
410.63	2.953
410.98	2.954
411.33	2.951
411.68	2.929
412.03	2.916
412.38	2.927
412.73	2.942
413.09	2.941
413.44	2.950
413.79	2.965
414.14	2.940
414.49	2.924
414.84	2.925
415.19	2.882
415.54	2.901
415.89	2.884
416.24	2.868
416.59	2.861
416.94	2.861
417.29	2.855
417.64	2.838
417.99	2.843
418.34	2.851
418.69	2.857
419.04	2.865
419.39	2.856
419.74	2.866
420.09	2.886
420.44	2.888
420.79	2.896
421.14	2.921
421.49	2.943
421.84	2.959
422.19	2.968
422.54	2.983
422.89	3.011
423.24	3.020
423.59	3.032
423.94	3.040
424.29	3.061
424.64	3.074
424.99	3.078
425.34	3.083
425.68	3.096
426.03	3.129
426.38	3.139
426.73	3.159
427.08	3.191
427.43	3.226
427.78	3.224
428.13	3.236
428.48	3.257
428.83	3.270
429.18	3.279
429.53	3.271
429.87	3.266
430.22	3.274
430.57	3.271
430.92	3.278
431.27	3.286
431.62	3.304
431.97	3.313
432.32	3.314
432.67	3.334
433.01	3.359
433.36	3.374
433.71	3.391
434.06	3.394
434.41	3.415
434.76	3.448
435.11	3.464
435.45	3.462
435.80	3.473
436.15	3.485
436.50	3.479
436.85	3.479
437.20	3.492
437.54	3.492
437.89	3.495
438.24	3.509
438.59	3.495
438.94	3.485
439.29	3.507
439.63	3.512
439.98	3.513
440.33	3.528
440.68	3.546
441.03	3.563
441.37	3.586
441.72	3.616
442.07	3.626
442.42	3.644
442.76	3.661
443.11	3.660
443.46	3.677
443.81	3.699
444.16	3.703
444.50	3.701
444.85	3.722
445.20	3.727
445.55	3.739
445.89	3.749
446.24	3.761
446.59	3.791
446.94	3.813
447.28	3.835
447.63	3.877
447.98	3.922
448.32	3.963
448.67	3.971
449.02	4.007
449.37	4.033
449.71	4.047
450.06	4.060
450.41	4.075
450.75	4.115
451.10	4.142
451.45	4.148
451.79	4.169
452.14	4.188
452.49	4.220
452.84	4.233
453.18	4.242
453.53	4.267
453.88	4.293
454.22	4.299
454.57	4.294
454.92	4.297
455.26	4.289
455.61	4.273
455.95	4.273
456.30	4.278
456.65	4.294
456.99	4.301
457.34	4.307
457.69	4.311
458.03	4.322
458.38	4.341
458.73	4.358
459.07	4.379
459.42	4.407
459.76	4.445
460.11	4.483
460.46	4.512
460.80	4.543
461.15	4.586
461.49	4.633
461.84	4.670
462.19	4.713
462.53	4.737
462.88	4.797
463.22	4.839
463.57	4.852
463.91	4.851
464.26	4.868
464.61	4.901
464.95	4.917
465.30	4.936
465.64	4.949
465.99	4.962
466.33	4.982
466.68	4.983
467.02	4.995
467.37	4.994
467.71	5.021
468.06	5.036
468.41	5.047
468.75	5.065
469.10	5.079
469.44	5.105
469.79	5.116
470.13	5.147
470.48	5.162
470.82	5.180
471.17	5.217
471.51	5.234
471.86	5.241
472.20	5.261
472.55	5.267
472.89	5.278
473.23	5.290
473.58	5.325
473.92	5.328
474.27	5.339
474.61	5.345
474.96	5.354
475.30	5.376
475.65	5.393
475.99	5.414
476.34	5.433
476.68	5.438
477.02	5.438
477.37	5.420
477.71	5.412
478.06	5.396
478.40	5.397
478.75	5.397
479.09	5.395
479.43	5.456
479.78	5.549
480.12	5.664
480.47	5.783
480.81	5.916
481.15	6.047
481.50	6.178
481.84	6.331
482.19	6.483
482.53	6.641
482.87	6.776
483.22	6.829
483.56	6.804
483.90	6.736
484.25	6.637
484.59	6.514
484.94	6.374
485.28	6.224
485.62	6.057
485.97	5.887
486.31	5.721
486.65	5.589
487.00	5.502
487.34	5.463
487.68	5.452
488.03	5.474
488.37	5.497
488.71	5.536
489.06	5.586
489.40	5.626
489.74	5.665
490.09	5.709
490.43	5.753
490.77	5.799
491.11	5.849
491.46	5.890
491.80	5.923
492.14	5.955
492.49	5.979
492.83	6.010
493.17	6.038
493.51	6.073
493.86	6.109
494.20	6.127
494.54	6.143
494.88	6.134
495.23	6.148
495.57	6.162
495.91	6.187
496.25	6.215
496.60	6.229
496.94	6.257
497.28	6.287
497.62	6.303
497.97	6.339
498.31	6.368
498.65	6.413
498.99	6.454
499.33	6.478
499.68	6.509
500.02	6.527
500.36	6.553
500.70	6.584
501.04	6.604
501.39	6.651
501.73	6.682
502.07	6.727
502.41	6.747
502.75	6.754
503.09	6.785
503.44	6.805
503.78	6.838
504.12	6.855
504.46	6.869
504.80	6.891
505.14	6.889
505.49	6.899
505.83	6.903
506.17	6.917
506.51	6.947
506.85	6.956
507.19	6.960
507.53	6.977
507.87	6.994
508.22	7.026
508.56	7.038
508.90	7.073
509.24	7.095
509.58	7.124
509.92	7.154
510.26	7.178
510.60	7.208
510.94	7.253
511.28	7.281
511.63	7.327
511.97	7.367
512.31	7.437
512.65	7.466
512.99	7.506
513.33	7.536
513.67	7.571
514.01	7.590
514.35	7.619
514.69	7.626
515.03	7.633
515.37	7.630
515.71	7.624
516.05	7.612
516.39	7.620
516.73	7.642
517.07	7.658
517.41	7.679
517.75	7.706
518.09	7.735
518.43	7.767
518.77	7.817
519.11	7.875
519.45	7.925
519.79	7.975
520.13	8.031
520.47	8.068
520.81	8.109
521.15	8.136
521.49	8.166
521.83	8.175
522.17	8.196
522.51	8.204
522.85	8.192
523.19	8.187
523.53	8.184
523.87	8.190
524.21	8.226
524.55	8.299
524.89	8.392
525.23	8.487
525.57	8.574
525.91	8.665
526.25	8.754
526.58	8.851
526.92	8.942
527.26	9.012
527.60	9.031
527.94	8.993
528.28	8.897
528.62	8.762
528.96	8.622
529.30	8.569
529.64	8.507
529.97	8.442
530.31	8.379
530.65	8.322
530.99	8.281
531.33	8.298
531.67	8.358
532.01	8.460
532.35	8.601
532.68	8.743
533.02	8.778
533.36	8.813
533.70	8.842
534.04	8.874
534.38	8.897
534.71	8.932
535.05	8.970
535.39	9.005
535.73	9.041
536.07	9.073
536.41	9.076
536.74	9.093
537.08	9.099
537.42	9.128
537.76	9.117
538.10	9.131
538.43	9.140
538.77	9.143
539.11	9.158
539.45	9.164
539.79	9.172
540.12	9.191
540.46	9.214
540.80	9.236
541.14	9.252
541.47	9.286
541.81	9.314
542.15	9.339
542.49	9.376
542.82	9.411
543.16	9.465
543.50	9.509
543.84	9.559
544.17	9.609
544.51	9.664
544.85	9.702
545.18	9.731
545.52	9.764
545.86	9.814
546.20	9.867
546.53	9.913
546.87	9.950
547.21	10.002
547.54	10.065
547.88	10.101
548.22	10.142
548.55	10.182
548.89	10.259
549.23	10.309
549.56	10.336
549.90	10.337
550.24	10.372
550.57	10.393
550.91	10.406
551.25	10.407
551.58	10.427
551.92	10.445
552.26	10.477
552.59	10.483
552.93	10.525
553.27	10.582
553.60	10.621
553.94	10.655
554.27	10.688
554.61	10.729
554.95	10.775
555.28	10.794
555.62	10.831
555.95	10.861
556.29	10.887
556.63	10.876
556.96	10.886
557.30	10.904
557.63	10.898
557.97	10.919
558.31	10.921
558.64	10.929
558.98	10.942
559.31	10.947
559.65	10.955
559.98	10.951
560.32	10.966
560.65	10.957
560.99	10.957
561.33	10.981
561.66	10.978
562.00	10.975
562.33	10.977
562.67	10.979
563.00	10.961
563.34	10.934
563.67	10.949
564.01	10.935
564.34	10.922
564.68	10.923
565.01	10.907
565.35	10.904
565.68	10.916
566.02	10.901
566.35	10.921
566.69	10.940
567.02	10.944
567.36	10.939
567.69	10.946
568.03	10.954
568.36	10.941
568.69	10.932
569.03	10.911
569.36	10.889
569.70	10.895
570.03	10.879
570.37	10.853
570.70	10.863
571.04	10.865
571.37	10.873
571.70	10.875
572.04	10.890
572.37	10.905
572.71	10.923
573.04	10.953
573.37	10.974
573.71	11.000
574.04	11.057
574.38	11.111
574.71	11.129
575.04	11.158
575.38	11.207
575.71	11.263
576.05	11.295
576.38	11.353
576.71	11.395
577.05	11.425
577.38	11.456
577.71	11.479
578.05	11.472
578.38	11.506
578.71	11.522
579.05	11.553
579.38	11.577
579.71	11.613
580.05	11.629
580.38	11.635
580.71	11.674
581.05	11.697
581.38	11.731
581.71	11.754
582.05	11.781
582.38	11.810
582.71	11.809
583.04	11.813
583.38	11.823
583.71	11.825
584.04	11.851
584.38	11.849
584.71	11.867
585.04	11.840
585.37	11.828
585.71	11.832
586.04	11.821
586.37	11.811
586.70	11.821
587.04	11.823
587.37	11.822
587.70	11.809
588.03	11.807
588.37	11.792
588.70	11.833
589.03	11.855
589.36	11.854
589.69	11.877
590.03	11.897
590.36	11.911
590.69	11.915
591.02	11.925
591.35	11.945
591.69	11.927
592.02	11.929
592.35	11.885
592.68	11.886
593.01	11.885
593.35	11.879
593.68	11.859
594.01	11.831
594.34	11.808
594.67	11.794
595.00	11.778
595.34	11.786
595.67	11.773
596.00	11.806
596.33	11.825
596.66	11.873
596.99	11.865
597.32	11.898
597.65	11.912
597.99	11.956
598.32	11.995
598.65	12.042
598.98	12.081
599.31	12.094
599.64	12.071
599.97	12.057
600.30	11.998
600.63	12.001
600.96	11.968
601.30	11.934
601.63	11.916
601.96	11.885
602.29	11.839
602.62	11.799
602.95	11.832
603.28	11.854
603.61	11.879
603.94	11.893
604.27	11.906
604.60	11.946
604.93	11.999
605.26	12.007
605.59	12.028
605.92	12.081
606.25	12.134
606.58	12.131
606.91	12.139
607.24	12.126
607.57	12.155
607.90	12.171
608.23	12.171
608.56	12.176
608.89	12.214
609.22	12.258
609.55	12.259
609.88	12.273
610.21	12.330
610.54	12.381
610.87	12.453
611.20	12.486
611.53	12.523
611.86	12.550
612.19	12.577
612.52	12.591
612.85	12.601
613.18	12.624
613.51	12.655
613.84	12.637
614.17	12.627
614.49	12.623
614.82	12.637
615.15	12.656
615.48	12.659
615.81	12.669
616.14	12.679
616.47	12.683
616.80	12.701
617.13	12.707
617.46	12.729
617.78	12.753
618.11	12.742
618.44	12.754
618.77	12.780
619.10	12.825
619.43	12.839
619.76	12.842
620.09	12.868
620.41	12.873
620.74	12.862
621.07	12.877
621.40	12.860
621.73	12.872
622.06	12.874
622.38	12.862
622.71	12.844
623.04	12.825
623.37	12.794
623.70	12.773
624.02	12.751
624.35	12.717
624.68	12.671
625.01	12.662
625.34	12.657
625.66	12.624
625.99	12.614
626.32	12.624
626.65	12.649
626.98	12.701
627.30	12.729
627.63	12.775
627.96	12.841
628.29	12.907
628.61	12.939
628.94	12.955
629.27	12.990
629.60	13.018
629.92	13.057
630.25	13.100
630.58	13.124
630.91	13.108
631.23	13.105
631.56	13.116
631.89	13.113
632.21	13.144
632.54	13.174
632.87	13.206
633.19	13.211
633.52	13.216
633.85	13.235
634.18	13.248
634.50	13.317
634.83	13.327
635.16	13.347
635.48	13.380
635.81	13.401
636.14	13.434
636.46	13.451
636.79	13.491
637.11	13.519
637.44	13.522
637.77	13.504
638.09	13.481
638.42	13.485
638.75	13.490
639.07	13.461
639.40	13.460
639.73	13.460
640.05	13.449
640.38	13.456
640.70	13.464
641.03	13.458
641.36	13.494
641.68	13.536
642.01	13.571
642.33	13.554
642.66	13.602
642.98	13.620
643.31	13.611
643.64	13.607
643.96	13.587
644.29	13.546
644.61	13.541
644.94	13.517
645.26	13.480
645.59	13.493
645.91	13.505
646.24	13.464
646.56	13.413
646.89	13.398
647.22	13.385
647.54	13.374
647.87	13.394
648.19	13.373
648.52	13.372
648.84	13.352
649.17	13.281
649.49	13.280
649.82	13.302
650.14	13.326
650.47	13.315
650.79	13.357
651.11	13.343
651.44	13.362
651.76	13.396
652.09	13.397
652.41	13.419
652.74	13.465
653.06	13.506
653.39	13.483
653.71	13.460
654.04	13.409
654.36	13.342
654.68	13.308
655.01	13.250
655.33	13.194
655.66	13.152
655.98	13.106
656.30	13.034
656.63	12.973
656.95	12.933
657.28	12.940
657.60	12.965
657.92	12.970
658.25	12.989
658.57	12.995
658.90	13.017
659.22	13.044
659.54	13.089
659.87	13.135
660.19	13.141
660.51	13.146
660.84	13.122
661.16	13.144
661.48	13.176
661.81	13.217
662.13	13.200
662.45	13.193
662.78	13.192
663.10	13.168
663.42	13.200
663.75	13.223
664.07	13.253
664.39	13.271
664.72	13.269
665.04	13.249
665.36	13.159
665.69	13.196
666.01	13.188
666.33	13.170
666.65	13.153
666.98	13.123
667.30	13.075
667.62	13.064
667.94	13.062
668.27	13.030
668.59	13.031
668.91	13.098
669.23	13.092
669.56	13.073
669.88	13.112
670.20	13.121
670.52	13.141
670.85	13.137
671.17	13.128
671.49	13.077
671.81	13.075
672.13	13.088
672.46	13.124
672.78	13.069
673.10	13.125
673.42	13.134
673.74	13.170
674.07	13.170
674.39	13.214
674.71	13.291
675.03	13.322
675.35	13.377
675.67	13.364
676.00	13.285
676.32	13.326
676.64	13.285
676.96	13.227
677.28	13.160
677.60	13.098
677.92	13.070
678.25	13.002
678.57	13.035
678.89	12.992
679.21	12.970
679.53	13.032
679.85	13.074
680.17	13.138
680.49	13.243
680.81	13.346
681.13	13.446
681.46	13.529
681.78	13.643
682.10	13.664
682.42	13.779
682.74	13.888
683.06	13.988
683.38	14.041
683.70	14.106
684.02	14.117
684.34	14.161
684.66	14.278
684.98	14.333
685.30	14.434
685.62	14.610
685.94	14.689
686.26	14.788
686.58	14.863
686.90	14.964
687.22	15.070
687.54	15.160
687.86	15.261
688.18	15.331
688.50	15.460
688.82	15.526
689.14	15.618
689.46	15.738
689.78	15.842
690.10	16.017
690.42	16.203
690.74	16.303
691.06	16.466
691.38	16.574
691.70	16.711
692.02	16.822
692.34	16.984
692.66	17.101
692.98	17.290
693.30	17.446
693.62	17.513
693.94	17.508
694.26	17.595
694.57	17.657
694.89	17.772
695.21	17.824
695.53	17.873
695.85	17.904
696.17	17.946
696.49	17.953
696.81	17.976
697.13	17.958
697.44	18.096
697.76	18.218
698.08	18.324
698.40	18.499
698.72	18.634
699.04	18.863
699.36	19.073
699.67	19.238
699.99	19.370
700.31	19.616
700.63	19.939
700.95	20.116
701.27	20.303
701.58	20.621
701.90	20.729
702.22	20.951
702.54	21.006
702.86	21.097
703.17	21.229
703.49	21.433
703.81	21.518
704.13	21.626
704.45	21.727
704.76	21.750
705.08	21.720
705.40	21.771
705.72	21.736
706.03	21.806
706.35	21.882
706.67	21.968
706.99	22.001
707.30	22.022
707.62	21.999
707.94	22.075
708.26	22.136
708.57	22.148
708.89	22.218
709.21	22.296
709.53	22.410
709.84	22.485
710.16	22.500
710.48	22.530
710.79	22.628
711.11	22.738
711.43	22.832
711.74	22.813
712.06	22.862
712.38	22.877
712.69	22.932
713.01	22.900
713.33	22.887
713.64	22.949
713.96	23.053
714.28	23.086
714.59	23.125
714.91	23.078
715.23	23.310
715.54	23.378
715.86	23.446
716.17	23.551
716.49	23.655
716.81	23.683
717.12	23.829
717.44	23.860
717.76	23.949
718.07	23.995
718.39	24.093
718.70	24.154
719.02	24.297
719.33	24.373
719.65	24.366
719.97	24.413
720.28	24.572
720.60	24.574
720.91	24.635
721.23	24.643
721.54	24.753
721.86	24.853
722.17	24.796
722.49	24.819
722.81	24.995
723.12	25.144
723.44	25.243
723.75	25.242
724.07	25.355
724.38	25.492
724.70	25.666
725.01	25.719
725.33	25.765
725.64	25.866
725.96	25.942
726.27	25.879
726.59	25.895
726.90	25.926
727.22	26.038
727.53	26.039
727.84	26.044
728.16	26.000
728.47	26.069
728.79	26.122
729.10	26.212
729.42	26.290
729.73	26.332
730.05	26.383
730.36	26.444
730.67	26.478
730.99	26.584
731.30	26.672
731.62	26.819
731.93	26.889
732.24	27.048
732.56	27.078
732.87	27.100
733.19	27.355
733.50	27.437
733.81	27.663
734.13	27.810
734.44	27.953
734.76	28.098
735.07	28.139
735.38	28.160
735.70	28.174
736.01	28.312
736.32	28.354
736.64	28.376
736.95	28.509
737.26	28.370
737.58	28.369
737.89	28.400
738.20	28.418
738.52	28.596
738.83	28.651
739.14	28.717
739.45	28.874
739.77	28.981
740.08	29.036
740.39	29.119
740.71	29.324
741.02	29.393
741.33	29.439
741.64	29.639
741.96	29.665
742.27	29.923
742.58	30.018
742.90	29.925
743.21	30.103
743.52	30.140
743.83	30.127
744.14	29.977
744.46	30.032
744.77	30.113
745.08	30.072
745.39	30.040
745.71	30.009
746.02	29.893
746.33	30.027
746.64	30.003
746.95	30.031
747.27	30.173
747.58	30.356
747.89	30.382
748.20	30.272
748.51	30.172
748.82	30.319
749.14	30.529
749.45	30.642
749.76	30.644
750.07	30.676
750.38	30.540
750.69	30.618
751.01	30.724
751.32	30.828
751.63	31.003
751.94	31.104
752.25	30.955
752.56	30.776
752.87	30.823
753.18	30.903
753.49	31.007
753.81	31.123
754.12	30.999
754.43	30.780
754.74	30.704
755.05	30.593
755.36	30.627
755.67	30.641
755.98	30.561
756.29	30.512
756.60	30.367
756.91	30.179
757.22	29.959
757.53	29.879
757.84	29.970
758.15	30.006
758.46	29.899
758.77	29.877
759.09	29.925
759.40	29.911
759.71	30.063
760.02	30.045
760.33	30.148
760.64	30.186
760.95	30.212
761.26	30.276
761.57	30.219
761.88	30.305
762.18	30.229
762.49	30.165
762.80	30.176
763.11	30.060
763.42	30.063
763.73	30.092
764.04	30.265
764.35	30.319
764.66	30.356
764.97	30.446
765.28	30.671
765.59	30.836
765.90	31.117
766.21	31.390
766.52	31.732
766.83	31.889
767.14	31.817
767.44	32.021
767.75	32.041
768.06	32.012
768.37	32.230
768.68	32.112
768.99	32.275
769.30	32.198
769.61	32.248
769.91	32.241
770.22	32.515
770.53	32.771
770.84	32.724
771.15	32.975
771.46	32.988
771.77	33.076
772.07	33.167
772.38	33.194
772.69	33.335
773.00	33.336
773.31	33.377
773.61	33.175
773.92	33.289
774.23	33.463
774.54	33.497
774.85	33.869
775.15	33.852
775.46	33.917
775.77	33.878
776.08	33.801
776.39	33.970
776.69	33.863
777.00	34.099
777.31	34.140
777.62	34.041
777.92	33.853
778.23	33.683
778.54	33.752
778.85	33.728
779.15	33.685
779.46	33.715
779.77	33.625
780.07	33.625
780.38	33.552
780.69	33.555
781.00	33.671
781.30	33.945
781.61	34.106
781.92	34.032
782.22	34.120
782.53	34.023
782.84	34.059
783.14	34.113
783.45	34.376
783.76	34.395
784.06	34.345
784.37	34.180
784.68	34.149
784.98	34.142
785.29	34.064
785.60	33.875
785.90	34.018
786.21	33.936
786.51	33.729
786.82	33.403
787.13	33.472
787.43	33.635
787.74	33.634
788.04	33.681
788.35	33.643
788.66	33.862
788.96	33.788
789.27	33.677
789.57	33.718
789.88	33.898
790.19	33.906
790.49	33.587
790.80	33.485
791.10	33.607
791.41	33.417
791.71	33.343
792.02	33.308
792.32	33.531
792.63	33.669
792.93	33.593
793.24	33.842
793.54	33.858
793.85	34.071
794.15	34.024
794.46	34.086
794.76	34.524
795.07	34.358
795.37	34.095
795.68	34.322
795.98	34.224
796.29	34.464
796.59	34.087
796.90	34.224
797.20	34.081
797.51	34.119
797.81	33.787
798.12	33.727
798.42	33.939
798.72	34.133
799.03	33.905
799.33	33.961
799.64	33.903
799.94	34.014
800.25	34.249
800.55	34.747
800.85	34.550
801.16	34.797
801.46	34.452
801.77	34.514
802.07	34.417
802.37	34.793
802.68	34.930
802.98	34.721
803.28	34.679
803.59	34.396
803.89	34.097
804.20	34.132
804.50	34.195
804.80	34.030
805.11	34.087
805.41	34.398
805.71	34.079
806.02	34.077
806.32	34.712
806.62	34.590
806.93	34.599
807.23	34.733
807.53	35.160
807.83	35.119
808.14	35.517
808.44	35.405
808.74	35.606
809.05	35.556
809.35	35.460
809.65	34.837
809.95	34.956
810.26	35.315
810.56	35.319
810.86	35.044
811.16	35.075
811.47	34.939
811.77	35.072
812.07	34.909
812.37	35.769
812.68	36.087
812.98	36.411
813.28	37.033
813.58	37.025
813.88	36.785
814.19	37.006
814.49	37.028
814.79	36.737
815.09	36.378
815.39	36.297
815.70	35.590
816.00	35.788
816.30	35.825
816.60	35.771
816.90	35.719
817.20	35.928
817.50	35.865
817.81	35.756
818.11	35.776
818.41	35.497
818.71	35.009
819.01	34.781
819.31	34.492
819.61	34.316
819.92	34.010
820.22	33.912
820.52	33.762
820.82	33.663
821.12	33.585
821.42	33.498
821.72	33.471
822.02	33.538
822.32	33.571
822.62	33.596
822.92	33.631
823.22	33.770
823.52	33.719
823.83	33.798
824.13	33.860
824.43	33.955
824.73	34.125
825.03	34.259
825.33	34.309
825.63	34.263
825.93	34.235
826.23	34.256
826.53	34.028
826.83	34.104
827.13	34.091
827.43	34.114
827.73	34.236
828.03	34.172
828.33	34.175
828.63	34.411
828.93	34.675
829.23	34.945
829.53	35.021
829.83	35.484
830.13	35.697
830.42	35.867
830.72	35.789
831.02	35.481
831.32	35.234
831.62	35.276
831.92	35.059
832.22	35.047
832.52	35.092
832.82	35.020
833.12	34.987
833.42	35.091
833.72	34.965
834.01	35.036
834.31	35.255
834.61	35.447
834.91	35.554
835.21	35.310
835.51	35.379
835.81	35.258
836.11	35.610
836.40	36.149
836.70	36.225
837.00	36.721
837.30	36.551
837.60	36.312
837.90	36.490
838.19	36.629
838.49	37.779
838.79	37.297
839.09	37.516
839.39	37.109
839.68	36.714
839.98	36.850
840.28	36.700
840.58	37.615
840.88	38.388
841.17	38.577
841.47	38.811
841.77	38.674
842.07	39.438
842.36	40.195
842.66	41.505
842.96	41.834
843.26	42.267
843.55	42.525
843.85	42.544
844.15	41.192
844.45	42.420
844.74	43.446
845.04	43.534
845.34	44.113
845.63	43.737
845.93	42.567
846.23	42.599
846.53	42.433
846.82	43.812
847.12	43.778
847.42	44.615
847.71	43.511
848.01	42.161
848.31	42.243
848.60	42.709
848.90	41.750
849.19	43.543
849.49	43.376
849.79	44.369
850.08	44.188
850.38	43.664
850.68	43.997
850.97	44.135
851.27	43.798
851.56	42.621
851.86	42.765
852.16	43.832
852.45	42.847
852.75	44.245
853.04	44.103
853.34	44.173
853.64	45.323
853.93	45.229
854.23	44.942
854.52	45.413
854.82	46.290
855.11	44.967
855.41	44.634
855.70	44.502
856.00	43.198
856.30	43.355
856.59	42.485
856.89	41.026
857.18	41.170
857.48	42.346
857.77	42.932
858.07	42.934
858.36	43.454
858.66	43.335
858.95	44.075
859.25	43.723
859.54	43.684
859.84	43.961
860.13	44.959
860.42	45.129
860.72	43.967
861.01	44.511
861.31	44.821
861.60	45.584
861.90	47.209
862.19	46.264
862.49	48.250
862.78	47.579
863.07	48.819
863.37	48.084
863.66	48.159
863.96	47.933
864.25	46.984
864.54	47.403
864.84	45.789
865.13	45.062
865.43	44.889
865.72	40.013
866.01	51.314
866.31	34.787
866.60	49.160
866.89	40.013
>>>>>End Spectral Data<<<<<
