OOIBase32 Version 2.0.0.6 Data File
++++++++++++++++++++++++++++++++++++
Date: 01-19-2012, 17:23:26
User: Valued Ocean Optics Customer
Spectrometer Serial Number: USB2E2917
Spectrometer Channel: Master
Integration Time (msec): 6
Spectra Averaged: 10
Boxcar Smoothing: 5
Correct for Electrical Dark: Enabled
Time Normalized: Disabled
Dual-beam Reference: Disabled
Reference Channel: Master
Temperature: Not acquired
Spectrometer Type: S2000
ADC Type: USB2000
Number of Pixels in File: 2048
Graph Title: 
>>>>>Begin Spectral Data<<<<<
180.30	0.000
180.67	0.000
181.03	17.834
181.40	32.206
181.77	-54.348
182.14	-211.420
182.51	41.117
182.88	201.265
183.25	-251.111
183.62	124.058
183.99	-186.997
184.36	54.510
184.73	278.698
185.10	140.958
185.46	86.981
185.83	136.530
186.20	253.879
186.57	83.342
186.94	266.621
187.31	-131.654
187.68	38.426
188.05	22.180
188.42	25.094
188.78	14.852
189.15	-5.176
189.52	25.364
189.89	17.133
190.26	20.648
190.63	22.471
191.00	25.162
191.37	25.939
191.73	28.343
192.10	20.302
192.47	19.812
192.84	24.919
193.21	23.027
193.58	8.830
193.94	13.229
194.31	20.325
194.68	32.438
195.05	25.092
195.42	14.334
195.79	-3.740
196.15	26.105
196.52	25.450
196.89	28.091
197.26	25.479
197.63	11.209
198.00	10.413
198.36	18.754
198.73	-1.154
199.10	10.649
199.47	21.103
199.84	24.105
200.20	18.273
200.57	20.514
200.94	21.708
201.31	26.357
201.68	37.127
202.04	32.069
202.41	21.927
202.78	19.818
203.15	16.870
203.51	7.023
203.88	21.421
204.25	28.281
204.62	26.724
204.98	18.093
205.35	12.209
205.72	-4.839
206.09	-7.245
206.46	2.740
206.82	20.099
207.19	11.631
207.56	-15.453
207.92	-14.969
208.29	-36.712
208.66	-46.562
209.03	-42.263
209.39	-61.808
209.76	-40.204
210.13	-34.864
210.50	-27.730
210.86	-32.285
211.23	-20.758
211.60	-0.926
211.96	-0.906
212.33	-1.790
212.70	6.680
213.07	11.792
213.43	28.865
213.80	20.238
214.17	20.434
214.53	6.838
214.90	9.842
215.27	13.133
215.63	15.466
216.00	11.421
216.37	7.887
216.74	6.516
217.10	7.757
217.47	2.782
217.84	14.358
218.20	21.603
218.57	26.278
218.94	18.898
219.30	11.140
219.67	12.968
220.04	9.897
220.40	14.907
220.77	6.347
221.13	1.339
221.50	0.080
221.87	-1.891
222.23	-2.926
222.60	-2.205
222.97	3.434
223.33	8.754
223.70	8.830
224.07	8.594
224.43	8.869
224.80	9.877
225.16	11.328
225.53	11.064
225.90	10.183
226.26	9.155
226.63	7.637
226.99	7.953
227.36	6.854
227.73	5.884
228.09	5.547
228.46	5.427
228.82	6.124
229.19	5.549
229.56	5.159
229.92	4.782
230.29	5.351
230.65	6.046
231.02	5.387
231.38	6.405
231.75	6.952
232.12	7.144
232.48	7.247
232.85	7.868
233.21	8.081
233.58	6.435
233.94	6.783
234.31	7.229
234.68	7.174
235.04	8.111
235.41	6.084
235.77	5.446
236.14	6.588
236.50	6.690
236.87	5.547
237.23	6.655
237.60	7.224
237.96	6.895
238.33	6.717
238.69	7.077
239.06	6.053
239.42	6.404
239.79	6.435
240.15	6.660
240.52	6.648
240.88	6.607
241.25	6.269
241.61	6.461
241.98	6.592
242.34	6.301
242.71	5.944
243.07	5.551
243.44	5.655
243.80	5.816
244.17	5.333
244.53	5.205
244.90	5.125
245.26	5.079
245.63	5.052
245.99	4.860
246.36	5.053
246.72	4.927
247.09	5.238
247.45	5.281
247.81	5.195
248.18	5.294
248.54	5.267
248.91	5.273
249.27	4.795
249.64	4.750
250.00	4.907
250.36	4.622
250.73	4.749
251.09	4.870
251.46	5.091
251.82	5.286
252.19	5.536
252.55	5.849
252.91	5.743
253.28	6.521
253.64	6.643
254.01	6.823
254.37	6.840
254.73	6.676
255.10	6.330
255.46	6.012
255.83	5.670
256.19	5.615
256.55	5.522
256.92	5.745
257.28	5.388
257.65	5.265
258.01	5.240
258.37	5.219
258.74	5.413
259.10	5.306
259.46	5.079
259.83	5.104
260.19	5.094
260.55	4.907
260.92	4.646
261.28	4.789
261.64	4.812
262.01	5.071
262.37	4.990
262.73	4.864
263.10	5.104
263.46	5.599
263.82	5.523
264.19	5.080
264.55	5.204
264.91	5.528
265.28	5.764
265.64	5.812
266.00	5.363
266.37	5.315
266.73	4.917
267.09	5.114
267.46	4.724
267.82	4.913
268.18	4.955
268.54	4.937
268.91	4.897
269.27	4.580
269.63	4.219
270.00	4.434
270.36	4.485
270.72	4.782
271.08	4.589
271.45	4.758
271.81	4.679
272.17	5.020
272.53	5.009
272.90	4.940
273.26	4.882
273.62	4.969
273.98	4.686
274.35	4.530
274.71	4.417
275.07	4.248
275.43	4.134
275.80	4.050
276.16	3.789
276.52	3.872
276.88	3.921
277.25	4.099
277.61	4.343
277.97	4.503
278.33	4.721
278.69	4.687
279.06	4.808
279.42	5.121
279.78	5.078
280.14	4.948
280.50	4.899
280.87	4.904
281.23	4.825
281.59	4.708
281.95	4.740
282.31	4.805
282.68	4.863
283.04	4.779
283.40	4.562
283.76	4.592
284.12	4.762
284.48	4.789
284.85	4.489
285.21	4.331
285.57	4.414
285.93	4.360
286.29	4.191
286.65	4.255
287.02	4.318
287.38	4.378
287.74	4.348
288.10	4.374
288.46	4.382
288.82	4.861
289.18	5.036
289.54	5.093
289.91	5.163
290.27	5.235
290.63	5.016
290.99	5.110
291.35	5.135
291.71	5.193
292.07	4.941
292.43	4.811
292.79	4.758
293.16	4.763
293.52	4.502
293.88	4.402
294.24	4.465
294.60	4.507
294.96	4.387
295.32	4.330
295.68	4.192
296.04	4.400
296.40	4.376
296.76	4.193
297.12	4.166
297.49	4.329
297.85	4.409
298.21	4.437
298.57	4.617
298.93	4.608
299.29	4.586
299.65	4.774
300.01	4.657
300.37	4.855
300.73	4.922
301.09	4.929
301.45	4.966
301.81	4.836
302.17	4.818
302.53	4.622
302.89	4.676
303.25	4.688
303.61	4.551
303.97	4.610
304.33	4.588
304.69	4.573
305.05	4.763
305.41	4.721
305.77	4.933
306.13	4.971
306.49	5.035
306.85	5.008
307.21	5.093
307.57	5.233
307.93	5.249
308.29	5.205
308.65	5.332
309.01	5.338
309.37	5.353
309.73	5.212
310.09	5.049
310.45	5.112
310.81	5.232
311.17	5.226
311.53	5.206
311.89	5.141
312.25	5.090
312.61	4.991
312.96	4.903
313.32	5.014
313.68	4.977
314.04	5.085
314.40	5.147
314.76	5.136
315.12	5.103
315.48	5.032
315.84	5.156
316.20	5.310
316.56	5.235
316.92	5.446
317.27	5.344
317.63	5.428
317.99	5.623
318.35	5.576
318.71	5.552
319.07	5.460
319.43	5.677
319.79	5.644
320.15	5.741
320.50	5.873
320.86	5.620
321.22	5.716
321.58	5.797
321.94	5.689
322.30	5.691
322.66	5.800
323.01	6.064
323.37	6.018
323.73	6.204
324.09	6.114
324.45	6.076
324.81	6.229
325.17	6.234
325.52	6.272
325.88	6.336
326.24	6.433
326.60	6.440
326.96	6.368
327.31	6.418
327.67	6.358
328.03	6.407
328.39	6.548
328.75	6.587
329.11	6.589
329.46	6.657
329.82	6.634
330.18	6.667
330.54	6.657
330.90	6.653
331.25	6.734
331.61	6.825
331.97	6.914
332.33	6.882
332.68	6.839
333.04	6.915
333.40	6.876
333.76	7.026
334.11	6.931
334.47	6.951
334.83	6.984
335.19	6.986
335.54	7.025
335.90	7.046
336.26	7.041
336.62	7.125
336.97	7.155
337.33	7.192
337.69	7.135
338.05	7.215
338.40	7.296
338.76	7.246
339.12	7.240
339.48	7.144
339.83	7.242
340.19	7.315
340.55	7.395
340.90	7.423
341.26	7.520
341.62	7.550
341.97	7.523
342.33	7.426
342.69	7.534
343.04	7.543
343.40	7.590
343.76	7.477
344.12	7.497
344.47	7.369
344.83	7.397
345.19	7.379
345.54	7.400
345.90	7.456
346.26	7.533
346.61	7.592
346.97	7.594
347.32	7.552
347.68	7.560
348.04	7.573
348.39	7.710
348.75	7.634
349.11	7.659
349.46	7.582
349.82	7.623
350.18	7.594
350.53	7.513
350.89	7.547
351.24	7.602
351.60	7.650
351.96	7.595
352.31	7.498
352.67	7.568
353.02	7.549
353.38	7.656
353.74	7.589
354.09	7.677
354.45	7.766
354.80	7.798
355.16	7.836
355.52	7.849
355.87	7.888
356.23	7.966
356.58	8.016
356.94	8.049
357.29	7.991
357.65	8.062
358.00	8.055
358.36	8.060
358.72	8.044
359.07	7.990
359.43	7.957
359.78	7.942
360.14	7.911
360.49	7.898
360.85	7.905
361.20	8.007
361.56	8.034
361.91	8.072
362.27	8.032
362.62	8.091
362.98	8.182
363.33	8.265
363.69	8.383
364.04	8.464
364.40	8.465
364.75	8.524
365.11	8.540
365.46	8.564
365.82	8.644
366.17	8.748
366.53	8.806
366.88	8.811
367.24	8.887
367.59	8.865
367.95	8.900
368.30	8.994
368.66	9.010
369.01	9.034
369.37	9.083
369.72	9.091
370.08	9.079
370.43	9.066
370.78	9.122
371.14	9.138
371.49	9.189
371.85	9.228
372.20	9.250
372.56	9.319
372.91	9.294
373.26	9.354
373.62	9.421
373.97	9.516
374.33	9.605
374.68	9.635
375.03	9.665
375.39	9.693
375.74	9.747
376.10	9.821
376.45	9.811
376.80	9.935
377.16	10.002
377.51	10.033
377.87	10.128
378.22	10.128
378.57	10.205
378.93	10.232
379.28	10.348
379.63	10.403
379.99	10.423
380.34	10.576
380.70	10.643
381.05	10.746
381.40	10.841
381.76	10.871
382.11	10.938
382.46	11.062
382.82	11.196
383.17	11.252
383.52	11.336
383.88	11.459
384.23	11.505
384.58	11.637
384.94	11.706
385.29	11.764
385.64	11.836
385.99	11.971
386.35	12.001
386.70	12.070
387.05	12.121
387.41	12.183
387.76	12.245
388.11	12.304
388.47	12.338
388.82	12.359
389.17	12.431
389.52	12.470
389.88	12.499
390.23	12.567
390.58	12.625
390.93	12.734
391.29	12.807
391.64	12.824
391.99	12.876
392.34	12.918
392.70	12.985
393.05	13.014
393.40	13.063
393.75	13.146
394.11	13.184
394.46	13.219
394.81	13.242
395.16	13.327
395.52	13.401
395.87	13.467
396.22	13.535
396.57	13.625
396.92	13.741
397.28	13.823
397.63	13.857
397.98	13.920
398.33	14.000
398.68	14.046
399.04	14.051
399.39	14.118
399.74	14.113
400.09	14.131
400.44	14.125
400.80	14.081
401.15	14.108
401.50	14.143
401.85	14.174
402.20	14.176
402.55	14.209
402.90	14.251
403.26	14.263
403.61	14.319
403.96	14.364
404.31	14.432
404.66	14.507
405.01	14.536
405.36	14.614
405.72	14.648
406.07	14.705
406.42	14.742
406.77	14.835
407.12	14.879
407.47	14.940
407.82	14.980
408.17	14.969
408.53	14.999
408.88	15.065
409.23	15.018
409.58	15.007
409.93	15.004
410.28	15.032
410.63	14.999
410.98	15.002
411.33	15.007
411.68	15.017
412.03	15.042
412.38	15.033
412.73	15.017
413.09	15.026
413.44	15.042
413.79	15.030
414.14	14.995
414.49	14.979
414.84	14.941
415.19	14.927
415.54	14.862
415.89	14.808
416.24	14.777
416.59	14.737
416.94	14.717
417.29	14.685
417.64	14.688
417.99	14.675
418.34	14.649
418.69	14.668
419.04	14.659
419.39	14.681
419.74	14.696
420.09	14.695
420.44	14.713
420.79	14.740
421.14	14.773
421.49	14.803
421.84	14.842
422.19	14.865
422.54	14.881
422.89	14.909
423.24	14.955
423.59	14.997
423.94	15.070
424.29	15.125
424.64	15.179
424.99	15.240
425.34	15.295
425.68	15.359
426.03	15.447
426.38	15.513
426.73	15.577
427.08	15.599
427.43	15.663
427.78	15.664
428.13	15.689
428.48	15.692
428.83	15.677
429.18	15.657
429.53	15.635
429.87	15.610
430.22	15.599
430.57	15.593
430.92	15.604
431.27	15.596
431.62	15.627
431.97	15.640
432.32	15.653
432.67	15.695
433.01	15.744
433.36	15.770
433.71	15.814
434.06	15.868
434.41	15.907
434.76	15.950
435.11	15.990
435.45	15.971
435.80	15.975
436.15	15.985
436.50	15.999
436.85	15.978
437.20	16.003
437.54	16.012
437.89	16.002
438.24	16.003
438.59	16.006
438.94	16.006
439.29	16.020
439.63	16.042
439.98	16.058
440.33	16.052
440.68	16.051
441.03	16.038
441.37	16.043
441.72	16.056
442.07	16.053
442.42	16.039
442.76	16.012
443.11	16.011
443.46	16.021
443.81	16.016
444.16	16.028
444.50	16.031
444.85	16.044
445.20	16.050
445.55	16.074
445.89	16.097
446.24	16.129
446.59	16.189
446.94	16.230
447.28	16.251
447.63	16.308
447.98	16.343
448.32	16.414
448.67	16.451
449.02	16.500
449.37	16.518
449.71	16.550
450.06	16.571
450.41	16.595
450.75	16.625
451.10	16.648
451.45	16.648
451.79	16.676
452.14	16.678
452.49	16.696
452.84	16.720
453.18	16.737
453.53	16.741
453.88	16.763
454.22	16.764
454.57	16.768
454.92	16.780
455.26	16.789
455.61	16.783
455.95	16.790
456.30	16.796
456.65	16.793
456.99	16.806
457.34	16.849
457.69	16.867
458.03	16.882
458.38	16.919
458.73	16.938
459.07	16.968
459.42	17.032
459.76	17.093
460.11	17.155
460.46	17.233
460.80	17.284
461.15	17.356
461.49	17.440
461.84	17.520
462.19	17.586
462.53	17.664
462.88	17.751
463.22	17.786
463.57	17.838
463.91	17.882
464.26	17.931
464.61	17.989
464.95	18.012
465.30	18.044
465.64	18.094
465.99	18.130
466.33	18.176
466.68	18.240
467.02	18.291
467.37	18.327
467.71	18.372
468.06	18.420
468.41	18.475
468.75	18.511
469.10	18.521
469.44	18.557
469.79	18.592
470.13	18.641
470.48	18.650
470.82	18.696
471.17	18.744
471.51	18.786
471.86	18.792
472.20	18.797
472.55	18.805
472.89	18.851
473.23	18.860
473.58	18.875
473.92	18.857
474.27	18.855
474.61	18.846
474.96	18.830
475.30	18.856
475.65	18.868
475.99	18.892
476.34	18.901
476.68	18.909
477.02	18.914
477.37	18.936
477.71	18.975
478.06	18.988
478.40	18.989
478.75	19.075
479.09	19.169
479.43	19.515
479.78	19.950
480.12	20.431
480.47	20.930
480.81	21.418
481.15	21.906
481.50	22.412
481.84	22.990
482.19	23.635
482.53	24.231
482.87	24.737
483.22	24.884
483.56	24.774
483.90	24.498
484.25	24.093
484.59	23.630
484.94	23.104
485.28	22.503
485.62	21.842
485.97	21.124
486.31	20.463
486.65	19.915
487.00	19.552
487.34	19.357
487.68	19.317
488.03	19.352
488.37	19.408
488.71	19.500
489.06	19.612
489.40	19.708
489.74	19.813
490.09	19.926
490.43	20.017
490.77	20.125
491.11	20.231
491.46	20.268
491.80	20.297
492.14	20.351
492.49	20.403
492.83	20.464
493.17	20.535
493.51	20.604
493.86	20.675
494.20	20.750
494.54	20.842
494.88	20.923
495.23	21.002
495.57	21.086
495.91	21.159
496.25	21.239
496.60	21.311
496.94	21.403
497.28	21.497
497.62	21.594
497.97	21.708
498.31	21.794
498.65	21.909
498.99	22.019
499.33	22.131
499.68	22.245
500.02	22.345
500.36	22.475
500.70	22.589
501.04	22.682
501.39	22.778
501.73	22.859
502.07	22.982
502.41	23.058
502.75	23.153
503.09	23.242
503.44	23.328
503.78	23.432
504.12	23.501
504.46	23.578
504.80	23.665
505.14	23.752
505.49	23.844
505.83	23.937
506.17	24.035
506.51	24.122
506.85	24.228
507.19	24.328
507.53	24.410
507.87	24.522
508.22	24.629
508.56	24.751
508.90	24.855
509.24	24.962
509.58	25.059
509.92	25.174
510.26	25.301
510.60	25.414
510.94	25.526
511.28	25.636
511.63	25.751
511.97	25.860
512.31	25.983
512.65	26.100
512.99	26.220
513.33	26.301
513.67	26.382
514.01	26.475
514.35	26.538
514.69	26.628
515.03	26.709
515.37	26.753
515.71	26.818
516.05	26.865
516.39	26.937
516.73	26.996
517.07	27.069
517.41	27.131
517.75	27.207
518.09	27.301
518.43	27.367
518.77	27.434
519.11	27.543
519.45	27.614
519.79	27.704
520.13	27.776
520.47	27.862
520.81	27.945
521.15	28.020
521.49	28.092
521.83	28.130
522.17	28.212
522.51	28.275
522.85	28.329
523.19	28.432
523.53	28.556
523.87	28.722
524.21	28.972
524.55	29.322
524.89	29.709
525.23	30.087
525.57	30.483
525.91	30.838
526.25	31.209
526.58	31.581
526.92	31.907
527.26	32.129
527.60	32.165
527.94	31.949
528.28	31.529
528.62	30.990
528.96	30.434
529.30	30.146
529.64	29.844
529.97	29.530
530.31	29.187
530.65	28.867
530.99	28.634
531.33	28.606
531.67	28.793
532.01	29.123
532.35	29.531
532.68	29.941
533.02	29.985
533.36	30.029
533.70	30.037
534.04	30.054
534.38	30.059
534.71	30.085
535.05	30.098
535.39	30.135
535.73	30.132
536.07	30.181
536.41	30.252
536.74	30.311
537.08	30.399
537.42	30.481
537.76	30.555
538.10	30.657
538.43	30.730
538.77	30.782
539.11	30.831
539.45	30.916
539.79	30.976
540.12	31.015
540.46	31.063
540.80	31.082
541.14	31.105
541.47	31.119
541.81	31.121
542.15	31.116
542.49	31.132
542.82	31.142
543.16	31.147
543.50	31.150
543.84	31.145
544.17	31.172
544.51	31.197
544.85	31.241
545.18	31.269
545.52	31.300
545.86	31.351
546.20	31.438
546.53	31.490
546.87	31.542
547.21	31.605
547.54	31.652
547.88	31.687
548.22	31.734
548.55	31.781
548.89	31.890
549.23	31.970
549.56	32.029
549.90	32.043
550.24	32.099
550.57	32.147
550.91	32.168
551.25	32.225
551.58	32.280
551.92	32.371
552.26	32.414
552.59	32.447
552.93	32.506
553.27	32.593
553.60	32.675
553.94	32.765
554.27	32.832
554.61	32.926
554.95	33.024
555.28	33.109
555.62	33.167
555.95	33.257
556.29	33.289
556.63	33.319
556.96	33.368
557.30	33.396
557.63	33.395
557.97	33.434
558.31	33.471
558.64	33.497
558.98	33.548
559.31	33.567
559.65	33.624
559.98	33.683
560.32	33.741
560.65	33.749
560.99	33.803
561.33	33.842
561.66	33.856
562.00	33.872
562.33	33.893
562.67	33.913
563.00	33.956
563.34	33.927
563.67	33.954
564.01	33.973
564.34	34.019
564.68	34.022
565.01	34.046
565.35	34.081
565.68	34.144
566.02	34.176
566.35	34.197
566.69	34.199
567.02	34.264
567.36	34.299
567.69	34.329
568.03	34.357
568.36	34.400
568.69	34.422
569.03	34.437
569.36	34.450
569.70	34.499
570.03	34.532
570.37	34.556
570.70	34.579
571.04	34.613
571.37	34.632
571.70	34.685
572.04	34.721
572.37	34.776
572.71	34.839
573.04	34.885
573.37	34.934
573.71	34.988
574.04	35.061
574.38	35.149
574.71	35.216
575.04	35.294
575.38	35.348
575.71	35.463
576.05	35.566
576.38	35.663
576.71	35.792
577.05	35.857
577.38	35.938
577.71	36.046
578.05	36.128
578.38	36.211
578.71	36.299
579.05	36.369
579.38	36.405
579.71	36.485
580.05	36.549
580.38	36.555
580.71	36.591
581.05	36.643
581.38	36.630
581.71	36.656
582.05	36.680
582.38	36.734
582.71	36.809
583.04	36.837
583.38	36.857
583.71	36.857
584.04	36.896
584.38	36.960
584.71	36.988
585.04	37.059
585.37	37.070
585.71	37.145
586.04	37.149
586.37	37.159
586.70	37.206
587.04	37.238
587.37	37.279
587.70	37.359
588.03	37.406
588.37	37.457
588.70	37.552
589.03	37.605
589.36	37.627
589.69	37.676
590.03	37.715
590.36	37.756
590.69	37.767
591.02	37.838
591.35	37.799
591.69	37.793
592.02	37.794
592.35	37.739
592.68	37.761
593.01	37.752
593.35	37.758
593.68	37.769
594.01	37.735
594.34	37.742
594.67	37.729
595.00	37.748
595.34	37.813
595.67	37.853
596.00	37.937
596.33	37.988
596.66	38.057
596.99	38.113
597.32	38.192
597.65	38.288
597.99	38.363
598.32	38.450
598.65	38.534
598.98	38.551
599.31	38.582
599.64	38.554
599.97	38.543
600.30	38.503
600.63	38.524
600.96	38.498
601.30	38.442
601.63	38.456
601.96	38.453
602.29	38.442
602.62	38.459
602.95	38.501
603.28	38.546
603.61	38.600
603.94	38.683
604.27	38.735
604.60	38.754
604.93	38.866
605.26	38.907
605.59	38.956
605.92	38.995
606.25	39.042
606.58	39.089
606.91	39.144
607.24	39.131
607.57	39.148
607.90	39.155
608.23	39.219
608.56	39.233
608.89	39.264
609.22	39.291
609.55	39.378
609.88	39.443
610.21	39.490
610.54	39.537
610.87	39.716
611.20	39.818
611.53	39.895
611.86	39.992
612.19	40.101
612.52	40.191
612.85	40.265
613.18	40.305
613.51	40.363
613.84	40.428
614.17	40.493
614.49	40.408
614.82	40.410
615.15	40.480
615.48	40.468
615.81	40.466
616.14	40.505
616.47	40.516
616.80	40.555
617.13	40.543
617.46	40.571
617.78	40.547
618.11	40.638
618.44	40.691
618.77	40.700
619.10	40.814
619.43	40.855
619.76	40.869
620.09	40.934
620.41	40.965
620.74	40.995
621.07	40.995
621.40	41.051
621.73	41.019
622.06	41.002
622.38	40.955
622.71	40.880
623.04	40.851
623.37	40.815
623.70	40.774
624.02	40.726
624.35	40.704
624.68	40.675
625.01	40.627
625.34	40.636
625.66	40.655
625.99	40.689
626.32	40.722
626.65	40.796
626.98	40.797
627.30	40.831
627.63	40.876
627.96	40.945
628.29	41.050
628.61	41.125
628.94	41.170
629.27	41.158
629.60	41.187
629.92	41.223
630.25	41.219
630.58	41.269
630.91	41.313
631.23	41.354
631.56	41.314
631.89	41.281
632.21	41.300
632.54	41.323
632.87	41.380
633.19	41.439
633.52	41.488
633.85	41.513
634.18	41.529
634.50	41.541
634.83	41.533
635.16	41.658
635.48	41.698
635.81	41.718
636.14	41.780
636.46	41.768
636.79	41.769
637.11	41.726
637.44	41.735
637.77	41.792
638.09	41.799
638.42	41.830
638.75	41.773
639.07	41.803
639.40	41.820
639.73	41.816
640.05	41.851
640.38	41.873
640.70	41.914
641.03	41.931
641.36	41.987
641.68	42.053
642.01	42.054
642.33	42.082
642.66	42.098
642.98	42.132
643.31	42.110
643.64	42.124
643.96	42.100
644.29	42.067
644.61	42.065
644.94	42.075
645.26	42.045
645.59	42.081
645.91	42.094
646.24	42.097
646.56	42.053
646.89	42.053
647.22	42.026
647.54	42.027
647.87	42.029
648.19	42.042
648.52	42.000
648.84	42.018
649.17	42.025
649.49	42.026
649.82	42.016
650.14	42.028
650.47	42.041
650.79	42.107
651.11	42.065
651.44	42.141
651.76	42.134
652.09	42.098
652.41	42.067
652.74	42.060
653.06	42.072
653.39	42.037
653.71	42.007
654.04	41.988
654.36	41.899
654.68	41.902
655.01	41.785
655.33	41.756
655.66	41.733
655.98	41.648
656.30	41.559
656.63	41.510
656.95	41.426
657.28	41.462
657.60	41.450
657.92	41.480
658.25	41.470
658.57	41.508
658.90	41.464
659.22	41.499
659.54	41.560
659.87	41.661
660.19	41.691
660.51	41.748
660.84	41.734
661.16	41.730
661.48	41.790
661.81	41.874
662.13	41.912
662.45	42.003
662.78	41.992
663.10	41.993
663.42	41.950
663.75	41.987
664.07	42.068
664.39	42.037
664.72	42.058
665.04	42.004
665.36	41.974
665.69	41.910
666.01	41.853
666.33	41.879
666.65	41.864
666.98	41.839
667.30	41.754
667.62	41.726
667.94	41.765
668.27	41.769
668.59	41.756
668.91	41.737
669.23	41.815
669.56	41.804
669.88	41.863
670.20	41.911
670.52	41.891
670.85	41.947
671.17	41.975
671.49	41.983
671.81	42.000
672.13	42.046
672.46	42.083
672.78	42.024
673.10	42.115
673.42	42.054
673.74	42.060
674.07	42.097
674.39	42.041
674.71	41.965
675.03	41.908
675.35	41.922
675.67	41.847
676.00	41.803
676.32	41.713
676.64	41.649
676.96	41.525
677.28	41.427
677.60	41.315
677.92	41.287
678.25	41.264
678.57	41.231
678.89	41.128
679.21	41.080
679.53	41.050
679.85	41.077
680.17	41.045
680.49	41.109
680.81	41.136
681.13	41.199
681.46	41.235
681.78	41.283
682.10	41.301
682.42	41.362
682.74	41.412
683.06	41.438
683.38	41.505
683.70	41.525
684.02	41.532
684.34	41.607
684.66	41.620
684.98	41.640
685.30	41.604
685.62	41.691
685.94	41.683
686.26	41.659
686.58	41.692
686.90	41.658
687.22	41.640
687.54	41.586
687.86	41.540
688.18	41.602
688.50	41.585
688.82	41.594
689.14	41.501
689.46	41.533
689.78	41.582
690.10	41.672
690.42	41.650
690.74	41.645
691.06	41.624
691.38	41.618
691.70	41.584
692.02	41.565
692.34	41.554
692.66	41.611
692.98	41.570
693.30	41.503
693.62	41.309
693.94	41.252
694.26	41.209
694.57	41.204
694.89	41.120
695.21	41.042
695.53	40.943
695.85	40.804
696.17	40.729
696.49	40.650
696.81	40.622
697.13	40.495
697.44	40.487
697.76	40.449
698.08	40.407
698.40	40.456
698.72	40.499
699.04	40.557
699.36	40.702
699.67	40.753
699.99	40.768
700.31	40.789
700.63	41.040
700.95	41.147
701.27	41.260
701.58	41.438
701.90	41.380
702.22	41.370
702.54	41.389
702.86	41.355
703.17	41.334
703.49	41.416
703.81	41.444
704.13	41.407
704.45	41.374
704.76	41.325
705.08	41.220
705.40	41.180
705.72	41.122
706.03	41.129
706.35	41.086
706.67	41.061
706.99	40.924
707.30	40.913
707.62	40.879
707.94	40.841
708.26	40.741
708.57	40.699
708.89	40.672
709.21	40.669
709.53	40.644
709.84	40.595
710.16	40.542
710.48	40.540
710.79	40.431
711.11	40.329
711.43	40.345
711.74	40.345
712.06	40.327
712.38	40.325
712.69	40.286
713.01	40.203
713.33	40.126
713.64	40.106
713.96	40.112
714.28	40.124
714.59	40.086
714.91	39.975
715.23	40.110
715.54	40.112
715.86	40.095
716.17	40.023
716.49	39.993
716.81	40.098
717.12	40.157
717.44	40.156
717.76	40.111
718.07	40.199
718.39	40.211
718.70	40.053
719.02	40.045
719.33	40.010
719.65	39.951
719.97	39.942
720.28	39.834
720.60	39.726
720.91	39.596
721.23	39.753
721.54	39.619
721.86	39.661
722.17	39.552
722.49	39.559
722.81	39.622
723.12	39.712
723.44	39.768
723.75	39.678
724.07	39.604
724.38	39.648
724.70	39.592
725.01	39.569
725.33	39.500
725.64	39.555
725.96	39.474
726.27	39.364
726.59	39.280
726.90	39.172
727.22	39.209
727.53	39.247
727.84	39.257
728.16	39.067
728.47	39.130
728.79	39.104
729.10	39.042
729.42	39.020
729.73	38.947
730.05	38.889
730.36	38.807
730.67	38.822
730.99	38.835
731.30	38.738
731.62	38.818
731.93	38.688
732.24	38.621
732.56	38.625
732.87	38.548
733.19	38.668
733.50	38.715
733.81	38.798
734.13	38.782
734.44	38.669
734.76	38.724
735.07	38.680
735.38	38.627
735.70	38.602
736.01	38.456
736.32	38.439
736.64	38.302
736.95	38.281
737.26	38.135
737.58	38.020
737.89	38.012
738.20	37.973
738.52	37.949
738.83	38.081
739.14	38.109
739.45	38.193
739.77	38.169
740.08	38.286
740.39	38.192
740.71	38.398
741.02	38.402
741.33	38.452
741.64	38.388
741.96	38.355
742.27	38.290
742.58	38.301
742.90	38.274
743.21	38.379
743.52	38.159
743.83	38.149
744.14	38.081
744.46	38.171
744.77	38.183
745.08	38.176
745.39	38.149
745.71	38.085
746.02	37.915
746.33	37.961
746.64	37.839
746.95	37.849
747.27	37.856
747.58	37.633
747.89	37.538
748.20	37.459
748.51	37.496
748.82	37.563
749.14	37.543
749.45	37.421
749.76	37.386
750.07	37.274
750.38	37.180
750.69	37.185
751.01	37.352
751.32	37.382
751.63	37.313
751.94	37.198
752.25	37.084
752.56	36.957
752.87	37.192
753.18	37.117
753.49	37.234
753.81	37.282
754.12	37.162
754.43	36.988
754.74	36.888
755.05	36.841
755.36	36.949
755.67	36.890
755.98	36.929
756.29	36.692
756.60	36.634
756.91	36.360
757.22	36.231
757.53	36.286
757.84	36.364
758.15	36.359
758.46	36.406
758.77	36.145
759.09	36.126
759.40	36.134
759.71	36.215
760.02	36.188
760.33	36.320
760.64	36.340
760.95	36.353
761.26	36.302
761.57	36.213
761.88	36.155
762.18	36.307
762.49	36.304
762.80	36.302
763.11	36.316
763.42	36.256
763.73	36.259
764.04	36.263
764.35	36.134
764.66	36.075
764.97	36.031
765.28	36.033
765.59	35.973
765.90	36.000
766.21	35.887
766.52	35.940
766.83	35.888
767.14	35.703
767.44	35.869
767.75	35.960
768.06	35.821
768.37	35.776
768.68	35.831
768.99	35.703
769.30	35.466
769.61	35.530
769.91	35.346
770.22	35.602
770.53	35.699
770.84	35.571
771.15	35.566
771.46	35.615
771.77	35.832
772.07	35.742
772.38	35.672
772.69	35.694
773.00	35.587
773.31	35.505
773.61	35.283
773.92	35.257
774.23	35.083
774.54	35.108
774.85	35.353
775.15	35.297
775.46	35.193
775.77	35.364
776.08	35.514
776.39	35.430
776.69	35.565
777.00	35.495
777.31	35.533
777.62	35.438
777.92	35.358
778.23	35.227
778.54	35.207
778.85	35.128
779.15	34.999
779.46	34.825
779.77	34.891
780.07	34.683
780.38	34.767
780.69	34.626
781.00	34.829
781.30	34.888
781.61	34.998
781.92	34.794
782.22	34.940
782.53	34.847
782.84	34.889
783.14	35.091
783.45	35.237
783.76	35.207
784.06	35.366
784.37	35.386
784.68	35.352
784.98	35.057
785.29	35.222
785.60	35.048
785.90	35.332
786.21	35.331
786.51	35.102
786.82	34.995
787.13	35.136
787.43	35.109
787.74	34.898
788.04	34.829
788.35	34.967
788.66	34.846
788.96	34.805
789.27	34.584
789.57	34.402
789.88	34.554
790.19	34.429
790.49	34.109
790.80	34.131
791.10	34.272
791.41	34.296
791.71	34.098
792.02	34.257
792.32	34.281
792.63	34.231
792.93	34.343
793.24	34.192
793.54	34.273
793.85	34.277
794.15	34.295
794.46	34.236
794.76	34.201
795.07	34.207
795.37	34.201
795.68	34.439
795.98	34.510
796.29	34.409
796.59	34.386
796.90	34.547
797.20	34.611
797.51	34.655
797.81	34.708
798.12	34.848
798.42	35.122
798.72	34.984
799.03	34.829
799.33	34.723
799.64	34.929
799.94	35.016
800.25	35.016
800.55	35.171
800.85	34.965
801.16	34.757
801.46	34.579
801.77	34.345
802.07	34.663
802.37	34.556
802.68	34.326
802.98	34.272
803.28	34.215
803.59	33.905
803.89	33.577
804.20	33.332
804.50	33.312
804.80	32.944
805.11	32.925
805.41	32.461
805.71	32.408
806.02	32.698
806.32	32.784
806.62	32.697
806.93	32.823
807.23	33.055
807.53	33.062
807.83	33.268
808.14	33.468
808.44	33.617
808.74	33.989
809.05	33.830
809.35	33.671
809.65	33.358
809.95	33.339
810.26	33.704
810.56	33.931
810.86	34.233
811.16	34.190
811.47	34.162
811.77	33.810
812.07	33.822
812.37	34.384
812.68	34.745
812.98	35.012
813.28	35.815
813.58	35.483
813.88	35.367
814.19	35.383
814.49	35.561
814.79	35.553
815.09	35.425
815.39	35.265
815.70	34.892
816.00	34.685
816.30	34.526
816.60	34.102
816.90	33.935
817.20	33.853
817.50	33.948
817.81	33.942
818.11	34.028
818.41	33.937
818.71	33.876
819.01	33.823
819.31	33.663
819.61	33.529
819.92	33.345
820.22	33.390
820.52	33.431
820.82	33.449
821.12	33.359
821.42	33.356
821.72	33.355
822.02	33.353
822.32	33.377
822.62	33.394
822.92	33.481
823.22	33.514
823.52	33.528
823.83	33.495
824.13	33.439
824.43	33.461
824.73	33.492
825.03	33.556
825.33	33.531
825.63	33.505
825.93	33.493
826.23	33.573
826.53	33.603
826.83	33.498
827.13	33.675
827.43	33.694
827.73	33.859
828.03	33.763
828.33	33.828
828.63	33.882
828.93	33.899
829.23	34.310
829.53	34.290
829.83	34.424
830.13	34.503
830.42	34.103
830.72	33.952
831.02	33.838
831.32	33.634
831.62	33.561
831.92	33.329
832.22	33.411
832.52	33.122
832.82	32.823
833.12	32.858
833.42	32.816
833.72	32.993
834.01	32.986
834.31	32.850
834.61	33.210
834.91	33.557
835.21	33.911
835.51	34.141
835.81	34.351
836.11	34.742
836.40	35.133
836.70	35.361
837.00	34.768
837.30	35.496
837.60	35.644
837.90	35.257
838.19	34.767
838.49	34.888
838.79	34.566
839.09	34.471
839.39	34.334
839.68	34.120
839.98	34.546
840.28	35.612
840.58	35.305
840.88	36.072
841.17	36.274
841.47	36.243
841.77	36.240
842.07	36.116
842.36	36.989
842.66	37.668
842.96	37.875
843.26	37.760
843.55	37.110
843.85	37.453
844.15	36.145
844.45	36.421
844.74	36.928
845.04	36.821
845.34	36.916
845.63	36.124
845.93	36.159
846.23	35.557
846.53	35.953
846.82	37.024
847.12	36.957
847.42	37.066
847.71	36.986
848.01	35.937
848.31	36.104
848.60	35.919
848.90	35.751
849.19	35.936
849.49	36.687
849.79	35.936
850.08	35.809
850.38	35.248
850.68	36.340
850.97	36.864
851.27	36.570
851.56	36.050
851.86	37.128
852.16	37.527
852.45	37.068
852.75	37.956
853.04	39.815
853.34	39.678
853.64	40.867
853.93	39.537
854.23	38.609
854.52	39.173
854.82	38.269
855.11	37.725
855.41	38.608
855.70	39.309
856.00	38.453
856.30	37.631
856.59	37.641
856.89	36.979
857.18	37.406
857.48	38.461
857.77	39.240
858.07	39.505
858.36	39.493
858.66	38.348
858.95	37.546
859.25	36.345
859.54	37.021
859.84	36.294
860.13	35.112
860.42	35.851
860.72	35.318
861.01	35.039
861.31	35.866
861.60	36.160
861.90	36.879
862.19	37.181
862.49	39.620
862.78	39.192
863.07	39.574
863.37	39.825
863.66	39.017
863.96	38.406
864.25	37.501
864.54	38.592
864.84	37.531
865.13	37.580
865.43	37.105
865.72	25.637
866.01	46.504
866.31	29.893
866.60	44.199
866.89	33.193
>>>>>End Spectral Data<<<<<
